# Region        : cellZone fluid
# Cells         : 9154
# Volume        : 1.80329926e+01
# Time          	volAverage(T)
1               	2.99999945e+02
2               	2.99999973e+02
3               	3.00000349e+02
4               	3.00000907e+02
5               	3.00001376e+02
6               	3.00001953e+02
7               	3.00002646e+02
8               	3.00003687e+02
9               	3.00004659e+02
10              	3.00005775e+02
11              	3.00007251e+02
12              	3.00008751e+02
13              	3.00010253e+02
14              	3.00012822e+02
15              	3.00015459e+02
16              	3.00017640e+02
17              	3.00019994e+02
18              	3.00022468e+02
19              	3.00024911e+02
20              	3.00027234e+02
21              	3.00029597e+02
22              	3.00031732e+02
23              	3.00033863e+02
24              	3.00035904e+02
25              	3.00038045e+02
26              	3.00039777e+02
27              	3.00041562e+02
28              	3.00043690e+02
29              	3.00046320e+02
30              	3.00048594e+02
31              	3.00050870e+02
32              	3.00053486e+02
33              	3.00056747e+02
34              	3.00060050e+02
35              	3.00063108e+02
36              	3.00065867e+02
37              	3.00068634e+02
38              	3.00071878e+02
39              	3.00074617e+02
40              	3.00078765e+02
41              	3.00081738e+02
42              	3.00085346e+02
43              	3.00089911e+02
44              	3.00093740e+02
45              	3.00097123e+02
46              	3.00099801e+02
47              	3.00102439e+02
48              	3.00105416e+02
49              	3.00108048e+02
50              	3.00112110e+02
51              	3.00115139e+02
52              	3.00118158e+02
53              	3.00121545e+02
54              	3.00124216e+02
55              	3.00127779e+02
56              	3.00131943e+02
57              	3.00135086e+02
58              	3.00137997e+02
59              	3.00141126e+02
60              	3.00144559e+02
61              	3.00148590e+02
62              	3.00151761e+02
63              	3.00155007e+02
64              	3.00158042e+02
65              	3.00161152e+02
66              	3.00163427e+02
67              	3.00165632e+02
68              	3.00168803e+02
69              	3.00171071e+02
70              	3.00174130e+02
71              	3.00176952e+02
72              	3.00179610e+02
73              	3.00182395e+02
74              	3.00185863e+02
75              	3.00188342e+02
76              	3.00191312e+02
77              	3.00194178e+02
78              	3.00198726e+02
79              	3.00202694e+02
80              	3.00204146e+02
81              	3.00206496e+02
82              	3.00208627e+02
83              	3.00210890e+02
84              	3.00212203e+02
85              	3.00214525e+02
86              	3.00215720e+02
87              	3.00218506e+02
88              	3.00220304e+02
89              	3.00222210e+02
90              	3.00223105e+02
91              	3.00224352e+02
92              	3.00227125e+02
93              	3.00229920e+02
94              	3.00232562e+02
95              	3.00234298e+02
96              	3.00235821e+02
97              	3.00238174e+02
98              	3.00239509e+02
99              	3.00240979e+02
100             	3.00242923e+02
101             	3.00244204e+02
102             	3.00245095e+02
103             	3.00245735e+02
104             	3.00248329e+02
105             	3.00250736e+02
106             	3.00252240e+02
107             	3.00254989e+02
108             	3.00256276e+02
109             	3.00258672e+02
110             	3.00259451e+02
111             	3.00260169e+02
112             	3.00260207e+02
113             	3.00261202e+02
114             	3.00261844e+02
115             	3.00263110e+02
116             	3.00263680e+02
117             	3.00266355e+02
118             	3.00269599e+02
119             	3.00272632e+02
120             	3.00275184e+02
121             	3.00277115e+02
122             	3.00278847e+02
123             	3.00279785e+02
124             	3.00280131e+02
125             	3.00280437e+02
126             	3.00281972e+02
127             	3.00283368e+02
128             	3.00284573e+02
129             	3.00286274e+02
130             	3.00289366e+02
131             	3.00291114e+02
132             	3.00292216e+02
133             	3.00292829e+02
134             	3.00294470e+02
135             	3.00294821e+02
136             	3.00295183e+02
137             	3.00294828e+02
138             	3.00294905e+02
139             	3.00295917e+02
140             	3.00296994e+02
141             	3.00297974e+02
142             	3.00300171e+02
143             	3.00301928e+02
144             	3.00304743e+02
145             	3.00305254e+02
146             	3.00306285e+02
147             	3.00306352e+02
148             	3.00307061e+02
149             	3.00307430e+02
150             	3.00308098e+02
151             	3.00309280e+02
152             	3.00310335e+02
153             	3.00312493e+02
154             	3.00313324e+02
155             	3.00314863e+02
156             	3.00316293e+02
157             	3.00316337e+02
158             	3.00317339e+02
159             	3.00317354e+02
160             	3.00318462e+02
161             	3.00317886e+02
162             	3.00317706e+02
163             	3.00317657e+02
164             	3.00317642e+02
165             	3.00317555e+02
166             	3.00316917e+02
167             	3.00318249e+02
168             	3.00319257e+02
169             	3.00320078e+02
170             	3.00320580e+02
171             	3.00321683e+02
172             	3.00322068e+02
173             	3.00323257e+02
174             	3.00324387e+02
175             	3.00324266e+02
176             	3.00325614e+02
177             	3.00325819e+02
178             	3.00325507e+02
179             	3.00325604e+02
180             	3.00325219e+02
181             	3.00324832e+02
182             	3.00324905e+02
183             	3.00324222e+02
184             	3.00323530e+02
185             	3.00323031e+02
186             	3.00324272e+02
187             	3.00323929e+02
188             	3.00324720e+02
189             	3.00326053e+02
190             	3.00327091e+02
191             	3.00327670e+02
192             	3.00327661e+02
193             	3.00327877e+02
194             	3.00327770e+02
195             	3.00327765e+02
196             	3.00327650e+02
197             	3.00327698e+02
198             	3.00328204e+02
199             	3.00329013e+02
200             	3.00329411e+02
201             	3.00329467e+02
202             	3.00330535e+02
203             	3.00332219e+02
204             	3.00331744e+02
205             	3.00331490e+02
206             	3.00331123e+02
207             	3.00330060e+02
208             	3.00329826e+02
209             	3.00329734e+02
210             	3.00329509e+02
211             	3.00329799e+02
212             	3.00330540e+02
213             	3.00331795e+02
214             	3.00334309e+02
215             	3.00335294e+02
216             	3.00335210e+02
217             	3.00335295e+02
218             	3.00334661e+02
219             	3.00334948e+02
220             	3.00335068e+02
221             	3.00334640e+02
222             	3.00334228e+02
223             	3.00334268e+02
224             	3.00334592e+02
225             	3.00334823e+02
226             	3.00335972e+02
227             	3.00336481e+02
228             	3.00335731e+02
229             	3.00335851e+02
230             	3.00335233e+02
231             	3.00334985e+02
232             	3.00334403e+02
233             	3.00334127e+02
234             	3.00334129e+02
235             	3.00334461e+02
236             	3.00334825e+02
237             	3.00334792e+02
238             	3.00335120e+02
239             	3.00335669e+02
240             	3.00336371e+02
241             	3.00337189e+02
242             	3.00338129e+02
243             	3.00338403e+02
244             	3.00338873e+02
245             	3.00338838e+02
246             	3.00338713e+02
247             	3.00338438e+02
248             	3.00338001e+02
249             	3.00337561e+02
250             	3.00336946e+02
251             	3.00336339e+02
252             	3.00335926e+02
253             	3.00335781e+02
254             	3.00335647e+02
255             	3.00335672e+02
256             	3.00335805e+02
257             	3.00336091e+02
258             	3.00336574e+02
259             	3.00337168e+02
260             	3.00337825e+02
261             	3.00338530e+02
262             	3.00339167e+02
263             	3.00339744e+02
264             	3.00340090e+02
265             	3.00340675e+02
266             	3.00341084e+02
267             	3.00341415e+02
268             	3.00341709e+02
269             	3.00341769e+02
270             	3.00341946e+02
271             	3.00341978e+02
272             	3.00341820e+02
273             	3.00341545e+02
274             	3.00341202e+02
275             	3.00340947e+02
276             	3.00340823e+02
277             	3.00340783e+02
278             	3.00340909e+02
279             	3.00341132e+02
280             	3.00341472e+02
281             	3.00341893e+02
282             	3.00342341e+02
283             	3.00342847e+02
284             	3.00343183e+02
285             	3.00343512e+02
286             	3.00343856e+02
287             	3.00344015e+02
288             	3.00344224e+02
289             	3.00344394e+02
290             	3.00344482e+02
291             	3.00344543e+02
292             	3.00344606e+02
293             	3.00344451e+02
294             	3.00344079e+02
295             	3.00343587e+02
296             	3.00343294e+02
297             	3.00343120e+02
298             	3.00342910e+02
299             	3.00342726e+02
300             	3.00342672e+02
301             	3.00342780e+02
302             	3.00342933e+02
303             	3.00343162e+02
304             	3.00343370e+02
305             	3.00343700e+02
306             	3.00343972e+02
307             	3.00344119e+02
308             	3.00344515e+02
309             	3.00344786e+02
310             	3.00345123e+02
311             	3.00345452e+02
312             	3.00345791e+02
313             	3.00346126e+02
314             	3.00346256e+02
315             	3.00346177e+02
316             	3.00346363e+02
317             	3.00346182e+02
318             	3.00346036e+02
319             	3.00345877e+02
320             	3.00345737e+02
321             	3.00345546e+02
322             	3.00345475e+02
323             	3.00345440e+02
324             	3.00345447e+02
325             	3.00345470e+02
326             	3.00345557e+02
327             	3.00345662e+02
328             	3.00345852e+02
329             	3.00345954e+02
330             	3.00346036e+02
331             	3.00346202e+02
332             	3.00346366e+02
333             	3.00346547e+02
334             	3.00346774e+02
335             	3.00346879e+02
336             	3.00347015e+02
337             	3.00347086e+02
338             	3.00347039e+02
339             	3.00346950e+02
340             	3.00346868e+02
341             	3.00346761e+02
342             	3.00346566e+02
343             	3.00346349e+02
344             	3.00346166e+02
345             	3.00345999e+02
346             	3.00345894e+02
347             	3.00345807e+02
348             	3.00345804e+02
349             	3.00345815e+02
350             	3.00345965e+02
351             	3.00346146e+02
352             	3.00346183e+02
353             	3.00346538e+02
354             	3.00346807e+02
355             	3.00347017e+02
356             	3.00347313e+02
357             	3.00347545e+02
358             	3.00347694e+02
359             	3.00347781e+02
360             	3.00347919e+02
361             	3.00347987e+02
362             	3.00348025e+02
363             	3.00347987e+02
364             	3.00347953e+02
365             	3.00347927e+02
366             	3.00347872e+02
367             	3.00347763e+02
368             	3.00347851e+02
369             	3.00347595e+02
370             	3.00347464e+02
371             	3.00347391e+02
372             	3.00347422e+02
373             	3.00347499e+02
374             	3.00347637e+02
375             	3.00347842e+02
376             	3.00348077e+02
377             	3.00348302e+02
378             	3.00348643e+02
379             	3.00348917e+02
380             	3.00349233e+02
381             	3.00349588e+02
382             	3.00349880e+02
383             	3.00350109e+02
384             	3.00350298e+02
385             	3.00350417e+02
386             	3.00350443e+02
387             	3.00350380e+02
388             	3.00350247e+02
389             	3.00350111e+02
390             	3.00349986e+02
391             	3.00349830e+02
392             	3.00349621e+02
393             	3.00349463e+02
394             	3.00349279e+02
395             	3.00349128e+02
396             	3.00349066e+02
397             	3.00349096e+02
398             	3.00349168e+02
399             	3.00349282e+02
400             	3.00349392e+02
401             	3.00349624e+02
402             	3.00349948e+02
403             	3.00350196e+02
404             	3.00350405e+02
405             	3.00350590e+02
406             	3.00350742e+02
407             	3.00350853e+02
408             	3.00350918e+02
409             	3.00350975e+02
410             	3.00350967e+02
411             	3.00350904e+02
412             	3.00350806e+02
413             	3.00350756e+02
414             	3.00350551e+02
415             	3.00350366e+02
416             	3.00350206e+02
417             	3.00349974e+02
418             	3.00349795e+02
419             	3.00349676e+02
420             	3.00349601e+02
421             	3.00349591e+02
422             	3.00349650e+02
423             	3.00349750e+02
424             	3.00349896e+02
425             	3.00350079e+02
426             	3.00350286e+02
427             	3.00350500e+02
428             	3.00350765e+02
429             	3.00350994e+02
430             	3.00351093e+02
431             	3.00351249e+02
432             	3.00351311e+02
433             	3.00351291e+02
434             	3.00351211e+02
435             	3.00351062e+02
436             	3.00350874e+02
437             	3.00350648e+02
438             	3.00350415e+02
439             	3.00350170e+02
440             	3.00350083e+02
441             	3.00349899e+02
442             	3.00349794e+02
443             	3.00349813e+02
444             	3.00349861e+02
445             	3.00349958e+02
446             	3.00350105e+02
447             	3.00350321e+02
448             	3.00350514e+02
449             	3.00350741e+02
450             	3.00351010e+02
451             	3.00351294e+02
452             	3.00351448e+02
453             	3.00351583e+02
454             	3.00351687e+02
455             	3.00351759e+02
456             	3.00351781e+02
457             	3.00351753e+02
458             	3.00351668e+02
459             	3.00351554e+02
460             	3.00351385e+02
461             	3.00351184e+02
462             	3.00350918e+02
463             	3.00350799e+02
464             	3.00350622e+02
465             	3.00350486e+02
466             	3.00350375e+02
467             	3.00350349e+02
468             	3.00350351e+02
469             	3.00350384e+02
470             	3.00350472e+02
471             	3.00350644e+02
472             	3.00350877e+02
473             	3.00351139e+02
474             	3.00351420e+02
475             	3.00351672e+02
476             	3.00351928e+02
477             	3.00352165e+02
478             	3.00352367e+02
479             	3.00352493e+02
480             	3.00352551e+02
481             	3.00352551e+02
482             	3.00352518e+02
483             	3.00352415e+02
484             	3.00352268e+02
485             	3.00352095e+02
486             	3.00351920e+02
487             	3.00351688e+02
488             	3.00351520e+02
489             	3.00351329e+02
490             	3.00351199e+02
491             	3.00351147e+02
492             	3.00351163e+02
493             	3.00351213e+02
494             	3.00351311e+02
495             	3.00351468e+02
496             	3.00351661e+02
497             	3.00351849e+02
498             	3.00351990e+02
499             	3.00352161e+02
500             	3.00352328e+02
501             	3.00352412e+02
502             	3.00352512e+02
503             	3.00352603e+02
504             	3.00352613e+02
505             	3.00352503e+02
506             	3.00352381e+02
507             	3.00352201e+02
508             	3.00351968e+02
509             	3.00351744e+02
510             	3.00351612e+02
511             	3.00351461e+02
512             	3.00351347e+02
513             	3.00351293e+02
514             	3.00351284e+02
515             	3.00351315e+02
516             	3.00351408e+02
517             	3.00351543e+02
518             	3.00351706e+02
519             	3.00351897e+02
520             	3.00352110e+02
521             	3.00352328e+02
522             	3.00352530e+02
523             	3.00352721e+02
524             	3.00352882e+02
525             	3.00353018e+02
526             	3.00353121e+02
527             	3.00353174e+02
528             	3.00353310e+02
529             	3.00353154e+02
530             	3.00352992e+02
531             	3.00352856e+02
532             	3.00352660e+02
533             	3.00352451e+02
534             	3.00352137e+02
535             	3.00352051e+02
536             	3.00351907e+02
537             	3.00351784e+02
538             	3.00351680e+02
539             	3.00351648e+02
540             	3.00351659e+02
541             	3.00351726e+02
542             	3.00351844e+02
543             	3.00351989e+02
544             	3.00352165e+02
545             	3.00352367e+02
546             	3.00352565e+02
547             	3.00352777e+02
548             	3.00352983e+02
549             	3.00353160e+02
550             	3.00353284e+02
551             	3.00353368e+02
552             	3.00353402e+02
553             	3.00353379e+02
554             	3.00353296e+02
555             	3.00353176e+02
556             	3.00353029e+02
557             	3.00352841e+02
558             	3.00352642e+02
559             	3.00352473e+02
560             	3.00352291e+02
561             	3.00352163e+02
562             	3.00352163e+02
563             	3.00352081e+02
564             	3.00352081e+02
565             	3.00352173e+02
566             	3.00352309e+02
567             	3.00352499e+02
568             	3.00352680e+02
569             	3.00352865e+02
570             	3.00352992e+02
571             	3.00353238e+02
572             	3.00353419e+02
573             	3.00353589e+02
574             	3.00353708e+02
575             	3.00353727e+02
576             	3.00353678e+02
577             	3.00353538e+02
578             	3.00353363e+02
579             	3.00353183e+02
580             	3.00352939e+02
581             	3.00352672e+02
582             	3.00352492e+02
583             	3.00352296e+02
584             	3.00352146e+02
585             	3.00352031e+02
586             	3.00351968e+02
587             	3.00351957e+02
588             	3.00352006e+02
589             	3.00352130e+02
590             	3.00352285e+02
591             	3.00352472e+02
592             	3.00352657e+02
593             	3.00352811e+02
594             	3.00352999e+02
595             	3.00353113e+02
596             	3.00353244e+02
597             	3.00353299e+02
598             	3.00353348e+02
599             	3.00353320e+02
600             	3.00353264e+02
601             	3.00353145e+02
602             	3.00353054e+02
603             	3.00352893e+02
604             	3.00352702e+02
605             	3.00352513e+02
606             	3.00352319e+02
607             	3.00352165e+02
608             	3.00352016e+02
609             	3.00351916e+02
610             	3.00351867e+02
611             	3.00351854e+02
612             	3.00351898e+02
613             	3.00351988e+02
614             	3.00352121e+02
615             	3.00352282e+02
616             	3.00352450e+02
617             	3.00352596e+02
618             	3.00352725e+02
619             	3.00352827e+02
620             	3.00352910e+02
621             	3.00352968e+02
