# Region        : cellZone component_0
# Cells         : 61
# Volume        : 9.57829449e-02
# Time          	volAverage(T)
1               	3.00505889e+02
2               	3.01003616e+02
3               	3.01464303e+02
4               	3.01900650e+02
5               	3.02321485e+02
6               	3.02729603e+02
7               	3.03126627e+02
8               	3.03512978e+02
9               	3.03887651e+02
10              	3.04257503e+02
11              	3.04609297e+02
12              	3.04942788e+02
13              	3.05261623e+02
14              	3.05583092e+02
15              	3.05907107e+02
16              	3.06228070e+02
17              	3.06543028e+02
18              	3.06855331e+02
19              	3.07162430e+02
20              	3.07461383e+02
21              	3.07741753e+02
22              	3.08006327e+02
23              	3.08240378e+02
24              	3.08473002e+02
25              	3.08720454e+02
26              	3.08969399e+02
27              	3.09217313e+02
28              	3.09473009e+02
29              	3.09730130e+02
30              	3.09977675e+02
31              	3.10217868e+02
32              	3.10455973e+02
33              	3.10691001e+02
34              	3.10916788e+02
35              	3.11142551e+02
36              	3.11366931e+02
37              	3.11587950e+02
38              	3.11797866e+02
39              	3.11999182e+02
40              	3.12185549e+02
41              	3.12368104e+02
42              	3.12566606e+02
43              	3.12775002e+02
44              	3.12983962e+02
45              	3.13192430e+02
46              	3.13394190e+02
47              	3.13599135e+02
48              	3.13797822e+02
49              	3.14005733e+02
50              	3.14209813e+02
51              	3.14412449e+02
52              	3.14597879e+02
53              	3.14750761e+02
54              	3.14878676e+02
55              	3.14982346e+02
56              	3.15106566e+02
57              	3.15262277e+02
58              	3.15401270e+02
59              	3.15533892e+02
60              	3.15683997e+02
61              	3.15844790e+02
62              	3.16010302e+02
63              	3.16165233e+02
64              	3.16328512e+02
65              	3.16454240e+02
66              	3.16533062e+02
67              	3.16586272e+02
68              	3.16617761e+02
69              	3.16651278e+02
70              	3.16702740e+02
71              	3.16782401e+02
72              	3.16856656e+02
73              	3.16930551e+02
74              	3.17006697e+02
75              	3.17096726e+02
76              	3.17196297e+02
77              	3.17303479e+02
78              	3.17398428e+02
79              	3.17480416e+02
80              	3.17567485e+02
81              	3.17655977e+02
82              	3.17732044e+02
83              	3.17795066e+02
84              	3.17839760e+02
85              	3.17893962e+02
86              	3.17940595e+02
87              	3.18007239e+02
88              	3.18095532e+02
89              	3.18174960e+02
90              	3.18260326e+02
91              	3.18345532e+02
92              	3.18441028e+02
93              	3.18541443e+02
94              	3.18640258e+02
95              	3.18734508e+02
96              	3.18816808e+02
97              	3.18908602e+02
98              	3.18979884e+02
99              	3.19020533e+02
100             	3.19039995e+02
101             	3.19053908e+02
102             	3.19071103e+02
103             	3.19110140e+02
104             	3.19177408e+02
105             	3.19268374e+02
106             	3.19354736e+02
107             	3.19412267e+02
108             	3.19475632e+02
109             	3.19539436e+02
110             	3.19620275e+02
111             	3.19682495e+02
112             	3.19730307e+02
113             	3.19779407e+02
114             	3.19838258e+02
115             	3.19910521e+02
116             	3.19995489e+02
117             	3.20089612e+02
118             	3.20185426e+02
119             	3.20275493e+02
120             	3.20380587e+02
121             	3.20479973e+02
122             	3.20580630e+02
123             	3.20675859e+02
124             	3.20764402e+02
125             	3.20850007e+02
126             	3.20938113e+02
127             	3.21018375e+02
128             	3.21090971e+02
129             	3.21161752e+02
130             	3.21235025e+02
131             	3.21312172e+02
132             	3.21397342e+02
133             	3.21501078e+02
134             	3.21594316e+02
135             	3.21678992e+02
136             	3.21760794e+02
137             	3.21836058e+02
138             	3.21917705e+02
139             	3.22000902e+02
140             	3.22093651e+02
141             	3.22188197e+02
142             	3.22285616e+02
143             	3.22388271e+02
144             	3.22490346e+02
145             	3.22588651e+02
146             	3.22680246e+02
147             	3.22767538e+02
148             	3.22852301e+02
149             	3.22936458e+02
150             	3.23013666e+02
151             	3.23092357e+02
152             	3.23174478e+02
153             	3.23253943e+02
154             	3.23326137e+02
155             	3.23402927e+02
156             	3.23484583e+02
157             	3.23563238e+02
158             	3.23641973e+02
159             	3.23716972e+02
160             	3.23790113e+02
161             	3.23858036e+02
162             	3.23927525e+02
163             	3.23998657e+02
164             	3.24073260e+02
165             	3.24150125e+02
166             	3.24225490e+02
167             	3.24305810e+02
168             	3.24387890e+02
169             	3.24471316e+02
170             	3.24556717e+02
171             	3.24644041e+02
172             	3.24732010e+02
173             	3.24823054e+02
174             	3.24898366e+02
175             	3.24981761e+02
176             	3.25068801e+02
177             	3.25159112e+02
178             	3.25250157e+02
179             	3.25326866e+02
180             	3.25412776e+02
181             	3.25499500e+02
182             	3.25572838e+02
183             	3.25649479e+02
184             	3.25723724e+02
185             	3.25794048e+02
186             	3.25859698e+02
187             	3.25921983e+02
188             	3.25966624e+02
189             	3.26017559e+02
190             	3.26067522e+02
191             	3.26115090e+02
192             	3.26164238e+02
193             	3.26213336e+02
194             	3.26264136e+02
195             	3.26317825e+02
196             	3.26373924e+02
197             	3.26431211e+02
198             	3.26491490e+02
199             	3.26556566e+02
200             	3.26610077e+02
201             	3.26673260e+02
202             	3.26737640e+02
203             	3.26788869e+02
204             	3.26845413e+02
205             	3.26902118e+02
206             	3.26940081e+02
207             	3.26982239e+02
208             	3.27022262e+02
209             	3.27060566e+02
210             	3.27098347e+02
211             	3.27137272e+02
212             	3.27175863e+02
213             	3.27215452e+02
214             	3.27256741e+02
215             	3.27297595e+02
216             	3.27343721e+02
217             	3.27391049e+02
218             	3.27442903e+02
219             	3.27479471e+02
220             	3.27521173e+02
221             	3.27563115e+02
222             	3.27589517e+02
223             	3.27621393e+02
224             	3.27653912e+02
225             	3.27686359e+02
226             	3.27717920e+02
227             	3.27749400e+02
228             	3.27778728e+02
229             	3.27808955e+02
230             	3.27839279e+02
231             	3.27866313e+02
232             	3.27892567e+02
233             	3.27919122e+02
234             	3.27946526e+02
235             	3.27975104e+02
236             	3.28005240e+02
237             	3.28038275e+02
238             	3.28059680e+02
239             	3.28092036e+02
240             	3.28131491e+02
241             	3.28167275e+02
242             	3.28187071e+02
243             	3.28215714e+02
244             	3.28248689e+02
245             	3.28267665e+02
246             	3.28293434e+02
247             	3.28321300e+02
248             	3.28351030e+02
249             	3.28361347e+02
250             	3.28378940e+02
251             	3.28396794e+02
252             	3.28415250e+02
253             	3.28434602e+02
254             	3.28455219e+02
255             	3.28472658e+02
256             	3.28487648e+02
257             	3.28499755e+02
258             	3.28514851e+02
259             	3.28532748e+02
260             	3.28552631e+02
261             	3.28574025e+02
262             	3.28596650e+02
263             	3.28619939e+02
264             	3.28645527e+02
265             	3.28672093e+02
266             	3.28684292e+02
267             	3.28707071e+02
268             	3.28736666e+02
269             	3.28750188e+02
270             	3.28772570e+02
271             	3.28796640e+02
272             	3.28806155e+02
273             	3.28821364e+02
274             	3.28837471e+02
275             	3.28853320e+02
276             	3.28868846e+02
277             	3.28884281e+02
278             	3.28898881e+02
279             	3.28910768e+02
280             	3.28915889e+02
281             	3.28923258e+02
282             	3.28933622e+02
283             	3.28946992e+02
284             	3.28962666e+02
285             	3.28982487e+02
286             	3.29005672e+02
287             	3.29033330e+02
288             	3.29045434e+02
289             	3.29068217e+02
290             	3.29095650e+02
291             	3.29110268e+02
292             	3.29134863e+02
293             	3.29163873e+02
294             	3.29178188e+02
295             	3.29201670e+02
296             	3.29228024e+02
297             	3.29240235e+02
298             	3.29260044e+02
299             	3.29282672e+02
300             	3.29290754e+02
301             	3.29306058e+02
302             	3.29323626e+02
303             	3.29344348e+02
304             	3.29347970e+02
305             	3.29359602e+02
306             	3.29374676e+02
307             	3.29394545e+02
308             	3.29393949e+02
309             	3.29401759e+02
310             	3.29412083e+02
311             	3.29423400e+02
312             	3.29436120e+02
313             	3.29449377e+02
314             	3.29463103e+02
315             	3.29477410e+02
316             	3.29492978e+02
317             	3.29511275e+02
318             	3.29512567e+02
319             	3.29524309e+02
320             	3.29541783e+02
321             	3.29546410e+02
322             	3.29560452e+02
323             	3.29579124e+02
324             	3.29584592e+02
325             	3.29599610e+02
326             	3.29619963e+02
327             	3.29625701e+02
328             	3.29640370e+02
329             	3.29659112e+02
330             	3.29662558e+02
331             	3.29674068e+02
332             	3.29688888e+02
333             	3.29703590e+02
334             	3.29702302e+02
335             	3.29709620e+02
336             	3.29719958e+02
337             	3.29732481e+02
338             	3.29747086e+02
339             	3.29763832e+02
340             	3.29781762e+02
341             	3.29781040e+02
342             	3.29789571e+02
343             	3.29802516e+02
344             	3.29817929e+02
345             	3.29836214e+02
346             	3.29838269e+02
347             	3.29850355e+02
348             	3.29868169e+02
349             	3.29868667e+02
350             	3.29876076e+02
351             	3.29886875e+02
352             	3.29882601e+02
353             	3.29886068e+02
354             	3.29892466e+02
355             	3.29902516e+02
356             	3.29910286e+02
357             	3.29919612e+02
358             	3.29926835e+02
359             	3.29933987e+02
360             	3.29940055e+02
361             	3.29945748e+02
362             	3.29952684e+02
363             	3.29960733e+02
364             	3.29970830e+02
365             	3.29983567e+02
366             	3.29997110e+02
367             	3.30015973e+02
368             	3.30019479e+02
369             	3.30031801e+02
370             	3.30045259e+02
371             	3.30044312e+02
372             	3.30048722e+02
373             	3.30053142e+02
374             	3.30059068e+02
375             	3.30064712e+02
376             	3.30069325e+02
377             	3.30074155e+02
378             	3.30079162e+02
379             	3.30082123e+02
380             	3.30085992e+02
381             	3.30092434e+02
382             	3.30103446e+02
383             	3.30121491e+02
384             	3.30121754e+02
385             	3.30130940e+02
386             	3.30145880e+02
387             	3.30145254e+02
388             	3.30152200e+02
389             	3.30161133e+02
390             	3.30155730e+02
391             	3.30158221e+02
392             	3.30164061e+02
393             	3.30172454e+02
394             	3.30176948e+02
395             	3.30180299e+02
396             	3.30183843e+02
397             	3.30188847e+02
398             	3.30195432e+02
399             	3.30203608e+02
400             	3.30213398e+02
401             	3.30207977e+02
402             	3.30211961e+02
403             	3.30218511e+02
404             	3.30227845e+02
405             	3.30220169e+02
406             	3.30219877e+02
407             	3.30222083e+02
408             	3.30209055e+02
409             	3.30204753e+02
410             	3.30203712e+02
411             	3.30204640e+02
412             	3.30205360e+02
413             	3.30206930e+02
414             	3.30209441e+02
415             	3.30214915e+02
416             	3.30221490e+02
417             	3.30228618e+02
418             	3.30237333e+02
419             	3.30247953e+02
420             	3.30260927e+02
421             	3.30256467e+02
422             	3.30261994e+02
423             	3.30271898e+02
424             	3.30267952e+02
425             	3.30273530e+02
426             	3.30284826e+02
427             	3.30280026e+02
428             	3.30284326e+02
429             	3.30294488e+02
430             	3.30287049e+02
431             	3.30288504e+02
432             	3.30293976e+02
433             	3.30285164e+02
434             	3.30285476e+02
435             	3.30289544e+02
436             	3.30296989e+02
437             	3.30309774e+02
438             	3.30303071e+02
439             	3.30306906e+02
440             	3.30314125e+02
441             	3.30324290e+02
442             	3.30336919e+02
443             	3.30352045e+02
444             	3.30351170e+02
445             	3.30360029e+02
446             	3.30373440e+02
447             	3.30372808e+02
448             	3.30382120e+02
449             	3.30396705e+02
450             	3.30394608e+02
451             	3.30401255e+02
452             	3.30413283e+02
453             	3.30406991e+02
454             	3.30409559e+02
455             	3.30416361e+02
456             	3.30408487e+02
457             	3.30410179e+02
458             	3.30416082e+02
459             	3.30426340e+02
460             	3.30418799e+02
461             	3.30420996e+02
462             	3.30427414e+02
463             	3.30438754e+02
464             	3.30431250e+02
465             	3.30433399e+02
466             	3.30439782e+02
467             	3.30432546e+02
468             	3.30434473e+02
469             	3.30441796e+02
470             	3.30433026e+02
471             	3.30433461e+02
472             	3.30438705e+02
473             	3.30428714e+02
474             	3.30427903e+02
475             	3.30431149e+02
476             	3.30435374e+02
477             	3.30442522e+02
478             	3.30451079e+02
479             	3.30460733e+02
480             	3.30471148e+02
481             	3.30482871e+02
482             	3.30476647e+02
483             	3.30481031e+02
484             	3.30490102e+02
485             	3.30504458e+02
486             	3.30500303e+02
487             	3.30506500e+02
488             	3.30518373e+02
489             	3.30513859e+02
490             	3.30518893e+02
491             	3.30529045e+02
492             	3.30521353e+02
493             	3.30521811e+02
494             	3.30525874e+02
495             	3.30514897e+02
496             	3.30513418e+02
497             	3.30516179e+02
498             	3.30523951e+02
499             	3.30514389e+02
500             	3.30514304e+02
501             	3.30518666e+02
502             	3.30526630e+02
503             	3.30539543e+02
504             	3.30532412e+02
505             	3.30535650e+02
506             	3.30543772e+02
507             	3.30538590e+02
508             	3.30543527e+02
509             	3.30553981e+02
510             	3.30548290e+02
511             	3.30552770e+02
512             	3.30561860e+02
513             	3.30556425e+02
514             	3.30560231e+02
515             	3.30569621e+02
516             	3.30562124e+02
517             	3.30564042e+02
518             	3.30570787e+02
519             	3.30563502e+02
520             	3.30565871e+02
521             	3.30572488e+02
522             	3.30583367e+02
523             	3.30577691e+02
524             	3.30582196e+02
525             	3.30589656e+02
526             	3.30600938e+02
527             	3.30617454e+02
528             	3.30613955e+02
529             	3.30620455e+02
530             	3.30632217e+02
531             	3.30628909e+02
532             	3.30635815e+02
533             	3.30646098e+02
534             	3.30641763e+02
535             	3.30646068e+02
536             	3.30654377e+02
537             	3.30644945e+02
538             	3.30643771e+02
539             	3.30645246e+02
540             	3.30647001e+02
541             	3.30651212e+02
542             	3.30657134e+02
543             	3.30663799e+02
544             	3.30650803e+02
545             	3.30648251e+02
546             	3.30650130e+02
547             	3.30656252e+02
548             	3.30646643e+02
549             	3.30647118e+02
550             	3.30652319e+02
551             	3.30643171e+02
552             	3.30643811e+02
553             	3.30650361e+02
554             	3.30640224e+02
555             	3.30639427e+02
556             	3.30643714e+02
557             	3.30631775e+02
558             	3.30628880e+02
559             	3.30630055e+02
560             	3.30616304e+02
561             	3.30611582e+02
562             	3.30610556e+02
563             	3.30613604e+02
564             	3.30599598e+02
565             	3.30595479e+02
566             	3.30596016e+02
567             	3.30600689e+02
568             	3.30604328e+02
569             	3.30611598e+02
570             	3.30622299e+02
571             	3.30613999e+02
572             	3.30616091e+02
573             	3.30623766e+02
574             	3.30618106e+02
575             	3.30622380e+02
576             	3.30632081e+02
577             	3.30625518e+02
578             	3.30628824e+02
579             	3.30638931e+02
580             	3.30631171e+02
581             	3.30633471e+02
582             	3.30641570e+02
583             	3.30632864e+02
584             	3.30632986e+02
585             	3.30636541e+02
586             	3.30624598e+02
587             	3.30621251e+02
588             	3.30621798e+02
589             	3.30626268e+02
590             	3.30613162e+02
591             	3.30610301e+02
592             	3.30612321e+02
593             	3.30619558e+02
594             	3.30608443e+02
595             	3.30606761e+02
596             	3.30608935e+02
597             	3.30613943e+02
598             	3.30602022e+02
599             	3.30599636e+02
600             	3.30601259e+02
601             	3.30608360e+02
602             	3.30595956e+02
603             	3.30593336e+02
604             	3.30595574e+02
605             	3.30583423e+02
606             	3.30580969e+02
607             	3.30583181e+02
608             	3.30570892e+02
609             	3.30567917e+02
610             	3.30568966e+02
611             	3.30575122e+02
612             	3.30562271e+02
613             	3.30559006e+02
614             	3.30559866e+02
615             	3.30564960e+02
616             	3.30552792e+02
617             	3.30550176e+02
618             	3.30551972e+02
619             	3.30558681e+02
620             	3.30547410e+02
621             	3.30546086e+02
