# Region        : cellZone component_4
# Cells         : 192
# Volume        : 3.52299851e-01
# Time          	volAverage(T)
1               	3.00782874e+02
2               	3.01552029e+02
3               	3.02220935e+02
4               	3.02820457e+02
5               	3.03391006e+02
6               	3.03947951e+02
7               	3.04483573e+02
8               	3.05009753e+02
9               	3.05525732e+02
10              	3.06029721e+02
11              	3.06519254e+02
12              	3.06992501e+02
13              	3.07455892e+02
14              	3.07909131e+02
15              	3.08354876e+02
16              	3.08776019e+02
17              	3.09193663e+02
18              	3.09592986e+02
19              	3.09967148e+02
20              	3.10329914e+02
21              	3.10680008e+02
22              	3.11007977e+02
23              	3.11313666e+02
24              	3.11613558e+02
25              	3.11912087e+02
26              	3.12207219e+02
27              	3.12485233e+02
28              	3.12743943e+02
29              	3.12983946e+02
30              	3.13215136e+02
31              	3.13433605e+02
32              	3.13647185e+02
33              	3.13852632e+02
34              	3.14053952e+02
35              	3.14259298e+02
36              	3.14470457e+02
37              	3.14692838e+02
38              	3.14918468e+02
39              	3.15159535e+02
40              	3.15405535e+02
41              	3.15648010e+02
42              	3.15886360e+02
43              	3.16109659e+02
44              	3.16321826e+02
45              	3.16518627e+02
46              	3.16699151e+02
47              	3.16876373e+02
48              	3.17053713e+02
49              	3.17213546e+02
50              	3.17366256e+02
51              	3.17510014e+02
52              	3.17649697e+02
53              	3.17785255e+02
54              	3.17907176e+02
55              	3.18018846e+02
56              	3.18115033e+02
57              	3.18205155e+02
58              	3.18275896e+02
59              	3.18330073e+02
60              	3.18373061e+02
61              	3.18409271e+02
62              	3.18441990e+02
63              	3.18481640e+02
64              	3.18523132e+02
65              	3.18565905e+02
66              	3.18606543e+02
67              	3.18645775e+02
68              	3.18681272e+02
69              	3.18723814e+02
70              	3.18770653e+02
71              	3.18824471e+02
72              	3.18884202e+02
73              	3.18959526e+02
74              	3.19050163e+02
75              	3.19149723e+02
76              	3.19250483e+02
77              	3.19350576e+02
78              	3.19443277e+02
79              	3.19529126e+02
80              	3.19604249e+02
81              	3.19673099e+02
82              	3.19735928e+02
83              	3.19797067e+02
84              	3.19854633e+02
85              	3.19904555e+02
86              	3.19952219e+02
87              	3.19997796e+02
88              	3.20038369e+02
89              	3.20071316e+02
90              	3.20105211e+02
91              	3.20136129e+02
92              	3.20168371e+02
93              	3.20202170e+02
94              	3.20233495e+02
95              	3.20263444e+02
96              	3.20289956e+02
97              	3.20319087e+02
98              	3.20349574e+02
99              	3.20379853e+02
100             	3.20410283e+02
101             	3.20441555e+02
102             	3.20472008e+02
103             	3.20499025e+02
104             	3.20522144e+02
105             	3.20541431e+02
106             	3.20561174e+02
107             	3.20580414e+02
108             	3.20603313e+02
109             	3.20624558e+02
110             	3.20644284e+02
111             	3.20660798e+02
112             	3.20675274e+02
113             	3.20686757e+02
114             	3.20696662e+02
115             	3.20704543e+02
116             	3.20712650e+02
117             	3.20719804e+02
118             	3.20727199e+02
119             	3.20735903e+02
120             	3.20742936e+02
121             	3.20748872e+02
122             	3.20753497e+02
123             	3.20758656e+02
124             	3.20764415e+02
125             	3.20771911e+02
126             	3.20782845e+02
127             	3.20796731e+02
128             	3.20814761e+02
129             	3.20836808e+02
130             	3.20861657e+02
131             	3.20885099e+02
132             	3.20907542e+02
133             	3.20928393e+02
134             	3.20949542e+02
135             	3.20970862e+02
136             	3.20991951e+02
137             	3.21012801e+02
138             	3.21033232e+02
139             	3.21054811e+02
140             	3.21075796e+02
141             	3.21096584e+02
142             	3.21116343e+02
143             	3.21135362e+02
144             	3.21152176e+02
145             	3.21165485e+02
146             	3.21175990e+02
147             	3.21184758e+02
148             	3.21192475e+02
149             	3.21200012e+02
150             	3.21207243e+02
151             	3.21215677e+02
152             	3.21224696e+02
153             	3.21235694e+02
154             	3.21248561e+02
155             	3.21260311e+02
156             	3.21268077e+02
157             	3.21273654e+02
158             	3.21279660e+02
159             	3.21281598e+02
160             	3.21283919e+02
161             	3.21285390e+02
162             	3.21285123e+02
163             	3.21282835e+02
164             	3.21279113e+02
165             	3.21277749e+02
166             	3.21276824e+02
167             	3.21276633e+02
168             	3.21277731e+02
169             	3.21279634e+02
170             	3.21281817e+02
171             	3.21286164e+02
172             	3.21292308e+02
173             	3.21300287e+02
174             	3.21309777e+02
175             	3.21320237e+02
176             	3.21331334e+02
177             	3.21342635e+02
178             	3.21354021e+02
179             	3.21366601e+02
180             	3.21379932e+02
181             	3.21393784e+02
182             	3.21407442e+02
183             	3.21421474e+02
184             	3.21435441e+02
185             	3.21447308e+02
186             	3.21457461e+02
187             	3.21466779e+02
188             	3.21473196e+02
189             	3.21478209e+02
190             	3.21482497e+02
191             	3.21486330e+02
192             	3.21490503e+02
193             	3.21494122e+02
194             	3.21498397e+02
195             	3.21504289e+02
196             	3.21511259e+02
197             	3.21517771e+02
198             	3.21524102e+02
199             	3.21529817e+02
200             	3.21535742e+02
201             	3.21541094e+02
202             	3.21546301e+02
203             	3.21551487e+02
204             	3.21556650e+02
205             	3.21561607e+02
206             	3.21567181e+02
207             	3.21573532e+02
208             	3.21579118e+02
209             	3.21585403e+02
210             	3.21592046e+02
211             	3.21597945e+02
212             	3.21602640e+02
213             	3.21605412e+02
214             	3.21605764e+02
215             	3.21605576e+02
216             	3.21607864e+02
217             	3.21610064e+02
218             	3.21612146e+02
219             	3.21612854e+02
220             	3.21613941e+02
221             	3.21616402e+02
222             	3.21619510e+02
223             	3.21622621e+02
224             	3.21626418e+02
225             	3.21630225e+02
226             	3.21633906e+02
227             	3.21637092e+02
228             	3.21640199e+02
229             	3.21643965e+02
230             	3.21648801e+02
231             	3.21653666e+02
232             	3.21657037e+02
233             	3.21659876e+02
234             	3.21663030e+02
235             	3.21666953e+02
236             	3.21671562e+02
237             	3.21676911e+02
238             	3.21682610e+02
239             	3.21687954e+02
240             	3.21692842e+02
241             	3.21697482e+02
242             	3.21701883e+02
243             	3.21705418e+02
244             	3.21708526e+02
245             	3.21712031e+02
246             	3.21715090e+02
247             	3.21719096e+02
248             	3.21724340e+02
249             	3.21730227e+02
250             	3.21736522e+02
251             	3.21743313e+02
252             	3.21750300e+02
253             	3.21757691e+02
254             	3.21765814e+02
255             	3.21774597e+02
256             	3.21783704e+02
257             	3.21791644e+02
258             	3.21797841e+02
259             	3.21802999e+02
260             	3.21807617e+02
261             	3.21811692e+02
262             	3.21814996e+02
263             	3.21818311e+02
264             	3.21821676e+02
265             	3.21824774e+02
266             	3.21826636e+02
267             	3.21827518e+02
268             	3.21828526e+02
269             	3.21829717e+02
270             	3.21831811e+02
271             	3.21833691e+02
272             	3.21836147e+02
273             	3.21839578e+02
274             	3.21841678e+02
275             	3.21842958e+02
276             	3.21843202e+02
277             	3.21842760e+02
278             	3.21842263e+02
279             	3.21842434e+02
280             	3.21844254e+02
281             	3.21847775e+02
282             	3.21851575e+02
283             	3.21854850e+02
284             	3.21857264e+02
285             	3.21858515e+02
286             	3.21858626e+02
287             	3.21858272e+02
288             	3.21857745e+02
289             	3.21857276e+02
290             	3.21857129e+02
291             	3.21857605e+02
292             	3.21858775e+02
293             	3.21860558e+02
294             	3.21862554e+02
295             	3.21863999e+02
296             	3.21864934e+02
297             	3.21864840e+02
298             	3.21864548e+02
299             	3.21863962e+02
300             	3.21863189e+02
301             	3.21862693e+02
302             	3.21862465e+02
303             	3.21862052e+02
304             	3.21861198e+02
305             	3.21861010e+02
306             	3.21861857e+02
307             	3.21862844e+02
308             	3.21864217e+02
309             	3.21866426e+02
310             	3.21869723e+02
311             	3.21873777e+02
312             	3.21878127e+02
313             	3.21882385e+02
314             	3.21886304e+02
315             	3.21890398e+02
316             	3.21895055e+02
317             	3.21899999e+02
318             	3.21905145e+02
319             	3.21910015e+02
320             	3.21914680e+02
321             	3.21918502e+02
322             	3.21921622e+02
323             	3.21924150e+02
324             	3.21926256e+02
325             	3.21927606e+02
326             	3.21928229e+02
327             	3.21927995e+02
328             	3.21927523e+02
329             	3.21927090e+02
330             	3.21926809e+02
331             	3.21926636e+02
332             	3.21926090e+02
333             	3.21925273e+02
334             	3.21924560e+02
335             	3.21923547e+02
336             	3.21922654e+02
337             	3.21921604e+02
338             	3.21921194e+02
339             	3.21921242e+02
340             	3.21921881e+02
341             	3.21923010e+02
342             	3.21924865e+02
343             	3.21926995e+02
344             	3.21929004e+02
345             	3.21930990e+02
346             	3.21933325e+02
347             	3.21936314e+02
348             	3.21940056e+02
349             	3.21943317e+02
350             	3.21945722e+02
351             	3.21947757e+02
352             	3.21949425e+02
353             	3.21950816e+02
354             	3.21951595e+02
355             	3.21951088e+02
356             	3.21950451e+02
357             	3.21949569e+02
358             	3.21948512e+02
359             	3.21948294e+02
360             	3.21949037e+02
361             	3.21950780e+02
362             	3.21952256e+02
363             	3.21953193e+02
364             	3.21954324e+02
365             	3.21955764e+02
366             	3.21957765e+02
367             	3.21960090e+02
368             	3.21962633e+02
369             	3.21964598e+02
370             	3.21965157e+02
371             	3.21965146e+02
372             	3.21964312e+02
373             	3.21962800e+02
374             	3.21961041e+02
375             	3.21959439e+02
376             	3.21957811e+02
377             	3.21956493e+02
378             	3.21956410e+02
379             	3.21956615e+02
380             	3.21956642e+02
381             	3.21957198e+02
382             	3.21958060e+02
383             	3.21959381e+02
384             	3.21961215e+02
385             	3.21962584e+02
386             	3.21962334e+02
387             	3.21961679e+02
388             	3.21960757e+02
389             	3.21959605e+02
390             	3.21957802e+02
391             	3.21955366e+02
392             	3.21952554e+02
393             	3.21950909e+02
394             	3.21950940e+02
395             	3.21950155e+02
396             	3.21949129e+02
397             	3.21948181e+02
398             	3.21947804e+02
399             	3.21948590e+02
400             	3.21949666e+02
401             	3.21950588e+02
402             	3.21951184e+02
403             	3.21952106e+02
404             	3.21953857e+02
405             	3.21956450e+02
406             	3.21959289e+02
407             	3.21961104e+02
408             	3.21962878e+02
409             	3.21963863e+02
410             	3.21965498e+02
411             	3.21966850e+02
412             	3.21968094e+02
413             	3.21968958e+02
414             	3.21969131e+02
415             	3.21968624e+02
416             	3.21968122e+02
417             	3.21967575e+02
418             	3.21967696e+02
419             	3.21967596e+02
420             	3.21967298e+02
421             	3.21967077e+02
422             	3.21966295e+02
423             	3.21965831e+02
424             	3.21966220e+02
425             	3.21966151e+02
426             	3.21965523e+02
427             	3.21964153e+02
428             	3.21962371e+02
429             	3.21960415e+02
430             	3.21958650e+02
431             	3.21957550e+02
432             	3.21957923e+02
433             	3.21957393e+02
434             	3.21956965e+02
435             	3.21956906e+02
436             	3.21958002e+02
437             	3.21959729e+02
438             	3.21961648e+02
439             	3.21963630e+02
440             	3.21965018e+02
441             	3.21965934e+02
442             	3.21966578e+02
443             	3.21967302e+02
444             	3.21968367e+02
445             	3.21969309e+02
446             	3.21970984e+02
447             	3.21972707e+02
448             	3.21974905e+02
449             	3.21976911e+02
450             	3.21978645e+02
451             	3.21979883e+02
452             	3.21980126e+02
453             	3.21979485e+02
454             	3.21978131e+02
455             	3.21976441e+02
456             	3.21974500e+02
457             	3.21972601e+02
458             	3.21970884e+02
459             	3.21969471e+02
460             	3.21969616e+02
461             	3.21968358e+02
462             	3.21967355e+02
463             	3.21966960e+02
464             	3.21967320e+02
465             	3.21968072e+02
466             	3.21968550e+02
467             	3.21968577e+02
468             	3.21968290e+02
469             	3.21968053e+02
470             	3.21968202e+02
471             	3.21968864e+02
472             	3.21970140e+02
473             	3.21971401e+02
474             	3.21972945e+02
475             	3.21974316e+02
476             	3.21975310e+02
477             	3.21976189e+02
478             	3.21976529e+02
479             	3.21976334e+02
480             	3.21975492e+02
481             	3.21973699e+02
482             	3.21971758e+02
483             	3.21970402e+02
484             	3.21968972e+02
485             	3.21967497e+02
486             	3.21965267e+02
487             	3.21963377e+02
488             	3.21961734e+02
489             	3.21961148e+02
490             	3.21961443e+02
491             	3.21962113e+02
492             	3.21962995e+02
493             	3.21963958e+02
494             	3.21964992e+02
495             	3.21966138e+02
496             	3.21967341e+02
497             	3.21968618e+02
498             	3.21970077e+02
499             	3.21971598e+02
500             	3.21972909e+02
501             	3.21973987e+02
502             	3.21974954e+02
503             	3.21975739e+02
504             	3.21976403e+02
505             	3.21977171e+02
506             	3.21978109e+02
507             	3.21978895e+02
508             	3.21979553e+02
509             	3.21980011e+02
510             	3.21980168e+02
511             	3.21980091e+02
512             	3.21979628e+02
513             	3.21978845e+02
514             	3.21977860e+02
515             	3.21976513e+02
516             	3.21975185e+02
517             	3.21973823e+02
518             	3.21973475e+02
519             	3.21973605e+02
520             	3.21974001e+02
521             	3.21974647e+02
522             	3.21975446e+02
523             	3.21976180e+02
524             	3.21975979e+02
525             	3.21975931e+02
526             	3.21976286e+02
527             	3.21975930e+02
528             	3.21975298e+02
529             	3.21974547e+02
530             	3.21973831e+02
531             	3.21973045e+02
532             	3.21972060e+02
533             	3.21971336e+02
534             	3.21971189e+02
535             	3.21971242e+02
536             	3.21971334e+02
537             	3.21971366e+02
538             	3.21971093e+02
539             	3.21970884e+02
540             	3.21970651e+02
541             	3.21970422e+02
542             	3.21970529e+02
543             	3.21970718e+02
544             	3.21971068e+02
545             	3.21971328e+02
546             	3.21971450e+02
547             	3.21971426e+02
548             	3.21971310e+02
549             	3.21971099e+02
550             	3.21970884e+02
551             	3.21970669e+02
552             	3.21970581e+02
553             	3.21970600e+02
554             	3.21970813e+02
555             	3.21971296e+02
556             	3.21971802e+02
557             	3.21972519e+02
558             	3.21973278e+02
559             	3.21974188e+02
560             	3.21975138e+02
561             	3.21976056e+02
562             	3.21976860e+02
563             	3.21977421e+02
564             	3.21977963e+02
565             	3.21978559e+02
566             	3.21978990e+02
567             	3.21979384e+02
568             	3.21979620e+02
569             	3.21979835e+02
570             	3.21979884e+02
571             	3.21979861e+02
572             	3.21979724e+02
573             	3.21979499e+02
574             	3.21979175e+02
575             	3.21978746e+02
576             	3.21978253e+02
577             	3.21977842e+02
578             	3.21977487e+02
579             	3.21977141e+02
580             	3.21976776e+02
581             	3.21976406e+02
582             	3.21976333e+02
583             	3.21976386e+02
584             	3.21976422e+02
585             	3.21976426e+02
586             	3.21976077e+02
587             	3.21975779e+02
588             	3.21975771e+02
589             	3.21975726e+02
590             	3.21975797e+02
591             	3.21975803e+02
592             	3.21975873e+02
593             	3.21975899e+02
594             	3.21975760e+02
595             	3.21975370e+02
596             	3.21974955e+02
597             	3.21974573e+02
598             	3.21974216e+02
599             	3.21973869e+02
600             	3.21973614e+02
601             	3.21973464e+02
602             	3.21973484e+02
603             	3.21973612e+02
604             	3.21973740e+02
605             	3.21973959e+02
606             	3.21974219e+02
607             	3.21974451e+02
608             	3.21974661e+02
609             	3.21974721e+02
610             	3.21974692e+02
611             	3.21974462e+02
612             	3.21974065e+02
613             	3.21973753e+02
614             	3.21973423e+02
615             	3.21973117e+02
616             	3.21972854e+02
617             	3.21972855e+02
618             	3.21973016e+02
619             	3.21973243e+02
620             	3.21973374e+02
621             	3.21973564e+02
