# Region        : cellZone component_4
# Cells         : 161
# Volume        : 2.91509004e-01
# Time          	volAverage(T)
1               	3.00256895e+02
2               	3.00511248e+02
3               	3.00751724e+02
4               	3.00984349e+02
5               	3.01213284e+02
6               	3.01439680e+02
7               	3.01663998e+02
8               	3.01886916e+02
9               	3.02108821e+02
10              	3.02329460e+02
11              	3.02548767e+02
12              	3.02767025e+02
13              	3.02984040e+02
14              	3.03200994e+02
15              	3.03417948e+02
16              	3.03630921e+02
17              	3.03839448e+02
18              	3.04046678e+02
19              	3.04252192e+02
20              	3.04456752e+02
21              	3.04660048e+02
22              	3.04862249e+02
23              	3.05062607e+02
24              	3.05260821e+02
25              	3.05457180e+02
26              	3.05652613e+02
27              	3.05844720e+02
28              	3.06034971e+02
29              	3.06224657e+02
30              	3.06415246e+02
31              	3.06604991e+02
32              	3.06790863e+02
33              	3.06968567e+02
34              	3.07146398e+02
35              	3.07324082e+02
36              	3.07501031e+02
37              	3.07675972e+02
38              	3.07845630e+02
39              	3.08008915e+02
40              	3.08170671e+02
41              	3.08333330e+02
42              	3.08499049e+02
43              	3.08666490e+02
44              	3.08838849e+02
45              	3.09008187e+02
46              	3.09169274e+02
47              	3.09331200e+02
48              	3.09495027e+02
49              	3.09656115e+02
50              	3.09810186e+02
51              	3.09959854e+02
52              	3.10107114e+02
53              	3.10254811e+02
54              	3.10404676e+02
55              	3.10556183e+02
56              	3.10712970e+02
57              	3.10872988e+02
58              	3.11033372e+02
59              	3.11195104e+02
60              	3.11356544e+02
61              	3.11509351e+02
62              	3.11656259e+02
63              	3.11802081e+02
64              	3.11948300e+02
65              	3.12092815e+02
66              	3.12235991e+02
67              	3.12374391e+02
68              	3.12515844e+02
69              	3.12659700e+02
70              	3.12803976e+02
71              	3.12943196e+02
72              	3.13079426e+02
73              	3.13212411e+02
74              	3.13347440e+02
75              	3.13484300e+02
76              	3.13623300e+02
77              	3.13759031e+02
78              	3.13895218e+02
79              	3.14031588e+02
80              	3.14165319e+02
81              	3.14295060e+02
82              	3.14417516e+02
83              	3.14536583e+02
84              	3.14652800e+02
85              	3.14771202e+02
86              	3.14890423e+02
87              	3.15009316e+02
88              	3.15131133e+02
89              	3.15253020e+02
90              	3.15379061e+02
91              	3.15508676e+02
92              	3.15637673e+02
93              	3.15763356e+02
94              	3.15887845e+02
95              	3.16008806e+02
96              	3.16131056e+02
97              	3.16254545e+02
98              	3.16374363e+02
99              	3.16492625e+02
100             	3.16608562e+02
101             	3.16727052e+02
102             	3.16846053e+02
103             	3.16958530e+02
104             	3.17075217e+02
105             	3.17179154e+02
106             	3.17286768e+02
107             	3.17397497e+02
108             	3.17502954e+02
109             	3.17615896e+02
110             	3.17719709e+02
111             	3.17829484e+02
112             	3.17939903e+02
113             	3.18038892e+02
114             	3.18120371e+02
115             	3.18210309e+02
116             	3.18286012e+02
117             	3.18373718e+02
118             	3.18467561e+02
119             	3.18545278e+02
120             	3.18636126e+02
121             	3.18713759e+02
122             	3.18798466e+02
123             	3.18881967e+02
124             	3.18956258e+02
125             	3.19020860e+02
126             	3.19089307e+02
127             	3.19149935e+02
128             	3.19225450e+02
129             	3.19303737e+02
130             	3.19362829e+02
131             	3.19416487e+02
132             	3.19448062e+02
133             	3.19468187e+02
134             	3.19477989e+02
135             	3.19493892e+02
136             	3.19508548e+02
137             	3.19535442e+02
138             	3.19568562e+02
139             	3.19605237e+02
140             	3.19632292e+02
141             	3.19647500e+02
142             	3.19661278e+02
143             	3.19691181e+02
144             	3.19718894e+02
145             	3.19748574e+02
146             	3.19755398e+02
147             	3.19788115e+02
148             	3.19824896e+02
149             	3.19869668e+02
150             	3.19896190e+02
151             	3.19911102e+02
152             	3.19898614e+02
153             	3.19886170e+02
154             	3.19869847e+02
155             	3.19838102e+02
156             	3.19809753e+02
157             	3.19783552e+02
158             	3.19785745e+02
159             	3.19773907e+02
160             	3.19739320e+02
161             	3.19693737e+02
162             	3.19619630e+02
163             	3.19558125e+02
164             	3.19511934e+02
165             	3.19454733e+02
166             	3.19354088e+02
167             	3.19287136e+02
168             	3.19235957e+02
169             	3.19204280e+02
170             	3.19134598e+02
171             	3.19085055e+02
172             	3.19033482e+02
173             	3.18923022e+02
174             	3.18666733e+02
175             	3.18438229e+02
176             	3.18474512e+02
177             	3.18649494e+02
178             	3.18505957e+02
179             	3.18057208e+02
180             	3.17753735e+02
181             	3.17980114e+02
182             	3.18501972e+02
183             	3.18327096e+02
184             	3.17055044e+02
185             	3.16123620e+02
186             	3.17307518e+02
187             	3.19317687e+02
188             	3.18810080e+02
189             	3.15349279e+02
190             	3.14780552e+02
191             	3.18307678e+02
192             	3.20522823e+02
193             	3.17017467e+02
194             	3.13120564e+02
195             	3.14774522e+02
196             	3.20084379e+02
197             	3.20572192e+02
198             	3.14592394e+02
199             	3.12053116e+02
200             	3.15624324e+02
201             	3.18511328e+02
202             	3.15290222e+02
203             	3.11946836e+02
204             	3.13754376e+02
205             	3.16072942e+02
206             	3.15229885e+02
207             	3.11095081e+02
208             	3.10002875e+02
209             	3.12388881e+02
210             	3.14493662e+02
211             	3.11635888e+02
212             	3.10138205e+02
213             	3.11873072e+02
214             	3.15179554e+02
215             	3.11933460e+02
216             	3.08405231e+02
217             	3.10675269e+02
218             	3.20328246e+02
219             	3.15716712e+02
220             	3.05117817e+02
221             	3.04364565e+02
222             	3.03761985e+02
223             	3.07731715e+02
224             	3.16624205e+02
225             	3.17868709e+02
226             	3.12785501e+02
227             	3.14528081e+02
228             	3.12813227e+02
229             	3.18644467e+02
230             	3.25839308e+02
231             	3.36174025e+02
232             	3.50178069e+02
233             	3.52493173e+02
234             	3.53983274e+02
235             	3.57158630e+02
236             	3.72823140e+02
237             	3.76431208e+02
238             	3.84226483e+02
239             	2.50000000e+02
240             	3.31648201e+02
241             	2.50000000e+02
242             	6.00000000e+02
243             	4.87504296e+02
244             	2.50000000e+02
245             	3.36823210e+02
246             	6.00000000e+02
