# Region        : cellZone component_4
# Cells         : 64
# Volume        : 1.01664066e-01
# Time          	volAverage(T)
1               	3.01342812e+02
2               	3.02655751e+02
3               	3.03768569e+02
4               	3.04743473e+02
5               	3.05659482e+02
6               	3.06542516e+02
7               	3.07391298e+02
8               	3.08201801e+02
9               	3.08974508e+02
10              	3.09720156e+02
11              	3.10434004e+02
12              	3.11124449e+02
13              	3.11797819e+02
14              	3.12471375e+02
15              	3.13109896e+02
16              	3.13693040e+02
17              	3.14219108e+02
18              	3.14696725e+02
19              	3.15119287e+02
20              	3.15521276e+02
21              	3.15838269e+02
22              	3.16117941e+02
23              	3.16357008e+02
24              	3.16577330e+02
25              	3.16820207e+02
26              	3.17126185e+02
27              	3.17449404e+02
28              	3.17801108e+02
29              	3.18165077e+02
30              	3.18545517e+02
31              	3.18928491e+02
32              	3.19313788e+02
33              	3.19693651e+02
34              	3.20054725e+02
35              	3.20402589e+02
36              	3.20741896e+02
37              	3.21058514e+02
38              	3.21381513e+02
39              	3.21687114e+02
40              	3.21903683e+02
41              	3.22014232e+02
42              	3.22094928e+02
43              	3.22108786e+02
44              	3.22144739e+02
45              	3.22263536e+02
46              	3.22410555e+02
47              	3.22598034e+02
48              	3.22807592e+02
49              	3.23005457e+02
50              	3.23187836e+02
51              	3.23354899e+02
52              	3.23493014e+02
53              	3.23609403e+02
54              	3.23705554e+02
55              	3.23785140e+02
56              	3.23844954e+02
57              	3.23888387e+02
58              	3.23928267e+02
59              	3.23955151e+02
60              	3.23989745e+02
61              	3.24008249e+02
62              	3.24038063e+02
63              	3.24057826e+02
64              	3.24087931e+02
65              	3.24116884e+02
66              	3.24136565e+02
67              	3.24147266e+02
68              	3.24150330e+02
69              	3.24145965e+02
70              	3.24141176e+02
71              	3.24134453e+02
72              	3.24126822e+02
73              	3.24122171e+02
74              	3.24119275e+02
75              	3.24126846e+02
76              	3.24145558e+02
77              	3.24182914e+02
78              	3.24239731e+02
79              	3.24301089e+02
80              	3.24372316e+02
81              	3.24449028e+02
82              	3.24521733e+02
83              	3.24568396e+02
84              	3.24611419e+02
85              	3.24637461e+02
86              	3.24642618e+02
87              	3.24630569e+02
88              	3.24608307e+02
89              	3.24580817e+02
90              	3.24550643e+02
91              	3.24514074e+02
92              	3.24474882e+02
93              	3.24434364e+02
94              	3.24394867e+02
95              	3.24363457e+02
96              	3.24351115e+02
97              	3.24359515e+02
98              	3.24383834e+02
99              	3.24421065e+02
100             	3.24457848e+02
101             	3.24486295e+02
102             	3.24505289e+02
103             	3.24530260e+02
104             	3.24531706e+02
105             	3.24516318e+02
106             	3.24486250e+02
107             	3.24445787e+02
108             	3.24400209e+02
109             	3.24354704e+02
110             	3.24306687e+02
111             	3.24271236e+02
112             	3.24258939e+02
113             	3.24263232e+02
114             	3.24287155e+02
115             	3.24323862e+02
116             	3.24354588e+02
117             	3.24359019e+02
118             	3.24368240e+02
119             	3.24376901e+02
120             	3.24368064e+02
121             	3.24343926e+02
122             	3.24313300e+02
123             	3.24282816e+02
124             	3.24252381e+02
125             	3.24224744e+02
126             	3.24203764e+02
127             	3.24189657e+02
128             	3.24182728e+02
129             	3.24182546e+02
130             	3.24191978e+02
131             	3.24208580e+02
132             	3.24229482e+02
133             	3.24251306e+02
134             	3.24271021e+02
135             	3.24288402e+02
136             	3.24300489e+02
137             	3.24306699e+02
138             	3.24308511e+02
139             	3.24300632e+02
140             	3.24293502e+02
141             	3.24282804e+02
142             	3.24267277e+02
143             	3.24248521e+02
144             	3.24226169e+02
145             	3.24200971e+02
146             	3.24174480e+02
147             	3.24149042e+02
148             	3.24125662e+02
149             	3.24102800e+02
150             	3.24080849e+02
151             	3.24059273e+02
152             	3.24037997e+02
153             	3.24017385e+02
154             	3.23996171e+02
155             	3.23976199e+02
156             	3.23956588e+02
157             	3.23941445e+02
158             	3.23928378e+02
159             	3.23918356e+02
160             	3.23911616e+02
161             	3.23907229e+02
162             	3.23903784e+02
163             	3.23901264e+02
164             	3.23899538e+02
165             	3.23899062e+02
166             	3.23897992e+02
167             	3.23898413e+02
168             	3.23900551e+02
169             	3.23903933e+02
170             	3.23908205e+02
171             	3.23913581e+02
172             	3.23919865e+02
173             	3.23926643e+02
174             	3.23933285e+02
175             	3.23938848e+02
176             	3.23943330e+02
177             	3.23946746e+02
178             	3.23949252e+02
179             	3.23952505e+02
180             	3.23955800e+02
181             	3.23958258e+02
182             	3.23962018e+02
183             	3.23966072e+02
184             	3.23970588e+02
185             	3.23975096e+02
186             	3.23978545e+02
187             	3.23978550e+02
188             	3.23976829e+02
189             	3.23972330e+02
190             	3.23966844e+02
191             	3.23961693e+02
192             	3.23956137e+02
193             	3.23951154e+02
194             	3.23947972e+02
195             	3.23945604e+02
196             	3.23943788e+02
197             	3.23943016e+02
198             	3.23943290e+02
199             	3.23945036e+02
200             	3.23948559e+02
201             	3.23953783e+02
202             	3.23960462e+02
203             	3.23970118e+02
204             	3.23980529e+02
205             	3.23991517e+02
206             	3.24002974e+02
207             	3.24014603e+02
208             	3.24024607e+02
209             	3.24033605e+02
210             	3.24041475e+02
211             	3.24048341e+02
212             	3.24054194e+02
213             	3.24059446e+02
214             	3.24064860e+02
215             	3.24069822e+02
216             	3.24075104e+02
217             	3.24080889e+02
218             	3.24086681e+02
219             	3.24092087e+02
220             	3.24097005e+02
221             	3.24101595e+02
222             	3.24105637e+02
223             	3.24110197e+02
224             	3.24115935e+02
225             	3.24121857e+02
226             	3.24128584e+02
227             	3.24136314e+02
228             	3.24144751e+02
229             	3.24153674e+02
230             	3.24162431e+02
231             	3.24170820e+02
232             	3.24178485e+02
233             	3.24184068e+02
234             	3.24188871e+02
235             	3.24193220e+02
236             	3.24196992e+02
237             	3.24200718e+02
238             	3.24203997e+02
239             	3.24207106e+02
240             	3.24210320e+02
241             	3.24213679e+02
242             	3.24217186e+02
243             	3.24220933e+02
244             	3.24225726e+02
245             	3.24230573e+02
246             	3.24235156e+02
247             	3.24239873e+02
248             	3.24244531e+02
249             	3.24248779e+02
250             	3.24252484e+02
251             	3.24255734e+02
252             	3.24258747e+02
253             	3.24261370e+02
254             	3.24263530e+02
255             	3.24264943e+02
256             	3.24265694e+02
257             	3.24266054e+02
258             	3.24266620e+02
259             	3.24267256e+02
260             	3.24268154e+02
261             	3.24269527e+02
262             	3.24271006e+02
263             	3.24272215e+02
264             	3.24273618e+02
265             	3.24275180e+02
266             	3.24276773e+02
267             	3.24278482e+02
268             	3.24280515e+02
269             	3.24282739e+02
270             	3.24285175e+02
271             	3.24287962e+02
272             	3.24290658e+02
273             	3.24293285e+02
274             	3.24296059e+02
275             	3.24298996e+02
276             	3.24302053e+02
277             	3.24305374e+02
278             	3.24308815e+02
279             	3.24312295e+02
280             	3.24315767e+02
281             	3.24319057e+02
282             	3.24321724e+02
283             	3.24324175e+02
284             	3.24326439e+02
285             	3.24328476e+02
286             	3.24330442e+02
287             	3.24332477e+02
288             	3.24334563e+02
289             	3.24336751e+02
290             	3.24339024e+02
291             	3.24341344e+02
292             	3.24343635e+02
293             	3.24345801e+02
294             	3.24347788e+02
295             	3.24349506e+02
296             	3.24351046e+02
297             	3.24352454e+02
298             	3.24353661e+02
299             	3.24354746e+02
300             	3.24355832e+02
301             	3.24356947e+02
302             	3.24358203e+02
303             	3.24359451e+02
304             	3.24360609e+02
305             	3.24361737e+02
306             	3.24362857e+02
307             	3.24364133e+02
308             	3.24365458e+02
309             	3.24366771e+02
310             	3.24368171e+02
311             	3.24369760e+02
312             	3.24371387e+02
313             	3.24373035e+02
314             	3.24374432e+02
315             	3.24375819e+02
316             	3.24377052e+02
317             	3.24378025e+02
318             	3.24378857e+02
319             	3.24379610e+02
320             	3.24380276e+02
321             	3.24380846e+02
322             	3.24381542e+02
323             	3.24382408e+02
324             	3.24383198e+02
325             	3.24383909e+02
326             	3.24384644e+02
327             	3.24385396e+02
328             	3.24386070e+02
329             	3.24386624e+02
330             	3.24387084e+02
331             	3.24387452e+02
332             	3.24387649e+02
333             	3.24387760e+02
334             	3.24387836e+02
335             	3.24387784e+02
336             	3.24387792e+02
337             	3.24387890e+02
338             	3.24387994e+02
339             	3.24388134e+02
340             	3.24388385e+02
341             	3.24388764e+02
342             	3.24389263e+02
343             	3.24389827e+02
344             	3.24390511e+02
345             	3.24391298e+02
346             	3.24392175e+02
347             	3.24393224e+02
348             	3.24394285e+02
349             	3.24395344e+02
350             	3.24396455e+02
351             	3.24397554e+02
352             	3.24398539e+02
353             	3.24399434e+02
354             	3.24400228e+02
355             	3.24400945e+02
356             	3.24401602e+02
357             	3.24402190e+02
358             	3.24402710e+02
359             	3.24403191e+02
360             	3.24403675e+02
361             	3.24404129e+02
362             	3.24404603e+02
363             	3.24405082e+02
364             	3.24405566e+02
365             	3.24406047e+02
366             	3.24406460e+02
367             	3.24406732e+02
368             	3.24406977e+02
369             	3.24407220e+02
370             	3.24407411e+02
371             	3.24407567e+02
372             	3.24407702e+02
373             	3.24407900e+02
374             	3.24408183e+02
375             	3.24408439e+02
376             	3.24408699e+02
377             	3.24409002e+02
378             	3.24409263e+02
379             	3.24409493e+02
380             	3.24409731e+02
381             	3.24409940e+02
382             	3.24410106e+02
383             	3.24410247e+02
384             	3.24410364e+02
385             	3.24410470e+02
386             	3.24410558e+02
387             	3.24410628e+02
388             	3.24410688e+02
389             	3.24410758e+02
390             	3.24410848e+02
391             	3.24410942e+02
392             	3.24411079e+02
393             	3.24411250e+02
394             	3.24411458e+02
395             	3.24411687e+02
396             	3.24411929e+02
397             	3.24412177e+02
398             	3.24412420e+02
399             	3.24412685e+02
400             	3.24412940e+02
401             	3.24413221e+02
402             	3.24413500e+02
403             	3.24413780e+02
404             	3.24414073e+02
405             	3.24414370e+02
406             	3.24414663e+02
407             	3.24414942e+02
408             	3.24415201e+02
409             	3.24415383e+02
410             	3.24415544e+02
411             	3.24415679e+02
412             	3.24415778e+02
413             	3.24415859e+02
414             	3.24415947e+02
415             	3.24416051e+02
416             	3.24416174e+02
417             	3.24416316e+02
418             	3.24416468e+02
419             	3.24416647e+02
420             	3.24416837e+02
421             	3.24417020e+02
422             	3.24417186e+02
423             	3.24417342e+02
424             	3.24417491e+02
425             	3.24417618e+02
426             	3.24417728e+02
427             	3.24417821e+02
428             	3.24417909e+02
429             	3.24417982e+02
430             	3.24418037e+02
431             	3.24418083e+02
432             	3.24418116e+02
433             	3.24418132e+02
434             	3.24418135e+02
435             	3.24418140e+02
436             	3.24418155e+02
437             	3.24418180e+02
438             	3.24418221e+02
439             	3.24418262e+02
440             	3.24418291e+02
441             	3.24418300e+02
442             	3.24418283e+02
443             	3.24418248e+02
444             	3.24418202e+02
445             	3.24418152e+02
446             	3.24418113e+02
447             	3.24418097e+02
448             	3.24418122e+02
449             	3.24418170e+02
450             	3.24418243e+02
451             	3.24418343e+02
452             	3.24418457e+02
453             	3.24418581e+02
454             	3.24418703e+02
455             	3.24418821e+02
456             	3.24418934e+02
457             	3.24419039e+02
458             	3.24419136e+02
459             	3.24419226e+02
460             	3.24419311e+02
461             	3.24419389e+02
462             	3.24419460e+02
463             	3.24419531e+02
464             	3.24419616e+02
465             	3.24419710e+02
466             	3.24419807e+02
467             	3.24419907e+02
468             	3.24420001e+02
469             	3.24420090e+02
470             	3.24420175e+02
471             	3.24420258e+02
472             	3.24420340e+02
473             	3.24420417e+02
474             	3.24420491e+02
475             	3.24420553e+02
476             	3.24420605e+02
477             	3.24420649e+02
478             	3.24420686e+02
479             	3.24420717e+02
480             	3.24420747e+02
481             	3.24420779e+02
482             	3.24420813e+02
483             	3.24420852e+02
484             	3.24420887e+02
485             	3.24420920e+02
486             	3.24420948e+02
487             	3.24420971e+02
488             	3.24420988e+02
489             	3.24421000e+02
490             	3.24421001e+02
491             	3.24421002e+02
492             	3.24421004e+02
493             	3.24421001e+02
494             	3.24420996e+02
495             	3.24420992e+02
496             	3.24420993e+02
497             	3.24421002e+02
498             	3.24421013e+02
499             	3.24421033e+02
500             	3.24421057e+02
501             	3.24421082e+02
502             	3.24421113e+02
503             	3.24421150e+02
504             	3.24421187e+02
505             	3.24421225e+02
506             	3.24421262e+02
507             	3.24421298e+02
508             	3.24421333e+02
509             	3.24421368e+02
510             	3.24421402e+02
511             	3.24421436e+02
512             	3.24421465e+02
513             	3.24421493e+02
514             	3.24421522e+02
515             	3.24421540e+02
516             	3.24421557e+02
517             	3.24421572e+02
518             	3.24421585e+02
519             	3.24421596e+02
520             	3.24421607e+02
521             	3.24421621e+02
522             	3.24421636e+02
523             	3.24421657e+02
524             	3.24421674e+02
525             	3.24421690e+02
526             	3.24421707e+02
527             	3.24421727e+02
528             	3.24421745e+02
529             	3.24421764e+02
530             	3.24421783e+02
531             	3.24421803e+02
532             	3.24421822e+02
533             	3.24421841e+02
534             	3.24421860e+02
535             	3.24421880e+02
536             	3.24421899e+02
537             	3.24421921e+02
538             	3.24421945e+02
539             	3.24421974e+02
540             	3.24422006e+02
541             	3.24422040e+02
542             	3.24422074e+02
543             	3.24422107e+02
544             	3.24422137e+02
545             	3.24422157e+02
546             	3.24422174e+02
547             	3.24422189e+02
548             	3.24422200e+02
549             	3.24422212e+02
550             	3.24422223e+02
551             	3.24422232e+02
552             	3.24422242e+02
553             	3.24422254e+02
554             	3.24422269e+02
555             	3.24422282e+02
556             	3.24422294e+02
557             	3.24422307e+02
558             	3.24422321e+02
559             	3.24422336e+02
560             	3.24422350e+02
561             	3.24422364e+02
562             	3.24422378e+02
563             	3.24422384e+02
564             	3.24422392e+02
565             	3.24422401e+02
566             	3.24422407e+02
567             	3.24422409e+02
568             	3.24422412e+02
569             	3.24422414e+02
570             	3.24422418e+02
571             	3.24422423e+02
572             	3.24422430e+02
573             	3.24422438e+02
574             	3.24422449e+02
575             	3.24422461e+02
576             	3.24422476e+02
577             	3.24422496e+02
578             	3.24422521e+02
579             	3.24422544e+02
580             	3.24422567e+02
581             	3.24422590e+02
582             	3.24422611e+02
583             	3.24422627e+02
584             	3.24422638e+02
585             	3.24422644e+02
586             	3.24422650e+02
587             	3.24422652e+02
588             	3.24422648e+02
589             	3.24422643e+02
590             	3.24422637e+02
591             	3.24422629e+02
592             	3.24422628e+02
593             	3.24422626e+02
594             	3.24422626e+02
595             	3.24422630e+02
596             	3.24422636e+02
597             	3.24422644e+02
598             	3.24422651e+02
599             	3.24422660e+02
600             	3.24422667e+02
601             	3.24422673e+02
602             	3.24422679e+02
603             	3.24422683e+02
604             	3.24422687e+02
605             	3.24422688e+02
606             	3.24422689e+02
607             	3.24422692e+02
608             	3.24422693e+02
609             	3.24422693e+02
610             	3.24422693e+02
611             	3.24422695e+02
612             	3.24422698e+02
613             	3.24422704e+02
614             	3.24422716e+02
615             	3.24422730e+02
616             	3.24422744e+02
617             	3.24422760e+02
618             	3.24422772e+02
619             	3.24422783e+02
620             	3.24422791e+02
621             	3.24422796e+02
