# Region        : cellZone component_4
# Cells         : 27
# Volume        : 4.07920317e-02
# Time          	volAverage(T)
1               	3.00814500e+02
2               	3.01596520e+02
3               	3.02279629e+02
4               	3.02913448e+02
5               	3.03532029e+02
6               	3.04139963e+02
7               	3.04739349e+02
8               	3.05325273e+02
9               	3.05896813e+02
10              	3.06456420e+02
11              	3.07005517e+02
12              	3.07535669e+02
13              	3.08051113e+02
14              	3.08559961e+02
15              	3.09063771e+02
16              	3.09559900e+02
17              	3.10046018e+02
18              	3.10520239e+02
19              	3.10966617e+02
20              	3.11406862e+02
21              	3.11855709e+02
22              	3.12308375e+02
23              	3.12759474e+02
24              	3.13203977e+02
25              	3.13642195e+02
26              	3.14071991e+02
27              	3.14498067e+02
28              	3.14917672e+02
29              	3.15335723e+02
30              	3.15746072e+02
31              	3.16153575e+02
32              	3.16551031e+02
33              	3.16934969e+02
34              	3.17303404e+02
35              	3.17664115e+02
36              	3.18019721e+02
37              	3.18356293e+02
38              	3.18678569e+02
39              	3.18988493e+02
40              	3.19278497e+02
41              	3.19544393e+02
42              	3.19809066e+02
43              	3.20018392e+02
44              	3.20230918e+02
45              	3.20453854e+02
46              	3.20669300e+02
47              	3.20874603e+02
48              	3.21064871e+02
49              	3.21232536e+02
50              	3.21401598e+02
51              	3.21589517e+02
52              	3.21766902e+02
53              	3.21957307e+02
54              	3.22140679e+02
55              	3.22325430e+02
56              	3.22505074e+02
57              	3.22696101e+02
58              	3.22888270e+02
59              	3.23055971e+02
60              	3.23205572e+02
61              	3.23343504e+02
62              	3.23473891e+02
63              	3.23604550e+02
64              	3.23736373e+02
65              	3.23867518e+02
66              	3.23973029e+02
67              	3.24042647e+02
68              	3.24096505e+02
69              	3.24172242e+02
70              	3.24240311e+02
71              	3.24289890e+02
72              	3.24349836e+02
73              	3.24419327e+02
74              	3.24500787e+02
75              	3.24596088e+02
76              	3.24697982e+02
77              	3.24793153e+02
78              	3.24888653e+02
79              	3.24984599e+02
80              	3.25087199e+02
81              	3.25198684e+02
82              	3.25300313e+02
83              	3.25381986e+02
84              	3.25463093e+02
85              	3.25535367e+02
86              	3.25611943e+02
87              	3.25690643e+02
88              	3.25769306e+02
89              	3.25850109e+02
90              	3.25920934e+02
91              	3.25990097e+02
92              	3.26045768e+02
93              	3.26092636e+02
94              	3.26137501e+02
95              	3.26184778e+02
96              	3.26245341e+02
97              	3.26284322e+02
98              	3.26335956e+02
99              	3.26393239e+02
100             	3.26462765e+02
101             	3.26538219e+02
102             	3.26615690e+02
103             	3.26677437e+02
104             	3.26737325e+02
105             	3.26780923e+02
106             	3.26817761e+02
107             	3.26852529e+02
108             	3.26885466e+02
109             	3.26910882e+02
110             	3.26939815e+02
111             	3.26979073e+02
112             	3.27032173e+02
113             	3.27092426e+02
114             	3.27162117e+02
115             	3.27172391e+02
116             	3.27201831e+02
117             	3.27256630e+02
118             	3.27319120e+02
119             	3.27382011e+02
120             	3.27438379e+02
121             	3.27483982e+02
122             	3.27513452e+02
123             	3.27550515e+02
124             	3.27584336e+02
125             	3.27605234e+02
126             	3.27624895e+02
127             	3.27648269e+02
128             	3.27682671e+02
129             	3.27697412e+02
130             	3.27738043e+02
131             	3.27762414e+02
132             	3.27808668e+02
133             	3.27874814e+02
134             	3.27896222e+02
135             	3.27940012e+02
136             	3.27953208e+02
137             	3.27987644e+02
138             	3.28032461e+02
139             	3.28079245e+02
140             	3.28122226e+02
141             	3.28157429e+02
142             	3.28174678e+02
143             	3.28185326e+02
144             	3.28204340e+02
145             	3.28222171e+02
146             	3.28236652e+02
147             	3.28257733e+02
148             	3.28259809e+02
149             	3.28289470e+02
150             	3.28276985e+02
151             	3.28294968e+02
152             	3.28332101e+02
153             	3.28341494e+02
154             	3.28368132e+02
155             	3.28382064e+02
156             	3.28398981e+02
157             	3.28417915e+02
158             	3.28429052e+02
159             	3.28435797e+02
160             	3.28451402e+02
161             	3.28449516e+02
162             	3.28475920e+02
163             	3.28464869e+02
164             	3.28482181e+02
165             	3.28516754e+02
166             	3.28523543e+02
167             	3.28544999e+02
168             	3.28567388e+02
169             	3.28573128e+02
170             	3.28589059e+02
171             	3.28599940e+02
172             	3.28603051e+02
173             	3.28609789e+02
174             	3.28627717e+02
175             	3.28630766e+02
176             	3.28662256e+02
177             	3.28653940e+02
178             	3.28674171e+02
179             	3.28673255e+02
180             	3.28690673e+02
181             	3.28725453e+02
182             	3.28754447e+02
183             	3.28759039e+02
184             	3.28759631e+02
185             	3.28766271e+02
186             	3.28767084e+02
187             	3.28766620e+02
188             	3.28769870e+02
189             	3.28781576e+02
190             	3.28814599e+02
191             	3.28804080e+02
192             	3.28820966e+02
193             	3.28810886e+02
194             	3.28830084e+02
195             	3.28829393e+02
196             	3.28852037e+02
197             	3.28849683e+02
198             	3.28866213e+02
199             	3.28887489e+02
200             	3.28891014e+02
201             	3.28904325e+02
202             	3.28914209e+02
203             	3.28923490e+02
204             	3.28936578e+02
205             	3.28950558e+02
206             	3.28969325e+02
207             	3.28951400e+02
208             	3.28961244e+02
209             	3.28948125e+02
210             	3.28962891e+02
211             	3.28955788e+02
212             	3.28973244e+02
213             	3.29005199e+02
214             	3.28998052e+02
215             	3.29006676e+02
216             	3.29018451e+02
217             	3.29034585e+02
218             	3.29050732e+02
219             	3.29069358e+02
220             	3.29055986e+02
221             	3.29062912e+02
222             	3.29051984e+02
223             	3.29064570e+02
224             	3.29057188e+02
225             	3.29067513e+02
226             	3.29093965e+02
227             	3.29083480e+02
228             	3.29091808e+02
229             	3.29106530e+02
230             	3.29118711e+02
231             	3.29130101e+02
232             	3.29150387e+02
233             	3.29136410e+02
234             	3.29142729e+02
235             	3.29171723e+02
236             	3.29154652e+02
237             	3.29161695e+02
238             	3.29187127e+02
239             	3.29167817e+02
240             	3.29175140e+02
241             	3.29199965e+02
242             	3.29187790e+02
243             	3.29190759e+02
244             	3.29195874e+02
245             	3.29209874e+02
246             	3.29227308e+02
247             	3.29242050e+02
248             	3.29220217e+02
249             	3.29225431e+02
250             	3.29208355e+02
251             	3.29216444e+02
252             	3.29241050e+02
253             	3.29224723e+02
254             	3.29227337e+02
255             	3.29241181e+02
256             	3.29248408e+02
257             	3.29254851e+02
258             	3.29265805e+02
259             	3.29282650e+02
260             	3.29298251e+02
261             	3.29276967e+02
262             	3.29278978e+02
263             	3.29260868e+02
264             	3.29266459e+02
265             	3.29291209e+02
266             	3.29271004e+02
267             	3.29275121e+02
268             	3.29280271e+02
269             	3.29292588e+02
270             	3.29303087e+02
271             	3.29315276e+02
272             	3.29328837e+02
273             	3.29340088e+02
274             	3.29317818e+02
275             	3.29319529e+02
276             	3.29301941e+02
277             	3.29308445e+02
278             	3.29294944e+02
279             	3.29298092e+02
280             	3.29284355e+02
281             	3.29288450e+02
282             	3.29301949e+02
283             	3.29306231e+02
284             	3.29309202e+02
285             	3.29319369e+02
286             	3.29333373e+02
287             	3.29348670e+02
288             	3.29322423e+02
289             	3.29322697e+02
290             	3.29300117e+02
291             	3.29304766e+02
292             	3.29327376e+02
293             	3.29305563e+02
294             	3.29304997e+02
295             	3.29316773e+02
296             	3.29319003e+02
297             	3.29322111e+02
298             	3.29334314e+02
299             	3.29346927e+02
300             	3.29354598e+02
301             	3.29369841e+02
302             	3.29345348e+02
303             	3.29346351e+02
304             	3.29325770e+02
305             	3.29326729e+02
306             	3.29309805e+02
307             	3.29314768e+02
308             	3.29336744e+02
309             	3.29342956e+02
310             	3.29343187e+02
311             	3.29355257e+02
312             	3.29365645e+02
313             	3.29369736e+02
314             	3.29371981e+02
315             	3.29384845e+02
316             	3.29359501e+02
317             	3.29360232e+02
318             	3.29344693e+02
319             	3.29345710e+02
320             	3.29330021e+02
321             	3.29332543e+02
322             	3.29349591e+02
323             	3.29355914e+02
324             	3.29358882e+02
325             	3.29367418e+02
326             	3.29376221e+02
327             	3.29381643e+02
328             	3.29390273e+02
329             	3.29366943e+02
330             	3.29368653e+02
331             	3.29345682e+02
332             	3.29351062e+02
333             	3.29331039e+02
334             	3.29337172e+02
335             	3.29357778e+02
336             	3.29339455e+02
337             	3.29338819e+02
338             	3.29348091e+02
339             	3.29348203e+02
340             	3.29355435e+02
341             	3.29369149e+02
342             	3.29347007e+02
343             	3.29346391e+02
344             	3.29363640e+02
345             	3.29341231e+02
346             	3.29342344e+02
347             	3.29362891e+02
348             	3.29342404e+02
349             	3.29346663e+02
350             	3.29330859e+02
351             	3.29335851e+02
352             	3.29347308e+02
353             	3.29359995e+02
354             	3.29367629e+02
355             	3.29383182e+02
356             	3.29397406e+02
357             	3.29409467e+02
358             	3.29383451e+02
359             	3.29381991e+02
360             	3.29364044e+02
361             	3.29369161e+02
362             	3.29351037e+02
363             	3.29355228e+02
364             	3.29372500e+02
365             	3.29354651e+02
366             	3.29355513e+02
367             	3.29366938e+02
368             	3.29378391e+02
369             	3.29383193e+02
370             	3.29395759e+02
371             	3.29374023e+02
372             	3.29371902e+02
373             	3.29353257e+02
374             	3.29356503e+02
375             	3.29380031e+02
376             	3.29357759e+02
377             	3.29358987e+02
378             	3.29376084e+02
379             	3.29355619e+02
380             	3.29354561e+02
381             	3.29363987e+02
382             	3.29372691e+02
383             	3.29388234e+02
384             	3.29364889e+02
385             	3.29361977e+02
386             	3.29374801e+02
387             	3.29355484e+02
388             	3.29356087e+02
389             	3.29372680e+02
390             	3.29353219e+02
391             	3.29355887e+02
392             	3.29372307e+02
393             	3.29352452e+02
394             	3.29354598e+02
395             	3.29373937e+02
396             	3.29353397e+02
397             	3.29354354e+02
398             	3.29367578e+02
399             	3.29387426e+02
400             	3.29392711e+02
401             	3.29369616e+02
402             	3.29370997e+02
403             	3.29381246e+02
404             	3.29362846e+02
405             	3.29362624e+02
406             	3.29381363e+02
407             	3.29356679e+02
408             	3.29358556e+02
409             	3.29373078e+02
410             	3.29354768e+02
411             	3.29355601e+02
412             	3.29372702e+02
413             	3.29353731e+02
414             	3.29355109e+02
415             	3.29364526e+02
416             	3.29382104e+02
417             	3.29359765e+02
418             	3.29359265e+02
419             	3.29369885e+02
420             	3.29351203e+02
421             	3.29353339e+02
422             	3.29376244e+02
423             	3.29354366e+02
424             	3.29356300e+02
425             	3.29372858e+02
426             	3.29355188e+02
427             	3.29356388e+02
428             	3.29371964e+02
429             	3.29352909e+02
430             	3.29354698e+02
431             	3.29366914e+02
432             	3.29349336e+02
433             	3.29350651e+02
434             	3.29363672e+02
435             	3.29345869e+02
436             	3.29347798e+02
437             	3.29363498e+02
438             	3.29344097e+02
439             	3.29345927e+02
440             	3.29362533e+02
441             	3.29343727e+02
442             	3.29346102e+02
443             	3.29362016e+02
444             	3.29344382e+02
445             	3.29347313e+02
446             	3.29365340e+02
447             	3.29346349e+02
448             	3.29348485e+02
449             	3.29364349e+02
450             	3.29345866e+02
451             	3.29348071e+02
452             	3.29363293e+02
453             	3.29345340e+02
454             	3.29347378e+02
455             	3.29362344e+02
456             	3.29344093e+02
457             	3.29345721e+02
458             	3.29360002e+02
459             	3.29342413e+02
460             	3.29344291e+02
461             	3.29360456e+02
462             	3.29341614e+02
463             	3.29343836e+02
464             	3.29359430e+02
465             	3.29341496e+02
466             	3.29343894e+02
467             	3.29361281e+02
468             	3.29342050e+02
469             	3.29344572e+02
470             	3.29359887e+02
471             	3.29341992e+02
472             	3.29343696e+02
473             	3.29358685e+02
474             	3.29340451e+02
475             	3.29342518e+02
476             	3.29356725e+02
477             	3.29339342e+02
478             	3.29341019e+02
479             	3.29356547e+02
480             	3.29337988e+02
481             	3.29340137e+02
482             	3.29355680e+02
483             	3.29337568e+02
484             	3.29339765e+02
485             	3.29357953e+02
486             	3.29338903e+02
487             	3.29340935e+02
488             	3.29356618e+02
489             	3.29338671e+02
490             	3.29340691e+02
491             	3.29355393e+02
492             	3.29337528e+02
493             	3.29339923e+02
494             	3.29354488e+02
495             	3.29336860e+02
496             	3.29338696e+02
497             	3.29354637e+02
498             	3.29336012e+02
499             	3.29338671e+02
500             	3.29356697e+02
501             	3.29338168e+02
502             	3.29339837e+02
503             	3.29356008e+02
504             	3.29337675e+02
505             	3.29339844e+02
506             	3.29353526e+02
507             	3.29336434e+02
508             	3.29338886e+02
509             	3.29354612e+02
510             	3.29336221e+02
511             	3.29338734e+02
512             	3.29356594e+02
513             	3.29337414e+02
514             	3.29339353e+02
515             	3.29355206e+02
516             	3.29337039e+02
517             	3.29339090e+02
518             	3.29353568e+02
519             	3.29336468e+02
520             	3.29338575e+02
521             	3.29353392e+02
522             	3.29335522e+02
523             	3.29337484e+02
524             	3.29356294e+02
525             	3.29336996e+02
526             	3.29338332e+02
527             	3.29354613e+02
528             	3.29336046e+02
529             	3.29338555e+02
530             	3.29353634e+02
531             	3.29336506e+02
532             	3.29338108e+02
533             	3.29351857e+02
534             	3.29333589e+02
535             	3.29336514e+02
536             	3.29350836e+02
537             	3.29333553e+02
538             	3.29335798e+02
539             	3.29354930e+02
540             	3.29334942e+02
541             	3.29337808e+02
542             	3.29353423e+02
543             	3.29335997e+02
544             	3.29337799e+02
545             	3.29352663e+02
546             	3.29334776e+02
547             	3.29337555e+02
548             	3.29351976e+02
549             	3.29334395e+02
550             	3.29336211e+02
551             	3.29351675e+02
552             	3.29333447e+02
553             	3.29336016e+02
554             	3.29352586e+02
555             	3.29334417e+02
556             	3.29336606e+02
557             	3.29353298e+02
558             	3.29334652e+02
559             	3.29337315e+02
560             	3.29352787e+02
561             	3.29335077e+02
562             	3.29336964e+02
563             	3.29352121e+02
564             	3.29333963e+02
565             	3.29336411e+02
566             	3.29351045e+02
567             	3.29333578e+02
568             	3.29335460e+02
569             	3.29351022e+02
570             	3.29332714e+02
571             	3.29335138e+02
572             	3.29350586e+02
573             	3.29332595e+02
574             	3.29334992e+02
575             	3.29351125e+02
576             	3.29333220e+02
577             	3.29335824e+02
578             	3.29351772e+02
579             	3.29334018e+02
580             	3.29336464e+02
581             	3.29352676e+02
582             	3.29334332e+02
583             	3.29336914e+02
584             	3.29352157e+02
585             	3.29334370e+02
586             	3.29336464e+02
587             	3.29351473e+02
588             	3.29333604e+02
589             	3.29335757e+02
590             	3.29350839e+02
591             	3.29332743e+02
592             	3.29335027e+02
593             	3.29350316e+02
594             	3.29332665e+02
595             	3.29334869e+02
596             	3.29351029e+02
597             	3.29333056e+02
598             	3.29335623e+02
599             	3.29351898e+02
600             	3.29333682e+02
601             	3.29336309e+02
602             	3.29351922e+02
603             	3.29334263e+02
604             	3.29336376e+02
605             	3.29351670e+02
606             	3.29333815e+02
607             	3.29336190e+02
608             	3.29351240e+02
609             	3.29333457e+02
610             	3.29335762e+02
611             	3.29350930e+02
612             	3.29333100e+02
613             	3.29335400e+02
614             	3.29350940e+02
615             	3.29332958e+02
616             	3.29335311e+02
617             	3.29351173e+02
618             	3.29333154e+02
619             	3.29335595e+02
620             	3.29351392e+02
621             	3.29333545e+02
