# Region        : cellZone component_0
# Cells         : 116
# Volume        : 2.36504949e-01
# Time          	volAverage(T)
1               	3.00171401e+02
2               	3.00340237e+02
3               	3.00499981e+02
4               	3.00652855e+02
5               	3.00801036e+02
6               	3.00945871e+02
7               	3.01088138e+02
8               	3.01227216e+02
9               	3.01366849e+02
10              	3.01506271e+02
11              	3.01640722e+02
12              	3.01770780e+02
13              	3.01897089e+02
14              	3.02021933e+02
15              	3.02144031e+02
16              	3.02265066e+02
17              	3.02384763e+02
18              	3.02500075e+02
19              	3.02612235e+02
20              	3.02722740e+02
21              	3.02831949e+02
22              	3.02940672e+02
23              	3.03048517e+02
24              	3.03160798e+02
25              	3.03257103e+02
26              	3.03355893e+02
27              	3.03456307e+02
28              	3.03548660e+02
29              	3.03637551e+02
30              	3.03729694e+02
31              	3.03817420e+02
32              	3.03902663e+02
33              	3.03984042e+02
34              	3.04065736e+02
35              	3.04144283e+02
36              	3.04225386e+02
37              	3.04306329e+02
38              	3.04382135e+02
39              	3.04452044e+02
40              	3.04513900e+02
41              	3.04572482e+02
42              	3.04628100e+02
43              	3.04683041e+02
44              	3.04746747e+02
45              	3.04806229e+02
46              	3.04861660e+02
47              	3.04915774e+02
48              	3.04966396e+02
49              	3.05014785e+02
50              	3.05062155e+02
51              	3.05112036e+02
52              	3.05162087e+02
53              	3.05210940e+02
54              	3.05258410e+02
55              	3.05304776e+02
56              	3.05350218e+02
57              	3.05395861e+02
58              	3.05439089e+02
59              	3.05480027e+02
60              	3.05521655e+02
61              	3.05561948e+02
62              	3.05603425e+02
63              	3.05643926e+02
64              	3.05682779e+02
65              	3.05720919e+02
66              	3.05756860e+02
67              	3.05792331e+02
68              	3.05827242e+02
69              	3.05861943e+02
70              	3.05895288e+02
71              	3.05927519e+02
72              	3.05958684e+02
73              	3.05989516e+02
74              	3.06019651e+02
75              	3.06049740e+02
76              	3.06079873e+02
77              	3.06109990e+02
78              	3.06140318e+02
79              	3.06170919e+02
80              	3.06199758e+02
81              	3.06227427e+02
82              	3.06254155e+02
83              	3.06279762e+02
84              	3.06306849e+02
85              	3.06332572e+02
86              	3.06358952e+02
87              	3.06384783e+02
88              	3.06410560e+02
89              	3.06434815e+02
90              	3.06458742e+02
91              	3.06481007e+02
92              	3.06502756e+02
93              	3.06523719e+02
94              	3.06543968e+02
95              	3.06563958e+02
96              	3.06583343e+02
97              	3.06603470e+02
98              	3.06624555e+02
99              	3.06646035e+02
100             	3.06666363e+02
101             	3.06686194e+02
102             	3.06705075e+02
103             	3.06723532e+02
104             	3.06740945e+02
105             	3.06757292e+02
106             	3.06773255e+02
107             	3.06789421e+02
108             	3.06805848e+02
109             	3.06821953e+02
110             	3.06837488e+02
111             	3.06852428e+02
112             	3.06866960e+02
113             	3.06881890e+02
114             	3.06895644e+02
115             	3.06908557e+02
116             	3.06920962e+02
117             	3.06934725e+02
118             	3.06950823e+02
119             	3.06965368e+02
120             	3.06980737e+02
121             	3.06995194e+02
122             	3.07009175e+02
123             	3.07022464e+02
124             	3.07035109e+02
125             	3.07046816e+02
126             	3.07057310e+02
127             	3.07066871e+02
128             	3.07075982e+02
129             	3.07085080e+02
130             	3.07094312e+02
131             	3.07103577e+02
132             	3.07112700e+02
133             	3.07121368e+02
134             	3.07129972e+02
135             	3.07138479e+02
136             	3.07146566e+02
137             	3.07154157e+02
138             	3.07161642e+02
139             	3.07169075e+02
140             	3.07177275e+02
141             	3.07186345e+02
142             	3.07196384e+02
143             	3.07206268e+02
144             	3.07215820e+02
145             	3.07224909e+02
146             	3.07233758e+02
147             	3.07242580e+02
148             	3.07250624e+02
149             	3.07257558e+02
150             	3.07263624e+02
151             	3.07269204e+02
152             	3.07274523e+02
153             	3.07279796e+02
154             	3.07285281e+02
155             	3.07290819e+02
156             	3.07296171e+02
157             	3.07301370e+02
158             	3.07306524e+02
159             	3.07311475e+02
160             	3.07316023e+02
161             	3.07320021e+02
162             	3.07323828e+02
163             	3.07327484e+02
164             	3.07331158e+02
165             	3.07335217e+02
166             	3.07339729e+02
167             	3.07344708e+02
168             	3.07349866e+02
169             	3.07355099e+02
170             	3.07360217e+02
171             	3.07365446e+02
172             	3.07370494e+02
173             	3.07374868e+02
174             	3.07378745e+02
175             	3.07382328e+02
176             	3.07385950e+02
177             	3.07389546e+02
178             	3.07393340e+02
179             	3.07397297e+02
180             	3.07401216e+02
181             	3.07404977e+02
182             	3.07408596e+02
183             	3.07412127e+02
184             	3.07415235e+02
185             	3.07417750e+02
186             	3.07419889e+02
187             	3.07421834e+02
188             	3.07423856e+02
189             	3.07425984e+02
190             	3.07428378e+02
191             	3.07431119e+02
192             	3.07434062e+02
193             	3.07437201e+02
194             	3.07440271e+02
195             	3.07443478e+02
196             	3.07446472e+02
197             	3.07449036e+02
198             	3.07451211e+02
199             	3.07453200e+02
200             	3.07455282e+02
201             	3.07457643e+02
202             	3.07460369e+02
203             	3.07463278e+02
204             	3.07466267e+02
205             	3.07469245e+02
206             	3.07472107e+02
207             	3.07474979e+02
208             	3.07477522e+02
209             	3.07479514e+02
210             	3.07481031e+02
211             	3.07482293e+02
212             	3.07483454e+02
213             	3.07484600e+02
214             	3.07485887e+02
215             	3.07487404e+02
216             	3.07489139e+02
217             	3.07490940e+02
218             	3.07492752e+02
219             	3.07494700e+02
220             	3.07496563e+02
221             	3.07498106e+02
222             	3.07499326e+02
223             	3.07500376e+02
224             	3.07501446e+02
225             	3.07502666e+02
226             	3.07504131e+02
227             	3.07505876e+02
228             	3.07507829e+02
229             	3.07509896e+02
230             	3.07512015e+02
231             	3.07514044e+02
232             	3.07515948e+02
233             	3.07517538e+02
234             	3.07518743e+02
235             	3.07519728e+02
236             	3.07520638e+02
237             	3.07521642e+02
238             	3.07522803e+02
239             	3.07524131e+02
240             	3.07525562e+02
241             	3.07527017e+02
242             	3.07528437e+02
243             	3.07529853e+02
244             	3.07531059e+02
245             	3.07531962e+02
246             	3.07532581e+02
247             	3.07533052e+02
248             	3.07533548e+02
249             	3.07534194e+02
250             	3.07535084e+02
251             	3.07536219e+02
252             	3.07537630e+02
253             	3.07539081e+02
254             	3.07540522e+02
255             	3.07541990e+02
256             	3.07543346e+02
257             	3.07544421e+02
258             	3.07545192e+02
259             	3.07545815e+02
260             	3.07546433e+02
261             	3.07547183e+02
262             	3.07548152e+02
263             	3.07549389e+02
264             	3.07550762e+02
265             	3.07552038e+02
266             	3.07553381e+02
267             	3.07554735e+02
268             	3.07555937e+02
269             	3.07556782e+02
270             	3.07557247e+02
271             	3.07557473e+02
272             	3.07557614e+02
273             	3.07557796e+02
274             	3.07558062e+02
275             	3.07558507e+02
276             	3.07559234e+02
277             	3.07560054e+02
278             	3.07560930e+02
279             	3.07561898e+02
280             	3.07562856e+02
281             	3.07563618e+02
282             	3.07564091e+02
283             	3.07564324e+02
284             	3.07564449e+02
285             	3.07564601e+02
286             	3.07564864e+02
287             	3.07565319e+02
288             	3.07566013e+02
289             	3.07566929e+02
290             	3.07567879e+02
291             	3.07568783e+02
292             	3.07569695e+02
293             	3.07570401e+02
294             	3.07570861e+02
295             	3.07571115e+02
296             	3.07571285e+02
297             	3.07571480e+02
298             	3.07571729e+02
299             	3.07572165e+02
300             	3.07572774e+02
301             	3.07573452e+02
302             	3.07574151e+02
303             	3.07574821e+02
304             	3.07575445e+02
305             	3.07575880e+02
306             	3.07576104e+02
307             	3.07576188e+02
308             	3.07576205e+02
309             	3.07576248e+02
310             	3.07576402e+02
311             	3.07576776e+02
312             	3.07577304e+02
313             	3.07577981e+02
314             	3.07578705e+02
315             	3.07579436e+02
316             	3.07580155e+02
317             	3.07580706e+02
318             	3.07581039e+02
319             	3.07581179e+02
320             	3.07581246e+02
321             	3.07581361e+02
322             	3.07581474e+02
323             	3.07581704e+02
324             	3.07582073e+02
325             	3.07582593e+02
326             	3.07583147e+02
327             	3.07583705e+02
328             	3.07584237e+02
329             	3.07584647e+02
330             	3.07584871e+02
331             	3.07584909e+02
332             	3.07584817e+02
333             	3.07584731e+02
334             	3.07584734e+02
335             	3.07584830e+02
336             	3.07585095e+02
337             	3.07585495e+02
338             	3.07585931e+02
339             	3.07586343e+02
340             	3.07586761e+02
341             	3.07587104e+02
342             	3.07587315e+02
343             	3.07587379e+02
344             	3.07587376e+02
345             	3.07587404e+02
346             	3.07587499e+02
347             	3.07587659e+02
348             	3.07587947e+02
349             	3.07588348e+02
350             	3.07588725e+02
351             	3.07589134e+02
352             	3.07589518e+02
353             	3.07589828e+02
354             	3.07590021e+02
355             	3.07590110e+02
356             	3.07590166e+02
357             	3.07590240e+02
358             	3.07590304e+02
359             	3.07590426e+02
360             	3.07590617e+02
361             	3.07590874e+02
362             	3.07591163e+02
363             	3.07591457e+02
364             	3.07591721e+02
365             	3.07591928e+02
366             	3.07592036e+02
367             	3.07592037e+02
368             	3.07591960e+02
369             	3.07591874e+02
370             	3.07591800e+02
371             	3.07591759e+02
372             	3.07591812e+02
373             	3.07591981e+02
374             	3.07592251e+02
375             	3.07592555e+02
376             	3.07592849e+02
377             	3.07593119e+02
378             	3.07593325e+02
379             	3.07593438e+02
380             	3.07593467e+02
381             	3.07593459e+02
382             	3.07593453e+02
383             	3.07593472e+02
384             	3.07593539e+02
385             	3.07593680e+02
386             	3.07593908e+02
387             	3.07594168e+02
388             	3.07594422e+02
389             	3.07594642e+02
390             	3.07594821e+02
391             	3.07594927e+02
392             	3.07594955e+02
393             	3.07594924e+02
394             	3.07594881e+02
395             	3.07594856e+02
396             	3.07594850e+02
397             	3.07594895e+02
398             	3.07595003e+02
399             	3.07595163e+02
400             	3.07595345e+02
401             	3.07595536e+02
402             	3.07595716e+02
403             	3.07595866e+02
404             	3.07595955e+02
405             	3.07595994e+02
406             	3.07596008e+02
407             	3.07596014e+02
408             	3.07596020e+02
409             	3.07596044e+02
410             	3.07596119e+02
411             	3.07596251e+02
412             	3.07596419e+02
413             	3.07596602e+02
414             	3.07596790e+02
415             	3.07596964e+02
416             	3.07597100e+02
417             	3.07597182e+02
418             	3.07597214e+02
419             	3.07597220e+02
420             	3.07597218e+02
421             	3.07597225e+02
422             	3.07597254e+02
423             	3.07597324e+02
424             	3.07597433e+02
425             	3.07597576e+02
426             	3.07597712e+02
427             	3.07597837e+02
428             	3.07597949e+02
429             	3.07598026e+02
430             	3.07598063e+02
431             	3.07598069e+02
432             	3.07598072e+02
433             	3.07598087e+02
434             	3.07598113e+02
435             	3.07598174e+02
436             	3.07598272e+02
437             	3.07598405e+02
438             	3.07598541e+02
439             	3.07598674e+02
440             	3.07598798e+02
441             	3.07598901e+02
442             	3.07598970e+02
443             	3.07599013e+02
444             	3.07599050e+02
445             	3.07599092e+02
446             	3.07599132e+02
447             	3.07599187e+02
448             	3.07599267e+02
449             	3.07599366e+02
450             	3.07599471e+02
451             	3.07599576e+02
452             	3.07599675e+02
453             	3.07599756e+02
454             	3.07599807e+02
455             	3.07599834e+02
456             	3.07599849e+02
457             	3.07599855e+02
458             	3.07599862e+02
459             	3.07599876e+02
460             	3.07599915e+02
461             	3.07599978e+02
462             	3.07600059e+02
463             	3.07600154e+02
464             	3.07600251e+02
465             	3.07600344e+02
466             	3.07600421e+02
467             	3.07600475e+02
468             	3.07600508e+02
469             	3.07600529e+02
470             	3.07600548e+02
471             	3.07600574e+02
472             	3.07600610e+02
473             	3.07600667e+02
474             	3.07600744e+02
475             	3.07600835e+02
476             	3.07600932e+02
477             	3.07601025e+02
478             	3.07601113e+02
479             	3.07601182e+02
480             	3.07601227e+02
481             	3.07601254e+02
482             	3.07601272e+02
483             	3.07601290e+02
484             	3.07601308e+02
485             	3.07601333e+02
486             	3.07601375e+02
487             	3.07601432e+02
488             	3.07601499e+02
489             	3.07601566e+02
490             	3.07601628e+02
491             	3.07601685e+02
492             	3.07601728e+02
493             	3.07601752e+02
494             	3.07601765e+02
495             	3.07601775e+02
496             	3.07601793e+02
497             	3.07601817e+02
498             	3.07601852e+02
499             	3.07601905e+02
500             	3.07601970e+02
501             	3.07602043e+02
502             	3.07602113e+02
503             	3.07602179e+02
504             	3.07602235e+02
505             	3.07602275e+02
506             	3.07602300e+02
507             	3.07602317e+02
508             	3.07602339e+02
509             	3.07602365e+02
510             	3.07602402e+02
511             	3.07602450e+02
512             	3.07602506e+02
513             	3.07602565e+02
514             	3.07602621e+02
515             	3.07602673e+02
516             	3.07602714e+02
517             	3.07602743e+02
518             	3.07602759e+02
519             	3.07602771e+02
520             	3.07602779e+02
521             	3.07602790e+02
522             	3.07602807e+02
523             	3.07602838e+02
524             	3.07602879e+02
525             	3.07602926e+02
526             	3.07602976e+02
527             	3.07603025e+02
528             	3.07603068e+02
529             	3.07603101e+02
530             	3.07603123e+02
531             	3.07603138e+02
532             	3.07603151e+02
533             	3.07603166e+02
534             	3.07603185e+02
535             	3.07603214e+02
536             	3.07603254e+02
537             	3.07603302e+02
538             	3.07603355e+02
539             	3.07603407e+02
540             	3.07603454e+02
541             	3.07603492e+02
542             	3.07603519e+02
543             	3.07603537e+02
544             	3.07603551e+02
545             	3.07603565e+02
546             	3.07603580e+02
547             	3.07603602e+02
548             	3.07603631e+02
549             	3.07603665e+02
550             	3.07603701e+02
551             	3.07603737e+02
552             	3.07603770e+02
553             	3.07603797e+02
554             	3.07603815e+02
555             	3.07603826e+02
556             	3.07603834e+02
557             	3.07603841e+02
558             	3.07603850e+02
559             	3.07603865e+02
560             	3.07603887e+02
561             	3.07603917e+02
562             	3.07603951e+02
563             	3.07603988e+02
564             	3.07604024e+02
565             	3.07604058e+02
566             	3.07604086e+02
567             	3.07604107e+02
568             	3.07604123e+02
569             	3.07604136e+02
570             	3.07604149e+02
571             	3.07604162e+02
572             	3.07604181e+02
573             	3.07604205e+02
574             	3.07604234e+02
575             	3.07604265e+02
576             	3.07604296e+02
577             	3.07604325e+02
578             	3.07604351e+02
579             	3.07604370e+02
580             	3.07604383e+02
581             	3.07604392e+02
582             	3.07604399e+02
583             	3.07604407e+02
584             	3.07604417e+02
585             	3.07604432e+02
586             	3.07604452e+02
587             	3.07604474e+02
588             	3.07604499e+02
589             	3.07604524e+02
590             	3.07604548e+02
591             	3.07604568e+02
592             	3.07604583e+02
593             	3.07604595e+02
594             	3.07604604e+02
595             	3.07604613e+02
596             	3.07604623e+02
597             	3.07604635e+02
598             	3.07604653e+02
599             	3.07604675e+02
600             	3.07604700e+02
601             	3.07604726e+02
602             	3.07604751e+02
603             	3.07604775e+02
604             	3.07604794e+02
605             	3.07604809e+02
606             	3.07604820e+02
607             	3.07604829e+02
608             	3.07604837e+02
609             	3.07604846e+02
610             	3.07604858e+02
611             	3.07604873e+02
612             	3.07604891e+02
613             	3.07604910e+02
614             	3.07604929e+02
615             	3.07604946e+02
616             	3.07604961e+02
617             	3.07604972e+02
618             	3.07604980e+02
619             	3.07604986e+02
620             	3.07604992e+02
621             	3.07604999e+02
