# Region        : cellZone component_3
# Cells         : 61
# Volume        : 1.00695326e-01
# Time          	volAverage(T)
1               	3.03025960e+02
2               	3.05956628e+02
3               	3.07962506e+02
4               	3.09546204e+02
5               	3.11321211e+02
6               	3.13334030e+02
7               	3.15301051e+02
8               	3.17171353e+02
9               	3.19057067e+02
10              	3.20844319e+02
11              	3.22498930e+02
12              	3.24110152e+02
13              	3.25699204e+02
14              	3.27259269e+02
15              	3.28799513e+02
16              	3.30222905e+02
17              	3.31506837e+02
18              	3.32720139e+02
19              	3.33896548e+02
20              	3.35026036e+02
21              	3.36039572e+02
22              	3.36925651e+02
23              	3.37759873e+02
24              	3.38628979e+02
25              	3.39491285e+02
26              	3.40412373e+02
27              	3.41253467e+02
28              	3.42034692e+02
29              	3.42767854e+02
30              	3.43377443e+02
31              	3.44046803e+02
32              	3.44708512e+02
33              	3.45252470e+02
34              	3.45689097e+02
35              	3.46049686e+02
36              	3.46297737e+02
37              	3.46448219e+02
38              	3.46777395e+02
39              	3.47160617e+02
40              	3.47623250e+02
41              	3.48010472e+02
42              	3.48339490e+02
43              	3.48711465e+02
44              	3.49087041e+02
45              	3.49374132e+02
46              	3.49624368e+02
47              	3.49875973e+02
48              	3.50115774e+02
49              	3.50460819e+02
50              	3.50701740e+02
51              	3.50776319e+02
52              	3.50621898e+02
53              	3.50310832e+02
54              	3.50274389e+02
55              	3.50406112e+02
56              	3.50615581e+02
57              	3.50810243e+02
58              	3.50954857e+02
59              	3.51104047e+02
60              	3.51253229e+02
61              	3.51447885e+02
62              	3.51553948e+02
63              	3.51758646e+02
64              	3.51966217e+02
65              	3.52187825e+02
66              	3.52430031e+02
67              	3.52719221e+02
68              	3.53046111e+02
69              	3.53391829e+02
70              	3.53623830e+02
71              	3.53723966e+02
72              	3.53796603e+02
73              	3.54000509e+02
74              	3.54252117e+02
75              	3.54507646e+02
76              	3.54774776e+02
77              	3.55041234e+02
78              	3.55284586e+02
79              	3.55492315e+02
80              	3.55711956e+02
81              	3.55890799e+02
82              	3.56108313e+02
83              	3.56341883e+02
84              	3.56603062e+02
85              	3.56813042e+02
86              	3.57076471e+02
87              	3.57307476e+02
88              	3.57479475e+02
89              	3.57673289e+02
90              	3.57876320e+02
91              	3.58068890e+02
92              	3.58264608e+02
93              	3.58453366e+02
94              	3.58640364e+02
95              	3.58830094e+02
96              	3.59020613e+02
97              	3.59241779e+02
98              	3.59466557e+02
99              	3.59648148e+02
100             	3.59873255e+02
101             	3.60096399e+02
102             	3.60306701e+02
103             	3.60494326e+02
104             	3.60647505e+02
105             	3.60802988e+02
106             	3.60972089e+02
107             	3.61108401e+02
108             	3.61227320e+02
109             	3.61342767e+02
110             	3.61463411e+02
111             	3.61576696e+02
112             	3.61684100e+02
113             	3.61795408e+02
114             	3.61908492e+02
115             	3.62012048e+02
116             	3.62145453e+02
117             	3.62301246e+02
118             	3.62415125e+02
119             	3.62531607e+02
120             	3.62672291e+02
121             	3.62832032e+02
122             	3.62984014e+02
123             	3.63111188e+02
124             	3.63217038e+02
125             	3.63312102e+02
126             	3.63414898e+02
127             	3.63489948e+02
128             	3.63558056e+02
129             	3.63628479e+02
130             	3.63698503e+02
131             	3.63756975e+02
132             	3.63812756e+02
133             	3.63887588e+02
134             	3.63958521e+02
135             	3.64026962e+02
136             	3.64093417e+02
137             	3.64146769e+02
138             	3.64193427e+02
139             	3.64240726e+02
140             	3.64292685e+02
141             	3.64344509e+02
142             	3.64405076e+02
143             	3.64478100e+02
144             	3.64549882e+02
145             	3.64625517e+02
146             	3.64696126e+02
147             	3.64772123e+02
148             	3.64839309e+02
149             	3.64903126e+02
150             	3.64965885e+02
151             	3.65025188e+02
152             	3.65079682e+02
153             	3.65131077e+02
154             	3.65175123e+02
155             	3.65210394e+02
156             	3.65227712e+02
157             	3.65257441e+02
158             	3.65272137e+02
159             	3.65312311e+02
160             	3.65359217e+02
161             	3.65404365e+02
162             	3.65447473e+02
163             	3.65488428e+02
164             	3.65524877e+02
165             	3.65553104e+02
166             	3.65585847e+02
167             	3.65627379e+02
168             	3.65667223e+02
169             	3.65699715e+02
170             	3.65734060e+02
171             	3.65773276e+02
172             	3.65812099e+02
173             	3.65834294e+02
174             	3.65867804e+02
175             	3.65904845e+02
176             	3.65938402e+02
177             	3.65966747e+02
178             	3.65981051e+02
179             	3.66004569e+02
180             	3.66030872e+02
181             	3.66052588e+02
182             	3.66073134e+02
183             	3.66080080e+02
184             	3.66107592e+02
185             	3.66132837e+02
186             	3.66158595e+02
187             	3.66186285e+02
188             	3.66206605e+02
189             	3.66216722e+02
190             	3.66230219e+02
191             	3.66244080e+02
192             	3.66254337e+02
193             	3.66255720e+02
194             	3.66233622e+02
195             	3.66243144e+02
196             	3.66238952e+02
197             	3.66247005e+02
198             	3.66257348e+02
199             	3.66266677e+02
200             	3.66277963e+02
201             	3.66286277e+02
202             	3.66288081e+02
203             	3.66297330e+02
204             	3.66308108e+02
205             	3.66315884e+02
206             	3.66303295e+02
207             	3.66304759e+02
208             	3.66299253e+02
209             	3.66301885e+02
210             	3.66309553e+02
211             	3.66316854e+02
212             	3.66315494e+02
213             	3.66306230e+02
214             	3.66304575e+02
215             	3.66305942e+02
216             	3.66305965e+02
217             	3.66302191e+02
218             	3.66279584e+02
219             	3.66274736e+02
220             	3.66276632e+02
221             	3.66275061e+02
222             	3.66271117e+02
223             	3.66267921e+02
224             	3.66259957e+02
225             	3.66248237e+02
226             	3.66242255e+02
227             	3.66238531e+02
228             	3.66215048e+02
229             	3.66205567e+02
230             	3.66184436e+02
231             	3.66182594e+02
232             	3.66172718e+02
233             	3.66166159e+02
234             	3.66161545e+02
235             	3.66159090e+02
236             	3.66155711e+02
237             	3.66148540e+02
238             	3.66145298e+02
239             	3.66144759e+02
240             	3.66144350e+02
241             	3.66125016e+02
242             	3.66120902e+02
243             	3.66123435e+02
244             	3.66113106e+02
245             	3.66108987e+02
246             	3.66104808e+02
247             	3.66097706e+02
248             	3.66092264e+02
249             	3.66089776e+02
250             	3.66087525e+02
251             	3.66083537e+02
252             	3.66080320e+02
253             	3.66077709e+02
254             	3.66072757e+02
255             	3.66066417e+02
256             	3.66060266e+02
257             	3.66054773e+02
258             	3.66048986e+02
259             	3.66042711e+02
260             	3.66035307e+02
261             	3.66027287e+02
262             	3.66019782e+02
263             	3.66011224e+02
264             	3.66002399e+02
265             	3.65993952e+02
266             	3.65986255e+02
267             	3.65979041e+02
268             	3.65972149e+02
269             	3.65966010e+02
270             	3.65959752e+02
271             	3.65950924e+02
272             	3.65944054e+02
273             	3.65938703e+02
274             	3.65933551e+02
275             	3.65928300e+02
276             	3.65922666e+02
277             	3.65916850e+02
278             	3.65911697e+02
279             	3.65907458e+02
280             	3.65902514e+02
281             	3.65897398e+02
282             	3.65892282e+02
283             	3.65888137e+02
284             	3.65883641e+02
285             	3.65878641e+02
286             	3.65872277e+02
287             	3.65867641e+02
288             	3.65864100e+02
289             	3.65860633e+02
290             	3.65856949e+02
291             	3.65853625e+02
292             	3.65850009e+02
293             	3.65846789e+02
294             	3.65843705e+02
295             	3.65840551e+02
296             	3.65836881e+02
297             	3.65832814e+02
298             	3.65828409e+02
299             	3.65823770e+02
300             	3.65818530e+02
301             	3.65813224e+02
302             	3.65808035e+02
303             	3.65802998e+02
304             	3.65797770e+02
305             	3.65792710e+02
306             	3.65787996e+02
307             	3.65783777e+02
308             	3.65779743e+02
309             	3.65776000e+02
310             	3.65772467e+02
311             	3.65769218e+02
312             	3.65765679e+02
313             	3.65762371e+02
314             	3.65759119e+02
315             	3.65755756e+02
316             	3.65751987e+02
317             	3.65747996e+02
318             	3.65743780e+02
319             	3.65739453e+02
320             	3.65734921e+02
321             	3.65730301e+02
322             	3.65725013e+02
323             	3.65720031e+02
324             	3.65714856e+02
325             	3.65709666e+02
326             	3.65704273e+02
327             	3.65698779e+02
328             	3.65693148e+02
329             	3.65687800e+02
330             	3.65682737e+02
331             	3.65678110e+02
332             	3.65673650e+02
333             	3.65669696e+02
334             	3.65666285e+02
335             	3.65663400e+02
336             	3.65660928e+02
337             	3.65656981e+02
338             	3.65654812e+02
339             	3.65654084e+02
340             	3.65653641e+02
341             	3.65653034e+02
342             	3.65652331e+02
343             	3.65651750e+02
344             	3.65651304e+02
345             	3.65650939e+02
346             	3.65650575e+02
347             	3.65650159e+02
348             	3.65649665e+02
349             	3.65649100e+02
350             	3.65649143e+02
351             	3.65648825e+02
352             	3.65648551e+02
353             	3.65648812e+02
354             	3.65649584e+02
355             	3.65650713e+02
356             	3.65652087e+02
357             	3.65653651e+02
358             	3.65654552e+02
359             	3.65656069e+02
360             	3.65658084e+02
361             	3.65660255e+02
362             	3.65662569e+02
363             	3.65665126e+02
364             	3.65668144e+02
365             	3.65671580e+02
366             	3.65675344e+02
367             	3.65679028e+02
368             	3.65682877e+02
369             	3.65687003e+02
370             	3.65691402e+02
371             	3.65695953e+02
372             	3.65700323e+02
373             	3.65704541e+02
374             	3.65708730e+02
375             	3.65712895e+02
376             	3.65717331e+02
377             	3.65721896e+02
378             	3.65726865e+02
379             	3.65731861e+02
380             	3.65737248e+02
381             	3.65743242e+02
382             	3.65749686e+02
383             	3.65756551e+02
384             	3.65763006e+02
385             	3.65769179e+02
386             	3.65775768e+02
387             	3.65782830e+02
388             	3.65790786e+02
389             	3.65799371e+02
390             	3.65808621e+02
391             	3.65817475e+02
392             	3.65826635e+02
393             	3.65836635e+02
394             	3.65847125e+02
395             	3.65857403e+02
396             	3.65868142e+02
397             	3.65879729e+02
398             	3.65890811e+02
399             	3.65901471e+02
400             	3.65913056e+02
401             	3.65925634e+02
402             	3.65938695e+02
403             	3.65951570e+02
404             	3.65964790e+02
405             	3.65978158e+02
406             	3.65991542e+02
407             	3.66004241e+02
408             	3.66018601e+02
409             	3.66033651e+02
410             	3.66048955e+02
411             	3.66064244e+02
412             	3.66080211e+02
413             	3.66096227e+02
414             	3.66112360e+02
415             	3.66128663e+02
416             	3.66146105e+02
417             	3.66163865e+02
418             	3.66182137e+02
419             	3.66201289e+02
420             	3.66220760e+02
421             	3.66239820e+02
422             	3.66258861e+02
423             	3.66276168e+02
424             	3.66294869e+02
425             	3.66313759e+02
426             	3.66332480e+02
427             	3.66350716e+02
428             	3.66369701e+02
429             	3.66388422e+02
430             	3.66405669e+02
431             	3.66422020e+02
432             	3.66439051e+02
433             	3.66455839e+02
434             	3.66472408e+02
435             	3.66488706e+02
436             	3.66504671e+02
437             	3.66519693e+02
438             	3.66534815e+02
439             	3.66549264e+02
440             	3.66563866e+02
441             	3.66578299e+02
442             	3.66592914e+02
443             	3.66607295e+02
444             	3.66622062e+02
445             	3.66636574e+02
446             	3.66650938e+02
447             	3.66665200e+02
448             	3.66679774e+02
449             	3.66694206e+02
450             	3.66708577e+02
451             	3.66722494e+02
452             	3.66736885e+02
453             	3.66751321e+02
454             	3.66765944e+02
455             	3.66780487e+02
456             	3.66795830e+02
457             	3.66811302e+02
458             	3.66826802e+02
459             	3.66841859e+02
460             	3.66857892e+02
461             	3.66873716e+02
462             	3.66889748e+02
463             	3.66905205e+02
464             	3.66921335e+02
465             	3.66937216e+02
466             	3.66954075e+02
467             	3.66969757e+02
468             	3.66985752e+02
469             	3.67001570e+02
470             	3.67017329e+02
471             	3.67032700e+02
472             	3.67048479e+02
473             	3.67063934e+02
474             	3.67079261e+02
475             	3.67094912e+02
476             	3.67110315e+02
477             	3.67125476e+02
478             	3.67140776e+02
479             	3.67156740e+02
480             	3.67172679e+02
481             	3.67188360e+02
482             	3.67203828e+02
483             	3.67219754e+02
484             	3.67235563e+02
485             	3.67250901e+02
486             	3.67265982e+02
487             	3.67281285e+02
488             	3.67296418e+02
489             	3.67311034e+02
490             	3.67325492e+02
491             	3.67340296e+02
492             	3.67354917e+02
493             	3.67369237e+02
494             	3.67383541e+02
495             	3.67398205e+02
496             	3.67412685e+02
497             	3.67427191e+02
498             	3.67441330e+02
499             	3.67455564e+02
500             	3.67469484e+02
501             	3.67483019e+02
502             	3.67496595e+02
503             	3.67510395e+02
504             	3.67523262e+02
505             	3.67535653e+02
506             	3.67547893e+02
507             	3.67560284e+02
508             	3.67572172e+02
509             	3.67583570e+02
510             	3.67594896e+02
511             	3.67606166e+02
512             	3.67616749e+02
513             	3.67626631e+02
514             	3.67636356e+02
515             	3.67646024e+02
516             	3.67654670e+02
517             	3.67662524e+02
518             	3.67669935e+02
519             	3.67676900e+02
520             	3.67683455e+02
521             	3.67689882e+02
522             	3.67696347e+02
523             	3.67702901e+02
524             	3.67709250e+02
525             	3.67715450e+02
526             	3.67721859e+02
527             	3.67728248e+02
528             	3.67734401e+02
529             	3.67740334e+02
530             	3.67746123e+02
531             	3.67752039e+02
532             	3.67757866e+02
533             	3.67763641e+02
534             	3.67769522e+02
535             	3.67775819e+02
536             	3.67782163e+02
537             	3.67788204e+02
538             	3.67794073e+02
539             	3.67799975e+02
540             	3.67804936e+02
541             	3.67809875e+02
542             	3.67813909e+02
543             	3.67818358e+02
544             	3.67822887e+02
545             	3.67828085e+02
546             	3.67832354e+02
547             	3.67836217e+02
548             	3.67839876e+02
549             	3.67843471e+02
550             	3.67846823e+02
551             	3.67850016e+02
552             	3.67852859e+02
553             	3.67855157e+02
554             	3.67856740e+02
555             	3.67857359e+02
556             	3.67858158e+02
557             	3.67859154e+02
558             	3.67860028e+02
559             	3.67860671e+02
560             	3.67861550e+02
561             	3.67862548e+02
562             	3.67863897e+02
563             	3.67865670e+02
564             	3.67867797e+02
565             	3.67869977e+02
566             	3.67872133e+02
567             	3.67874218e+02
568             	3.67875991e+02
569             	3.67877548e+02
570             	3.67878870e+02
571             	3.67880003e+02
572             	3.67881020e+02
573             	3.67882440e+02
574             	3.67884317e+02
575             	3.67886074e+02
576             	3.67887801e+02
577             	3.67889801e+02
578             	3.67891938e+02
579             	3.67893978e+02
580             	3.67895534e+02
581             	3.67896799e+02
582             	3.67897534e+02
583             	3.67897719e+02
584             	3.67897542e+02
585             	3.67897088e+02
586             	3.67896446e+02
587             	3.67895674e+02
588             	3.67894786e+02
589             	3.67893786e+02
590             	3.67892693e+02
591             	3.67891551e+02
592             	3.67890546e+02
593             	3.67889378e+02
594             	3.67888054e+02
595             	3.67886635e+02
596             	3.67885138e+02
597             	3.67883474e+02
598             	3.67881669e+02
599             	3.67879798e+02
600             	3.67877835e+02
601             	3.67875622e+02
602             	3.67873773e+02
603             	3.67872547e+02
604             	3.67871633e+02
605             	3.67871035e+02
606             	3.67870816e+02
607             	3.67870728e+02
608             	3.67870828e+02
609             	3.67871059e+02
610             	3.67871413e+02
611             	3.67871894e+02
612             	3.67872440e+02
613             	3.67873097e+02
614             	3.67873828e+02
615             	3.67874654e+02
616             	3.67875633e+02
617             	3.67876411e+02
618             	3.67877645e+02
619             	3.67879316e+02
620             	3.67881350e+02
621             	3.67883380e+02
