# Region        : cellZone component_2
# Cells         : 34
# Volume        : 5.41879121e-02
# Time          	volAverage(T)
1               	3.01417293e+02
2               	3.02786986e+02
3               	3.04015033e+02
4               	3.05130913e+02
5               	3.06169306e+02
6               	3.07149015e+02
7               	3.08078639e+02
8               	3.08966735e+02
9               	3.09825462e+02
10              	3.10657865e+02
11              	3.11484148e+02
12              	3.12271460e+02
13              	3.13005862e+02
14              	3.13686445e+02
15              	3.14328179e+02
16              	3.14934590e+02
17              	3.15522023e+02
18              	3.16107313e+02
19              	3.16676281e+02
20              	3.17233835e+02
21              	3.17781847e+02
22              	3.18365269e+02
23              	3.18944863e+02
24              	3.19505061e+02
25              	3.20039124e+02
26              	3.20537927e+02
27              	3.21005585e+02
28              	3.21448738e+02
29              	3.21850996e+02
30              	3.22224419e+02
31              	3.22565034e+02
32              	3.22894455e+02
33              	3.23283040e+02
34              	3.23585301e+02
35              	3.23791315e+02
36              	3.23886449e+02
37              	3.23878075e+02
38              	3.23993112e+02
39              	3.24128879e+02
40              	3.24275172e+02
41              	3.24414267e+02
42              	3.24547933e+02
43              	3.24662363e+02
44              	3.24803218e+02
45              	3.24978079e+02
46              	3.25231061e+02
47              	3.25427685e+02
48              	3.25554197e+02
49              	3.25634685e+02
50              	3.25632282e+02
51              	3.25611457e+02
52              	3.25658720e+02
53              	3.25659141e+02
54              	3.25621454e+02
55              	3.25572317e+02
56              	3.25547460e+02
57              	3.25605021e+02
58              	3.25723759e+02
59              	3.25879779e+02
60              	3.25999871e+02
61              	3.26074743e+02
62              	3.26110894e+02
63              	3.26120805e+02
64              	3.26116045e+02
65              	3.26118834e+02
66              	3.26084636e+02
67              	3.26006120e+02
68              	3.25907582e+02
69              	3.25791212e+02
70              	3.25688848e+02
71              	3.25615094e+02
72              	3.25591729e+02
73              	3.25603853e+02
74              	3.25666496e+02
75              	3.25686441e+02
76              	3.25677400e+02
77              	3.25622772e+02
78              	3.25568090e+02
79              	3.25559614e+02
80              	3.25552817e+02
81              	3.25519467e+02
82              	3.25469080e+02
83              	3.25424598e+02
84              	3.25400226e+02
85              	3.25449071e+02
86              	3.25568931e+02
87              	3.25660623e+02
88              	3.25729142e+02
89              	3.25766387e+02
90              	3.25807187e+02
91              	3.25875720e+02
92              	3.25942049e+02
93              	3.25973826e+02
94              	3.25964318e+02
95              	3.25928585e+02
96              	3.25883987e+02
97              	3.25860652e+02
98              	3.25874861e+02
99              	3.25939953e+02
100             	3.26042967e+02
101             	3.26125231e+02
102             	3.26142883e+02
103             	3.26132065e+02
104             	3.26139108e+02
105             	3.26152298e+02
106             	3.26118781e+02
107             	3.26039015e+02
108             	3.25943327e+02
109             	3.25853690e+02
110             	3.25789985e+02
111             	3.25775000e+02
112             	3.25839164e+02
113             	3.25892682e+02
114             	3.25899411e+02
115             	3.25876764e+02
116             	3.25891803e+02
117             	3.25921744e+02
118             	3.25924453e+02
119             	3.25890793e+02
120             	3.25832275e+02
121             	3.25772737e+02
122             	3.25725292e+02
123             	3.25704793e+02
124             	3.25723972e+02
125             	3.25771157e+02
126             	3.25867118e+02
127             	3.25906687e+02
128             	3.25951464e+02
129             	3.25980625e+02
130             	3.26014254e+02
131             	3.26049466e+02
132             	3.26061144e+02
133             	3.26043461e+02
134             	3.26018348e+02
135             	3.26002372e+02
136             	3.26013311e+02
137             	3.26049837e+02
138             	3.26104583e+02
139             	3.26208588e+02
140             	3.26303194e+02
141             	3.26340919e+02
142             	3.26347060e+02
143             	3.26374443e+02
144             	3.26414661e+02
145             	3.26427003e+02
146             	3.26405790e+02
147             	3.26369393e+02
148             	3.26327473e+02
149             	3.26284839e+02
150             	3.26283471e+02
151             	3.26311973e+02
152             	3.26362457e+02
153             	3.26428459e+02
154             	3.26465144e+02
155             	3.26507491e+02
156             	3.26515941e+02
157             	3.26531162e+02
158             	3.26549014e+02
159             	3.26533649e+02
160             	3.26493310e+02
161             	3.26447110e+02
162             	3.26420044e+02
163             	3.26447490e+02
164             	3.26524954e+02
165             	3.26636634e+02
166             	3.26708892e+02
167             	3.26734686e+02
168             	3.26763163e+02
169             	3.26791004e+02
170             	3.26802673e+02
171             	3.26782451e+02
172             	3.26721029e+02
173             	3.26646659e+02
174             	3.26574166e+02
175             	3.26522979e+02
176             	3.26480900e+02
177             	3.26433944e+02
178             	3.26407619e+02
179             	3.26406894e+02
180             	3.26445114e+02
181             	3.26483366e+02
182             	3.26507860e+02
183             	3.26550654e+02
184             	3.26580258e+02
185             	3.26587378e+02
186             	3.26582214e+02
187             	3.26571227e+02
188             	3.26558189e+02
189             	3.26570665e+02
190             	3.26622375e+02
191             	3.26712212e+02
192             	3.26846946e+02
193             	3.26905553e+02
194             	3.26920891e+02
195             	3.26965046e+02
196             	3.27021245e+02
197             	3.27047710e+02
198             	3.27037579e+02
199             	3.26998780e+02
200             	3.26949142e+02
201             	3.26894692e+02
202             	3.26864216e+02
203             	3.26880525e+02
204             	3.26938639e+02
205             	3.27024358e+02
206             	3.27074015e+02
207             	3.27096409e+02
208             	3.27141479e+02
209             	3.27173076e+02
210             	3.27174057e+02
211             	3.27142419e+02
212             	3.27088530e+02
213             	3.27037344e+02
214             	3.27005801e+02
215             	3.27004210e+02
216             	3.27003634e+02
217             	3.27010796e+02
218             	3.27035134e+02
219             	3.27057777e+02
220             	3.27086640e+02
221             	3.27103370e+02
222             	3.27117795e+02
223             	3.27117820e+02
224             	3.27092647e+02
225             	3.27057176e+02
226             	3.27017238e+02
227             	3.26991298e+02
228             	3.26988417e+02
229             	3.26993565e+02
230             	3.27039112e+02
231             	3.27124704e+02
232             	3.27150091e+02
233             	3.27166717e+02
234             	3.27181113e+02
235             	3.27204964e+02
236             	3.27206447e+02
237             	3.27178264e+02
238             	3.27140771e+02
239             	3.27101868e+02
240             	3.27093143e+02
241             	3.27122537e+02
242             	3.27188117e+02
243             	3.27264946e+02
244             	3.27300666e+02
245             	3.27313730e+02
246             	3.27334453e+02
247             	3.27370745e+02
248             	3.27373894e+02
249             	3.27331493e+02
250             	3.27275774e+02
251             	3.27214802e+02
252             	3.27193444e+02
253             	3.27220382e+02
254             	3.27269685e+02
255             	3.27326396e+02
256             	3.27336882e+02
257             	3.27351383e+02
258             	3.27346579e+02
259             	3.27341480e+02
260             	3.27298489e+02
261             	3.27217619e+02
262             	3.27133821e+02
263             	3.27088437e+02
264             	3.27086071e+02
265             	3.27138533e+02
266             	3.27179311e+02
267             	3.27205684e+02
268             	3.27180905e+02
269             	3.27139220e+02
270             	3.27142889e+02
271             	3.27131479e+02
272             	3.27075501e+02
273             	3.26990998e+02
274             	3.26896581e+02
275             	3.26800201e+02
276             	3.26741388e+02
277             	3.26726204e+02
278             	3.26781336e+02
279             	3.26838090e+02
280             	3.26866641e+02
281             	3.26878505e+02
282             	3.26895513e+02
283             	3.26928979e+02
284             	3.26921309e+02
285             	3.26874193e+02
286             	3.26799866e+02
287             	3.26723425e+02
288             	3.26700939e+02
289             	3.26725005e+02
290             	3.26807679e+02
291             	3.26873697e+02
292             	3.26868141e+02
293             	3.26831455e+02
294             	3.26820980e+02
295             	3.26834355e+02
296             	3.26819576e+02
297             	3.26777120e+02
298             	3.26708389e+02
299             	3.26639018e+02
300             	3.26602539e+02
301             	3.26597745e+02
302             	3.26624158e+02
303             	3.26685659e+02
304             	3.26711345e+02
305             	3.26697569e+02
306             	3.26711057e+02
307             	3.26748835e+02
308             	3.26753849e+02
309             	3.26730833e+02
310             	3.26679762e+02
311             	3.26622663e+02
312             	3.26562847e+02
313             	3.26549283e+02
314             	3.26578199e+02
315             	3.26642282e+02
316             	3.26727387e+02
317             	3.26754917e+02
318             	3.26739126e+02
319             	3.26715222e+02
320             	3.26707901e+02
321             	3.26707821e+02
322             	3.26679495e+02
323             	3.26614911e+02
324             	3.26536722e+02
325             	3.26463307e+02
326             	3.26403792e+02
327             	3.26385810e+02
328             	3.26405333e+02
329             	3.26469290e+02
330             	3.26503901e+02
331             	3.26513620e+02
332             	3.26541167e+02
333             	3.26582173e+02
334             	3.26595588e+02
335             	3.26575300e+02
336             	3.26534663e+02
337             	3.26489410e+02
338             	3.26439338e+02
339             	3.26411986e+02
340             	3.26412272e+02
341             	3.26411039e+02
342             	3.26443684e+02
343             	3.26512207e+02
344             	3.26557952e+02
345             	3.26588521e+02
346             	3.26641953e+02
347             	3.26695612e+02
348             	3.26722670e+02
349             	3.26718735e+02
350             	3.26702349e+02
351             	3.26681322e+02
352             	3.26691567e+02
353             	3.26723918e+02
354             	3.26766465e+02
355             	3.26839143e+02
356             	3.26876668e+02
357             	3.26936763e+02
358             	3.26982610e+02
359             	3.27027302e+02
360             	3.27039010e+02
361             	3.27024780e+02
362             	3.26986282e+02
363             	3.26938157e+02
364             	3.26879636e+02
365             	3.26823336e+02
366             	3.26782195e+02
367             	3.26768414e+02
368             	3.26770727e+02
369             	3.26791348e+02
370             	3.26829150e+02
371             	3.26889937e+02
372             	3.26958800e+02
373             	3.27009282e+02
374             	3.27072650e+02
375             	3.27127485e+02
376             	3.27176405e+02
377             	3.27214956e+02
378             	3.27247309e+02
379             	3.27273323e+02
380             	3.27303463e+02
381             	3.27342877e+02
382             	3.27388937e+02
383             	3.27437604e+02
384             	3.27498298e+02
385             	3.27542387e+02
386             	3.27586425e+02
387             	3.27631396e+02
388             	3.27661528e+02
389             	3.27675733e+02
390             	3.27677971e+02
391             	3.27669998e+02
392             	3.27654695e+02
393             	3.27636444e+02
394             	3.27620201e+02
395             	3.27612544e+02
396             	3.27616109e+02
397             	3.27633147e+02
398             	3.27658313e+02
399             	3.27695818e+02
400             	3.27729476e+02
401             	3.27769362e+02
402             	3.27790909e+02
403             	3.27814344e+02
404             	3.27827190e+02
405             	3.27835309e+02
406             	3.27840932e+02
407             	3.27843220e+02
408             	3.27840548e+02
409             	3.27845710e+02
410             	3.27855168e+02
411             	3.27867238e+02
412             	3.27886738e+02
413             	3.27912163e+02
414             	3.27941228e+02
415             	3.27971284e+02
416             	3.27994726e+02
417             	3.28012284e+02
418             	3.28023403e+02
419             	3.28030698e+02
420             	3.28037182e+02
421             	3.28043840e+02
422             	3.28050492e+02
423             	3.28055296e+02
424             	3.28061119e+02
425             	3.28071922e+02
426             	3.28082621e+02
427             	3.28093666e+02
428             	3.28109129e+02
429             	3.28127907e+02
430             	3.28148215e+02
431             	3.28166184e+02
432             	3.28183361e+02
433             	3.28197770e+02
434             	3.28208776e+02
435             	3.28216425e+02
436             	3.28221079e+02
437             	3.28223522e+02
438             	3.28222575e+02
439             	3.28220382e+02
440             	3.28221592e+02
441             	3.28224880e+02
442             	3.28228623e+02
443             	3.28233301e+02
444             	3.28238086e+02
445             	3.28242529e+02
446             	3.28247252e+02
447             	3.28252422e+02
448             	3.28257794e+02
449             	3.28262818e+02
450             	3.28267204e+02
451             	3.28270969e+02
452             	3.28273929e+02
453             	3.28276426e+02
454             	3.28279011e+02
455             	3.28280923e+02
456             	3.28281757e+02
457             	3.28281876e+02
458             	3.28281870e+02
459             	3.28281461e+02
460             	3.28280867e+02
461             	3.28281026e+02
462             	3.28281878e+02
463             	3.28283554e+02
464             	3.28286295e+02
465             	3.28289947e+02
466             	3.28294438e+02
467             	3.28299303e+02
468             	3.28304212e+02
469             	3.28308352e+02
470             	3.28311140e+02
471             	3.28312449e+02
472             	3.28312186e+02
473             	3.28310304e+02
474             	3.28307247e+02
475             	3.28303616e+02
476             	3.28299435e+02
477             	3.28295108e+02
478             	3.28290790e+02
479             	3.28286462e+02
480             	3.28282600e+02
481             	3.28279155e+02
482             	3.28276311e+02
483             	3.28274041e+02
484             	3.28273344e+02
485             	3.28273771e+02
486             	3.28275093e+02
487             	3.28277122e+02
488             	3.28279664e+02
489             	3.28282654e+02
490             	3.28286036e+02
491             	3.28289594e+02
492             	3.28292791e+02
493             	3.28294876e+02
494             	3.28296397e+02
495             	3.28297343e+02
496             	3.28297643e+02
497             	3.28297196e+02
498             	3.28295966e+02
499             	3.28294031e+02
500             	3.28292435e+02
501             	3.28290911e+02
502             	3.28290002e+02
503             	3.28289783e+02
504             	3.28290359e+02
505             	3.28291711e+02
506             	3.28293648e+02
507             	3.28295784e+02
508             	3.28297799e+02
509             	3.28299653e+02
510             	3.28301474e+02
511             	3.28303341e+02
512             	3.28305325e+02
513             	3.28307203e+02
514             	3.28308628e+02
515             	3.28309427e+02
516             	3.28309838e+02
517             	3.28309800e+02
518             	3.28309418e+02
519             	3.28308806e+02
520             	3.28308209e+02
521             	3.28307842e+02
522             	3.28307924e+02
523             	3.28308187e+02
524             	3.28308545e+02
525             	3.28308963e+02
526             	3.28309545e+02
527             	3.28310251e+02
528             	3.28311135e+02
529             	3.28312180e+02
530             	3.28313445e+02
531             	3.28314875e+02
532             	3.28316310e+02
533             	3.28317717e+02
534             	3.28319105e+02
535             	3.28320382e+02
536             	3.28321445e+02
537             	3.28322216e+02
538             	3.28322596e+02
539             	3.28322619e+02
540             	3.28322337e+02
541             	3.28321834e+02
542             	3.28321198e+02
543             	3.28320542e+02
544             	3.28319868e+02
545             	3.28319422e+02
546             	3.28319268e+02
547             	3.28319406e+02
548             	3.28319911e+02
549             	3.28320709e+02
550             	3.28321633e+02
551             	3.28322603e+02
552             	3.28323598e+02
553             	3.28324648e+02
554             	3.28325800e+02
555             	3.28327084e+02
556             	3.28328426e+02
557             	3.28329859e+02
558             	3.28331353e+02
559             	3.28332828e+02
560             	3.28334235e+02
561             	3.28335236e+02
562             	3.28335966e+02
563             	3.28336299e+02
564             	3.28336246e+02
565             	3.28335864e+02
566             	3.28335253e+02
567             	3.28334451e+02
568             	3.28333517e+02
569             	3.28332713e+02
570             	3.28332003e+02
571             	3.28331446e+02
572             	3.28331041e+02
573             	3.28330859e+02
574             	3.28330880e+02
575             	3.28331055e+02
576             	3.28331267e+02
577             	3.28331500e+02
578             	3.28331802e+02
579             	3.28332285e+02
580             	3.28332886e+02
581             	3.28333489e+02
582             	3.28334008e+02
583             	3.28334276e+02
584             	3.28334416e+02
585             	3.28334433e+02
586             	3.28334330e+02
587             	3.28334195e+02
588             	3.28334064e+02
589             	3.28333951e+02
590             	3.28333963e+02
591             	3.28334044e+02
592             	3.28334197e+02
593             	3.28334439e+02
594             	3.28334750e+02
595             	3.28335092e+02
596             	3.28335471e+02
597             	3.28335864e+02
598             	3.28336184e+02
599             	3.28336502e+02
600             	3.28336778e+02
601             	3.28337056e+02
602             	3.28337325e+02
603             	3.28337565e+02
604             	3.28337682e+02
605             	3.28337656e+02
606             	3.28337512e+02
607             	3.28337269e+02
608             	3.28337032e+02
609             	3.28336779e+02
610             	3.28336631e+02
611             	3.28336608e+02
612             	3.28336693e+02
613             	3.28336867e+02
614             	3.28337119e+02
615             	3.28337392e+02
616             	3.28337584e+02
617             	3.28337653e+02
618             	3.28337638e+02
619             	3.28337575e+02
620             	3.28337502e+02
621             	3.28337445e+02
