# Region        : cellZone component_0
# Cells         : 111
# Volume        : 2.17941236e-01
# Time          	volAverage(T)
1               	3.01398819e+02
2               	3.02772079e+02
3               	3.03913833e+02
4               	3.04900445e+02
5               	3.05839416e+02
6               	3.06751588e+02
7               	3.07642507e+02
8               	3.08506601e+02
9               	3.09348876e+02
10              	3.10168449e+02
11              	3.10958896e+02
12              	3.11695822e+02
13              	3.12402117e+02
14              	3.13090252e+02
15              	3.13755084e+02
16              	3.14381298e+02
17              	3.14973041e+02
18              	3.15554216e+02
19              	3.16117737e+02
20              	3.16648856e+02
21              	3.17125177e+02
22              	3.17617317e+02
23              	3.18136280e+02
24              	3.18645115e+02
25              	3.19102812e+02
26              	3.19554313e+02
27              	3.19997096e+02
28              	3.20489826e+02
29              	3.21021133e+02
30              	3.21422321e+02
31              	3.21649844e+02
32              	3.21781552e+02
33              	3.21919554e+02
34              	3.22107108e+02
35              	3.22357106e+02
36              	3.22635597e+02
37              	3.22945955e+02
38              	3.23264552e+02
39              	3.23569857e+02
40              	3.23913939e+02
41              	3.24276137e+02
42              	3.24708480e+02
43              	3.25172504e+02
44              	3.25593506e+02
45              	3.26008032e+02
46              	3.26390640e+02
47              	3.26762695e+02
48              	3.27160234e+02
49              	3.27553902e+02
50              	3.27885130e+02
51              	3.28161203e+02
52              	3.28369598e+02
53              	3.28535768e+02
54              	3.28634674e+02
55              	3.28708156e+02
56              	3.28859019e+02
57              	3.29046239e+02
58              	3.29188251e+02
59              	3.29363151e+02
60              	3.29572956e+02
61              	3.29834241e+02
62              	3.30132957e+02
63              	3.30426387e+02
64              	3.30699895e+02
65              	3.30917450e+02
66              	3.31040189e+02
67              	3.31097903e+02
68              	3.31158554e+02
69              	3.31205502e+02
70              	3.31312956e+02
71              	3.31486567e+02
72              	3.31709635e+02
73              	3.31946589e+02
74              	3.32183616e+02
75              	3.32405438e+02
76              	3.32649687e+02
77              	3.32898514e+02
78              	3.33117391e+02
79              	3.33323548e+02
80              	3.33527119e+02
81              	3.33729665e+02
82              	3.33903577e+02
83              	3.34060398e+02
84              	3.34207132e+02
85              	3.34334056e+02
86              	3.34433088e+02
87              	3.34508929e+02
88              	3.34575216e+02
89              	3.34614397e+02
90              	3.34637829e+02
91              	3.34669625e+02
92              	3.34768596e+02
93              	3.34964267e+02
94              	3.35217673e+02
95              	3.35442766e+02
96              	3.35645028e+02
97              	3.35865408e+02
98              	3.36107982e+02
99              	3.36352524e+02
100             	3.36649754e+02
101             	3.36851354e+02
102             	3.36960056e+02
103             	3.37057584e+02
104             	3.37117678e+02
105             	3.37096887e+02
106             	3.37040009e+02
107             	3.36999335e+02
108             	3.36970392e+02
109             	3.36993042e+02
110             	3.37115747e+02
111             	3.37269021e+02
112             	3.37420871e+02
113             	3.37543920e+02
114             	3.37693629e+02
115             	3.37873315e+02
116             	3.38068581e+02
117             	3.38230994e+02
118             	3.38354568e+02
119             	3.38458543e+02
120             	3.38551578e+02
121             	3.38669265e+02
122             	3.38836536e+02
123             	3.39007742e+02
124             	3.39187734e+02
125             	3.39380068e+02
126             	3.39561749e+02
127             	3.39734205e+02
128             	3.39847620e+02
129             	3.39909587e+02
130             	3.39910027e+02
131             	3.39906393e+02
132             	3.39966426e+02
133             	3.40027587e+02
134             	3.40105515e+02
135             	3.40215752e+02
136             	3.40364457e+02
137             	3.40541427e+02
138             	3.40738688e+02
139             	3.40948437e+02
140             	3.41149210e+02
141             	3.41344186e+02
142             	3.41503499e+02
143             	3.41677435e+02
144             	3.41833149e+02
145             	3.41958639e+02
146             	3.42038455e+02
147             	3.42095884e+02
148             	3.42131341e+02
149             	3.42142836e+02
150             	3.42137718e+02
151             	3.42192957e+02
152             	3.42282670e+02
153             	3.42398211e+02
154             	3.42492798e+02
155             	3.42630307e+02
156             	3.42739980e+02
157             	3.42824280e+02
158             	3.42916874e+02
159             	3.43002974e+02
160             	3.43050547e+02
161             	3.43071550e+02
162             	3.43090700e+02
163             	3.43106532e+02
164             	3.43103179e+02
165             	3.43081745e+02
166             	3.43052392e+02
167             	3.43048741e+02
168             	3.43060336e+02
169             	3.43101256e+02
170             	3.43155354e+02
171             	3.43219166e+02
172             	3.43287625e+02
173             	3.43336412e+02
174             	3.43389851e+02
175             	3.43437166e+02
176             	3.43475850e+02
177             	3.43493629e+02
178             	3.43488590e+02
179             	3.43483194e+02
180             	3.43509666e+02
181             	3.43569220e+02
182             	3.43644076e+02
183             	3.43735178e+02
184             	3.43817041e+02
185             	3.43910767e+02
186             	3.43969522e+02
187             	3.43998480e+02
188             	3.44009911e+02
189             	3.44002170e+02
190             	3.43983561e+02
191             	3.43974697e+02
192             	3.43971491e+02
193             	3.43976273e+02
194             	3.43993978e+02
195             	3.44020065e+02
196             	3.44053171e+02
197             	3.44077289e+02
198             	3.44117308e+02
199             	3.44159384e+02
200             	3.44186981e+02
201             	3.44198498e+02
202             	3.44196116e+02
203             	3.44181896e+02
204             	3.44174644e+02
205             	3.44186483e+02
206             	3.44217164e+02
207             	3.44259261e+02
208             	3.44309164e+02
209             	3.44366915e+02
210             	3.44403421e+02
211             	3.44446192e+02
212             	3.44491952e+02
213             	3.44509841e+02
214             	3.44525908e+02
215             	3.44544375e+02
216             	3.44539432e+02
217             	3.44536633e+02
218             	3.44539862e+02
219             	3.44543557e+02
220             	3.44542275e+02
221             	3.44540666e+02
222             	3.44545055e+02
223             	3.44552942e+02
224             	3.44557185e+02
225             	3.44567010e+02
226             	3.44583091e+02
227             	3.44604089e+02
228             	3.44625859e+02
229             	3.44649374e+02
230             	3.44656893e+02
231             	3.44675900e+02
232             	3.44703736e+02
233             	3.44715110e+02
234             	3.44730991e+02
235             	3.44749034e+02
236             	3.44743183e+02
237             	3.44738408e+02
238             	3.44737294e+02
239             	3.44735265e+02
240             	3.44731210e+02
241             	3.44726086e+02
242             	3.44721495e+02
243             	3.44718854e+02
244             	3.44720734e+02
245             	3.44729043e+02
246             	3.44742340e+02
247             	3.44756234e+02
248             	3.44771148e+02
249             	3.44787802e+02
250             	3.44806004e+02
251             	3.44829184e+02
252             	3.44829708e+02
253             	3.44840666e+02
254             	3.44862209e+02
255             	3.44867446e+02
256             	3.44876414e+02
257             	3.44897327e+02
258             	3.44892413e+02
259             	3.44889254e+02
260             	3.44890224e+02
261             	3.44889070e+02
262             	3.44889485e+02
263             	3.44893554e+02
264             	3.44898767e+02
265             	3.44901927e+02
266             	3.44904501e+02
267             	3.44910486e+02
268             	3.44919823e+02
269             	3.44931362e+02
270             	3.44945654e+02
271             	3.44938686e+02
272             	3.44942531e+02
273             	3.44955272e+02
274             	3.44969180e+02
275             	3.44977852e+02
276             	3.44980009e+02
277             	3.44982314e+02
278             	3.44988992e+02
279             	3.45002741e+02
280             	3.44996456e+02
281             	3.45001107e+02
282             	3.45017265e+02
283             	3.45037424e+02
284             	3.45033190e+02
285             	3.45035716e+02
286             	3.45048846e+02
287             	3.45048192e+02
288             	3.45055482e+02
289             	3.45069632e+02
290             	3.45064771e+02
291             	3.45064849e+02
292             	3.45071818e+02
293             	3.45082196e+02
294             	3.45067726e+02
295             	3.45061338e+02
296             	3.45066308e+02
297             	3.45076844e+02
298             	3.45066436e+02
299             	3.45064165e+02
300             	3.45071996e+02
301             	3.45083703e+02
302             	3.45073448e+02
303             	3.45071127e+02
304             	3.45078991e+02
305             	3.45091150e+02
306             	3.45082150e+02
307             	3.45081070e+02
308             	3.45090441e+02
309             	3.45106251e+02
310             	3.45094877e+02
311             	3.45089237e+02
312             	3.45092531e+02
313             	3.45099056e+02
314             	3.45104378e+02
315             	3.45103114e+02
316             	3.45102339e+02
317             	3.45105254e+02
318             	3.45110748e+02
319             	3.45093544e+02
320             	3.45087313e+02
321             	3.45093091e+02
322             	3.45103122e+02
323             	3.45091791e+02
324             	3.45087792e+02
325             	3.45093250e+02
326             	3.45102347e+02
327             	3.45089867e+02
328             	3.45084918e+02
329             	3.45089967e+02
330             	3.45099493e+02
331             	3.45087933e+02
332             	3.45084074e+02
333             	3.45090191e+02
334             	3.45100117e+02
335             	3.45088464e+02
336             	3.45084297e+02
337             	3.45089934e+02
338             	3.45098775e+02
339             	3.45105742e+02
340             	3.45110918e+02
341             	3.45114810e+02
342             	3.45117361e+02
343             	3.45119235e+02
344             	3.45121210e+02
345             	3.45123518e+02
346             	3.45126305e+02
347             	3.45129576e+02
348             	3.45133755e+02
349             	3.45138646e+02
350             	3.45120574e+02
351             	3.45113753e+02
352             	3.45119053e+02
353             	3.45128349e+02
354             	3.45137852e+02
355             	3.45121252e+02
356             	3.45113831e+02
357             	3.45118334e+02
358             	3.45127488e+02
359             	3.45115310e+02
360             	3.45110391e+02
361             	3.45114953e+02
362             	3.45123030e+02
363             	3.45131809e+02
364             	3.45115120e+02
365             	3.45107674e+02
366             	3.45111870e+02
367             	3.45120181e+02
368             	3.45127894e+02
369             	3.45111614e+02
370             	3.45104712e+02
371             	3.45109266e+02
372             	3.45118057e+02
373             	3.45127351e+02
374             	3.45111949e+02
375             	3.45105813e+02
376             	3.45111045e+02
377             	3.45120571e+02
378             	3.45131384e+02
379             	3.45116744e+02
380             	3.45111279e+02
381             	3.45117465e+02
382             	3.45127840e+02
383             	3.45116611e+02
384             	3.45112740e+02
385             	3.45118446e+02
386             	3.45127693e+02
387             	3.45115331e+02
388             	3.45110486e+02
389             	3.45115207e+02
390             	3.45122992e+02
391             	3.45130920e+02
392             	3.45133288e+02
393             	3.45135118e+02
394             	3.45138578e+02
395             	3.45142848e+02
396             	3.45147151e+02
397             	3.45151393e+02
398             	3.45156011e+02
399             	3.45137581e+02
400             	3.45130972e+02
401             	3.45136521e+02
402             	3.45146052e+02
403             	3.45134042e+02
404             	3.45129488e+02
405             	3.45134191e+02
406             	3.45141137e+02
407             	3.45146108e+02
408             	3.45150124e+02
409             	3.45153084e+02
410             	3.45155256e+02
411             	3.45156496e+02
412             	3.45158139e+02
413             	3.45159567e+02
414             	3.45160761e+02
415             	3.45163420e+02
416             	3.45168692e+02
417             	3.45151101e+02
418             	3.45144420e+02
419             	3.45149541e+02
420             	3.45158349e+02
421             	3.45167434e+02
422             	3.45150559e+02
423             	3.45142751e+02
424             	3.45146561e+02
425             	3.45154764e+02
426             	3.45163683e+02
427             	3.45146677e+02
428             	3.45138505e+02
429             	3.45142166e+02
430             	3.45149692e+02
431             	3.45156829e+02
432             	3.45139689e+02
433             	3.45131807e+02
434             	3.45135517e+02
435             	3.45143525e+02
436             	3.45151769e+02
437             	3.45135870e+02
438             	3.45129411e+02
439             	3.45134641e+02
440             	3.45144283e+02
441             	3.45154852e+02
442             	3.45139550e+02
443             	3.45133088e+02
444             	3.45138085e+02
445             	3.45147358e+02
446             	3.45157845e+02
447             	3.45142222e+02
448             	3.45135443e+02
449             	3.45140598e+02
450             	3.45150566e+02
451             	3.45139681e+02
452             	3.45136005e+02
453             	3.45141845e+02
454             	3.45151395e+02
455             	3.45139093e+02
456             	3.45133980e+02
457             	3.45138477e+02
458             	3.45146632e+02
459             	3.45155399e+02
460             	3.45138893e+02
461             	3.45131234e+02
462             	3.45135408e+02
463             	3.45144273e+02
464             	3.45154011e+02
465             	3.45138986e+02
466             	3.45133251e+02
467             	3.45139135e+02
468             	3.45150089e+02
469             	3.45139077e+02
470             	3.45135026e+02
471             	3.45140272e+02
472             	3.45149008e+02
473             	3.45136089e+02
474             	3.45130474e+02
475             	3.45134415e+02
476             	3.45142038e+02
477             	3.45150811e+02
478             	3.45135595e+02
479             	3.45129390e+02
480             	3.45135039e+02
481             	3.45145506e+02
482             	3.45134412e+02
483             	3.45130234e+02
484             	3.45135381e+02
485             	3.45144033e+02
486             	3.45131322e+02
487             	3.45125903e+02
488             	3.45129915e+02
489             	3.45137744e+02
490             	3.45146520e+02
491             	3.45131663e+02
492             	3.45125950e+02
493             	3.45132125e+02
494             	3.45142806e+02
495             	3.45132189e+02
496             	3.45128687e+02
497             	3.45134397e+02
498             	3.45143663e+02
499             	3.45131217e+02
500             	3.45125937e+02
501             	3.45129827e+02
502             	3.45137274e+02
503             	3.45145539e+02
504             	3.45130767e+02
505             	3.45125935e+02
506             	3.45132634e+02
507             	3.45144451e+02
508             	3.45134068e+02
509             	3.45130495e+02
510             	3.45136074e+02
511             	3.45144551e+02
512             	3.45131595e+02
513             	3.45125820e+02
514             	3.45129388e+02
515             	3.45137132e+02
516             	3.45146033e+02
517             	3.45131521e+02
518             	3.45126505e+02
519             	3.45133205e+02
520             	3.45145171e+02
521             	3.45134609e+02
522             	3.45130474e+02
523             	3.45135690e+02
524             	3.45144342e+02
525             	3.45131552e+02
526             	3.45125960e+02
527             	3.45129419e+02
528             	3.45135658e+02
529             	3.45142316e+02
530             	3.45150007e+02
531             	3.45134191e+02
532             	3.45128966e+02
533             	3.45136104e+02
534             	3.45149119e+02
535             	3.45138022e+02
536             	3.45132875e+02
537             	3.45136967e+02
538             	3.45145109e+02
539             	3.45131956e+02
540             	3.45126040e+02
541             	3.45129555e+02
542             	3.45137394e+02
543             	3.45146167e+02
544             	3.45153731e+02
545             	3.45137274e+02
546             	3.45131892e+02
547             	3.45139275e+02
548             	3.45152251e+02
549             	3.45141218e+02
550             	3.45136021e+02
551             	3.45139807e+02
552             	3.45147498e+02
553             	3.45153720e+02
554             	3.45155113e+02
555             	3.45154984e+02
556             	3.45156883e+02
557             	3.45160546e+02
558             	3.45164303e+02
559             	3.45168054e+02
560             	3.45173745e+02
561             	3.45157173e+02
562             	3.45152001e+02
563             	3.45158480e+02
564             	3.45167632e+02
565             	3.45174471e+02
566             	3.45176977e+02
567             	3.45174789e+02
568             	3.45170954e+02
569             	3.45170445e+02
570             	3.45173415e+02
571             	3.45177577e+02
572             	3.45182132e+02
573             	3.45187734e+02
574             	3.45171447e+02
575             	3.45166697e+02
576             	3.45174354e+02
577             	3.45188490e+02
578             	3.45175064e+02
579             	3.45165943e+02
580             	3.45166089e+02
581             	3.45170526e+02
582             	3.45173761e+02
583             	3.45173573e+02
584             	3.45174271e+02
585             	3.45178898e+02
586             	3.45165374e+02
587             	3.45163621e+02
588             	3.45173175e+02
589             	3.45185656e+02
590             	3.45173349e+02
591             	3.45166802e+02
592             	3.45168058e+02
593             	3.45171984e+02
594             	3.45175677e+02
595             	3.45179218e+02
596             	3.45180842e+02
597             	3.45161301e+02
598             	3.45153081e+02
599             	3.45156043e+02
600             	3.45163726e+02
601             	3.45173795e+02
602             	3.45160560e+02
603             	3.45156664e+02
604             	3.45163313e+02
605             	3.45174409e+02
606             	3.45165870e+02
607             	3.45165665e+02
608             	3.45173408e+02
609             	3.45182595e+02
610             	3.45168000e+02
611             	3.45160970e+02
612             	3.45163889e+02
613             	3.45168568e+02
614             	3.45174442e+02
615             	3.45175828e+02
616             	3.45178520e+02
617             	3.45182952e+02
618             	3.45187912e+02
619             	3.45194729e+02
620             	3.45178882e+02
621             	3.45174889e+02
