# Region        : cellZone component_1
# Cells         : 89
# Volume        : 1.36463278e-01
# Time          	volAverage(T)
1               	3.06275808e+02
2               	3.12419123e+02
3               	3.17445930e+02
4               	3.21723563e+02
5               	3.25804888e+02
6               	3.29853670e+02
7               	3.33788545e+02
8               	3.37558738e+02
9               	3.41232370e+02
10              	3.44625991e+02
11              	3.47679199e+02
12              	3.50509704e+02
13              	3.53009331e+02
14              	3.55343449e+02
15              	3.57531745e+02
16              	3.59699845e+02
17              	3.61911145e+02
18              	3.64049833e+02
19              	3.66047955e+02
20              	3.67981224e+02
21              	3.70077855e+02
22              	3.72245917e+02
23              	3.74377396e+02
24              	3.76519415e+02
25              	3.78639255e+02
26              	3.80770480e+02
27              	3.82867933e+02
28              	3.84929922e+02
29              	3.86881798e+02
30              	3.88777485e+02
31              	3.90556225e+02
32              	3.92209254e+02
33              	3.93665770e+02
34              	3.94929361e+02
35              	3.96091981e+02
36              	3.97021225e+02
37              	3.97886855e+02
38              	3.98830772e+02
39              	3.99909191e+02
40              	4.01036129e+02
41              	4.02243400e+02
42              	4.03189446e+02
43              	4.03697158e+02
44              	4.04362743e+02
45              	4.05089019e+02
46              	4.05563956e+02
47              	4.05874248e+02
48              	4.06148042e+02
49              	4.06412572e+02
50              	4.06743625e+02
51              	4.07111395e+02
52              	4.07447258e+02
53              	4.07880563e+02
54              	4.08338986e+02
55              	4.09048938e+02
56              	4.09821627e+02
57              	4.10545547e+02
58              	4.11005067e+02
59              	4.11245935e+02
60              	4.11353563e+02
61              	4.11665376e+02
62              	4.12021571e+02
63              	4.12476650e+02
64              	4.13057218e+02
65              	4.13679845e+02
66              	4.14112788e+02
67              	4.14438870e+02
68              	4.14530232e+02
69              	4.14840624e+02
70              	4.15202738e+02
71              	4.15506274e+02
72              	4.15654118e+02
73              	4.15643410e+02
74              	4.15240138e+02
75              	4.14908963e+02
76              	4.14759977e+02
77              	4.14857294e+02
78              	4.15057047e+02
79              	4.15133896e+02
80              	4.15223572e+02
81              	4.15388397e+02
82              	4.15412599e+02
83              	4.15565383e+02
84              	4.15686486e+02
85              	4.15658743e+02
86              	4.15804739e+02
87              	4.16155636e+02
88              	4.16739315e+02
89              	4.17256145e+02
90              	4.17765396e+02
91              	4.18135050e+02
92              	4.18493022e+02
93              	4.18854436e+02
94              	4.19208149e+02
95              	4.19528857e+02
96              	4.19841213e+02
97              	4.19822930e+02
98              	4.19712438e+02
99              	4.19590690e+02
100             	4.19525839e+02
101             	4.19414656e+02
102             	4.19321179e+02
103             	4.19212588e+02
104             	4.19214275e+02
105             	4.19153529e+02
106             	4.19170067e+02
107             	4.19152732e+02
108             	4.19126075e+02
109             	4.19113123e+02
110             	4.19229377e+02
111             	4.19164812e+02
112             	4.19102581e+02
113             	4.19143953e+02
114             	4.19254895e+02
115             	4.19335374e+02
116             	4.19377665e+02
117             	4.19002455e+02
118             	4.18599859e+02
119             	4.18635611e+02
120             	4.18802623e+02
121             	4.18796609e+02
122             	4.18556761e+02
123             	4.18381425e+02
124             	4.18271430e+02
125             	4.18271023e+02
126             	4.18312795e+02
127             	4.18190509e+02
128             	4.17858522e+02
129             	4.17607132e+02
130             	4.17691228e+02
131             	4.17436026e+02
132             	4.16627473e+02
133             	4.16065789e+02
134             	4.16215424e+02
135             	4.16540091e+02
136             	4.16865195e+02
137             	4.17129530e+02
138             	4.17395453e+02
139             	4.17478179e+02
140             	4.17343634e+02
141             	4.17304048e+02
142             	4.17096525e+02
143             	4.17028197e+02
144             	4.16976052e+02
145             	4.17078307e+02
146             	4.17297168e+02
147             	4.17604975e+02
148             	4.17925757e+02
149             	4.18382966e+02
150             	4.18827582e+02
151             	4.19263144e+02
152             	4.19665047e+02
153             	4.20017543e+02
154             	4.20333264e+02
155             	4.20614507e+02
156             	4.20751581e+02
157             	4.20799805e+02
158             	4.20841790e+02
159             	4.20930698e+02
160             	4.21025893e+02
161             	4.21147022e+02
162             	4.21309570e+02
163             	4.21552402e+02
164             	4.21940001e+02
165             	4.22524447e+02
166             	4.23203537e+02
167             	4.23844908e+02
168             	4.24391091e+02
169             	4.24820879e+02
170             	4.25144553e+02
171             	4.25419232e+02
172             	4.25619049e+02
173             	4.25694609e+02
174             	4.25716883e+02
175             	4.25688900e+02
176             	4.25655868e+02
177             	4.25607730e+02
178             	4.25521979e+02
179             	4.25450625e+02
180             	4.25340603e+02
181             	4.25243486e+02
182             	4.25159314e+02
183             	4.25117696e+02
184             	4.25136519e+02
185             	4.25216493e+02
186             	4.25320951e+02
187             	4.25508824e+02
188             	4.25824774e+02
189             	4.26246825e+02
190             	4.26724363e+02
191             	4.27240739e+02
192             	4.27768351e+02
193             	4.28263307e+02
194             	4.28705358e+02
195             	4.29087963e+02
196             	4.29404470e+02
197             	4.29567490e+02
198             	4.29719416e+02
199             	4.29861395e+02
200             	4.29887476e+02
201             	4.29813868e+02
202             	4.29529955e+02
203             	4.29254134e+02
204             	4.28936553e+02
205             	4.28724088e+02
206             	4.28482971e+02
207             	4.28272379e+02
208             	4.28089047e+02
209             	4.27952793e+02
210             	4.27851579e+02
211             	4.27783613e+02
212             	4.27697522e+02
213             	4.27681127e+02
214             	4.27633985e+02
215             	4.27671997e+02
216             	4.27759524e+02
217             	4.27879454e+02
218             	4.28064758e+02
219             	4.28161297e+02
220             	4.28275039e+02
221             	4.28455900e+02
222             	4.28715305e+02
223             	4.29036614e+02
224             	4.29350732e+02
225             	4.29548961e+02
226             	4.29755630e+02
227             	4.29937398e+02
228             	4.30074636e+02
229             	4.30118994e+02
230             	4.30097942e+02
231             	4.30208841e+02
232             	4.30361337e+02
233             	4.30384407e+02
234             	4.30380397e+02
235             	4.30295177e+02
236             	4.30216760e+02
237             	4.30124857e+02
238             	4.29988900e+02
239             	4.29842115e+02
240             	4.29682398e+02
241             	4.29515858e+02
242             	4.29321596e+02
243             	4.29162711e+02
244             	4.28990991e+02
245             	4.28872592e+02
246             	4.28768518e+02
247             	4.28745432e+02
248             	4.28796063e+02
249             	4.28877679e+02
250             	4.28986787e+02
251             	4.29094043e+02
252             	4.29168726e+02
253             	4.29173887e+02
254             	4.29117545e+02
255             	4.28994393e+02
256             	4.28847242e+02
257             	4.28706552e+02
258             	4.28567029e+02
259             	4.28423548e+02
260             	4.28286732e+02
261             	4.28202632e+02
262             	4.28160611e+02
263             	4.28152193e+02
264             	4.28193992e+02
265             	4.28276587e+02
266             	4.28389474e+02
267             	4.28521864e+02
268             	4.28669081e+02
269             	4.28830847e+02
270             	4.28966962e+02
271             	4.29115891e+02
272             	4.29277221e+02
273             	4.29431567e+02
274             	4.29564979e+02
275             	4.29664536e+02
276             	4.29714578e+02
277             	4.29699159e+02
278             	4.29644047e+02
279             	4.29537155e+02
280             	4.29397347e+02
281             	4.29237541e+02
282             	4.29078192e+02
283             	4.28906158e+02
284             	4.28763270e+02
285             	4.28689570e+02
286             	4.28663251e+02
287             	4.28687748e+02
288             	4.28761051e+02
289             	4.28850080e+02
290             	4.29003021e+02
291             	4.29197840e+02
292             	4.29390604e+02
293             	4.29581862e+02
294             	4.29759062e+02
295             	4.29910920e+02
296             	4.30053555e+02
297             	4.30188336e+02
298             	4.30301170e+02
299             	4.30351919e+02
300             	4.30363476e+02
301             	4.30362267e+02
302             	4.30347938e+02
303             	4.30343597e+02
304             	4.30336541e+02
305             	4.30340222e+02
306             	4.30331525e+02
307             	4.30307628e+02
308             	4.30277663e+02
309             	4.30252600e+02
310             	4.30229844e+02
311             	4.30222059e+02
312             	4.30237706e+02
313             	4.30275887e+02
314             	4.30314916e+02
315             	4.30349658e+02
316             	4.30388230e+02
317             	4.30424720e+02
318             	4.30443451e+02
319             	4.30439782e+02
320             	4.30409354e+02
321             	4.30356964e+02
322             	4.30297140e+02
323             	4.30248162e+02
324             	4.30200244e+02
325             	4.30150109e+02
326             	4.30125728e+02
327             	4.30149439e+02
328             	4.30215894e+02
329             	4.30305158e+02
330             	4.30405934e+02
331             	4.30515222e+02
332             	4.30630878e+02
333             	4.30754271e+02
334             	4.30872641e+02
335             	4.30979907e+02
336             	4.31087297e+02
337             	4.31176906e+02
338             	4.31246362e+02
339             	4.31290434e+02
340             	4.31331587e+02
341             	4.31350491e+02
342             	4.31370502e+02
343             	4.31385303e+02
344             	4.31410884e+02
345             	4.31445412e+02
346             	4.31486667e+02
347             	4.31538416e+02
348             	4.31602782e+02
349             	4.31675397e+02
350             	4.31752967e+02
351             	4.31831257e+02
352             	4.31911549e+02
353             	4.32004869e+02
354             	4.32105647e+02
355             	4.32204721e+02
356             	4.32305041e+02
357             	4.32395021e+02
358             	4.32472742e+02
359             	4.32532044e+02
360             	4.32572269e+02
361             	4.32600963e+02
362             	4.32621945e+02
363             	4.32618797e+02
364             	4.32587974e+02
365             	4.32532569e+02
366             	4.32463523e+02
367             	4.32406953e+02
368             	4.32365561e+02
369             	4.32335792e+02
370             	4.32322807e+02
371             	4.32325905e+02
372             	4.32338925e+02
373             	4.32348224e+02
374             	4.32356551e+02
375             	4.32366787e+02
376             	4.32361267e+02
377             	4.32355172e+02
378             	4.32364071e+02
379             	4.32388015e+02
380             	4.32417947e+02
381             	4.32456256e+02
382             	4.32503176e+02
383             	4.32552424e+02
384             	4.32609132e+02
385             	4.32663321e+02
386             	4.32719561e+02
387             	4.32770842e+02
388             	4.32814825e+02
389             	4.32854173e+02
390             	4.32887128e+02
391             	4.32901483e+02
392             	4.32895332e+02
393             	4.32867993e+02
394             	4.32823166e+02
395             	4.32766190e+02
396             	4.32699888e+02
397             	4.32629118e+02
398             	4.32555598e+02
399             	4.32485618e+02
400             	4.32419755e+02
401             	4.32351617e+02
402             	4.32276876e+02
403             	4.32218160e+02
404             	4.32184834e+02
405             	4.32163343e+02
406             	4.32145774e+02
407             	4.32139077e+02
408             	4.32146556e+02
409             	4.32165728e+02
410             	4.32190936e+02
411             	4.32212343e+02
412             	4.32234834e+02
413             	4.32256177e+02
414             	4.32279169e+02
415             	4.32305314e+02
416             	4.32318677e+02
417             	4.32315321e+02
418             	4.32300761e+02
419             	4.32277258e+02
420             	4.32246073e+02
421             	4.32217002e+02
422             	4.32192331e+02
423             	4.32169489e+02
424             	4.32146570e+02
425             	4.32124005e+02
426             	4.32110175e+02
427             	4.32116229e+02
428             	4.32142921e+02
429             	4.32184876e+02
430             	4.32232615e+02
431             	4.32272120e+02
432             	4.32306349e+02
433             	4.32347762e+02
434             	4.32398174e+02
435             	4.32440047e+02
436             	4.32474193e+02
437             	4.32509184e+02
438             	4.32547788e+02
439             	4.32580942e+02
440             	4.32605622e+02
441             	4.32625614e+02
442             	4.32648911e+02
443             	4.32675801e+02
444             	4.32696074e+02
445             	4.32707647e+02
446             	4.32716348e+02
447             	4.32726892e+02
448             	4.32746616e+02
449             	4.32764827e+02
450             	4.32778409e+02
451             	4.32793169e+02
452             	4.32810298e+02
453             	4.32827416e+02
454             	4.32850523e+02
455             	4.32872675e+02
456             	4.32902108e+02
457             	4.32940462e+02
458             	4.32976640e+02
459             	4.32998922e+02
460             	4.33016730e+02
461             	4.33034530e+02
462             	4.33048321e+02
463             	4.33063975e+02
464             	4.33067606e+02
465             	4.33069460e+02
466             	4.33071400e+02
467             	4.33076109e+02
468             	4.33081660e+02
469             	4.33085553e+02
470             	4.33086629e+02
471             	4.33084550e+02
472             	4.33080062e+02
473             	4.33081650e+02
474             	4.33080965e+02
475             	4.33075397e+02
476             	4.33064128e+02
477             	4.33050454e+02
478             	4.33044003e+02
479             	4.33037726e+02
480             	4.33027353e+02
481             	4.33016651e+02
482             	4.33008950e+02
483             	4.33002420e+02
484             	4.32997739e+02
485             	4.32996500e+02
486             	4.33001641e+02
487             	4.33007564e+02
488             	4.33012290e+02
489             	4.33018150e+02
490             	4.33032529e+02
491             	4.33048325e+02
492             	4.33067023e+02
493             	4.33096947e+02
494             	4.33130279e+02
495             	4.33162975e+02
496             	4.33193475e+02
497             	4.33223052e+02
498             	4.33239352e+02
499             	4.33245804e+02
500             	4.33256949e+02
501             	4.33258628e+02
502             	4.33249344e+02
503             	4.33227329e+02
504             	4.33194144e+02
505             	4.33156781e+02
506             	4.33117455e+02
507             	4.33079675e+02
508             	4.33041149e+02
509             	4.32995790e+02
510             	4.32950757e+02
511             	4.32915957e+02
512             	4.32898412e+02
513             	4.32885104e+02
514             	4.32852022e+02
515             	4.32819113e+02
516             	4.32808964e+02
517             	4.32816961e+02
518             	4.32834170e+02
519             	4.32848967e+02
520             	4.32872152e+02
521             	4.32909117e+02
522             	4.32949871e+02
523             	4.32994310e+02
524             	4.33043933e+02
525             	4.33084992e+02
526             	4.33111139e+02
527             	4.33118457e+02
528             	4.33115570e+02
529             	4.33102774e+02
530             	4.33076408e+02
531             	4.33045847e+02
532             	4.33021071e+02
533             	4.33008630e+02
534             	4.33007721e+02
535             	4.33017740e+02
536             	4.33038508e+02
537             	4.33067297e+02
538             	4.33098689e+02
539             	4.33138134e+02
540             	4.33178851e+02
541             	4.33207610e+02
542             	4.33241728e+02
543             	4.33279780e+02
544             	4.33307901e+02
545             	4.33330104e+02
546             	4.33356542e+02
547             	4.33378057e+02
548             	4.33388279e+02
549             	4.33384770e+02
550             	4.33368733e+02
551             	4.33348643e+02
552             	4.33330869e+02
553             	4.33310510e+02
554             	4.33287809e+02
555             	4.33259203e+02
556             	4.33227273e+02
557             	4.33197716e+02
558             	4.33175079e+02
559             	4.33156312e+02
560             	4.33148372e+02
561             	4.33142074e+02
562             	4.33136158e+02
563             	4.33132943e+02
564             	4.33129298e+02
565             	4.33129469e+02
566             	4.33133039e+02
567             	4.33129072e+02
568             	4.33129773e+02
569             	4.33138720e+02
570             	4.33155235e+02
571             	4.33178615e+02
572             	4.33205925e+02
573             	4.33237450e+02
574             	4.33272253e+02
575             	4.33309062e+02
576             	4.33352743e+02
577             	4.33393528e+02
578             	4.33429284e+02
579             	4.33451441e+02
580             	4.33458547e+02
581             	4.33452102e+02
582             	4.33434144e+02
583             	4.33411213e+02
584             	4.33384788e+02
585             	4.33359299e+02
586             	4.33340675e+02
587             	4.33328404e+02
588             	4.33320247e+02
589             	4.33319931e+02
590             	4.33325732e+02
591             	4.33336065e+02
592             	4.33351514e+02
593             	4.33372535e+02
594             	4.33395169e+02
595             	4.33415321e+02
596             	4.33443547e+02
597             	4.33467836e+02
598             	4.33480989e+02
599             	4.33481331e+02
600             	4.33471575e+02
601             	4.33452424e+02
602             	4.33426891e+02
603             	4.33393342e+02
604             	4.33354907e+02
605             	4.33312917e+02
606             	4.33272533e+02
607             	4.33236357e+02
608             	4.33203102e+02
609             	4.33176709e+02
610             	4.33159799e+02
611             	4.33152963e+02
612             	4.33153366e+02
613             	4.33159578e+02
614             	4.33172366e+02
615             	4.33193452e+02
616             	4.33219875e+02
617             	4.33248419e+02
618             	4.33278960e+02
619             	4.33309791e+02
620             	4.33337773e+02
621             	4.33359881e+02
