# Region        : cellZone component_0
# Cells         : 156
# Volume        : 2.95345310e-01
# Time          	volAverage(T)
1               	3.00910285e+02
2               	3.01805875e+02
3               	3.02554211e+02
4               	3.03204835e+02
5               	3.03837388e+02
6               	3.04472020e+02
7               	3.05099519e+02
8               	3.05712654e+02
9               	3.06314159e+02
10              	3.06901919e+02
11              	3.07460861e+02
12              	3.08010792e+02
13              	3.08537745e+02
14              	3.09044150e+02
15              	3.09528985e+02
16              	3.09994135e+02
17              	3.10444430e+02
18              	3.10884324e+02
19              	3.11334963e+02
20              	3.11787201e+02
21              	3.12228012e+02
22              	3.12661554e+02
23              	3.13089530e+02
24              	3.13487521e+02
25              	3.13869672e+02
26              	3.14241900e+02
27              	3.14610305e+02
28              	3.14982031e+02
29              	3.15345946e+02
30              	3.15672072e+02
31              	3.15929020e+02
32              	3.16100145e+02
33              	3.16255107e+02
34              	3.16456984e+02
35              	3.16695632e+02
36              	3.16948463e+02
37              	3.17203426e+02
38              	3.17465704e+02
39              	3.17728611e+02
40              	3.17983304e+02
41              	3.18249002e+02
42              	3.18526353e+02
43              	3.18805201e+02
44              	3.19084223e+02
45              	3.19341024e+02
46              	3.19566758e+02
47              	3.19757403e+02
48              	3.19899097e+02
49              	3.20007811e+02
50              	3.20116370e+02
51              	3.20231941e+02
52              	3.20386566e+02
53              	3.20563509e+02
54              	3.20743825e+02
55              	3.20921787e+02
56              	3.21096408e+02
57              	3.21266142e+02
58              	3.21431236e+02
59              	3.21594359e+02
60              	3.21754631e+02
61              	3.21907084e+02
62              	3.22046578e+02
63              	3.22194168e+02
64              	3.22337963e+02
65              	3.22471841e+02
66              	3.22598667e+02
67              	3.22724563e+02
68              	3.22845856e+02
69              	3.22976571e+02
70              	3.23093722e+02
71              	3.23209974e+02
72              	3.23330894e+02
73              	3.23449967e+02
74              	3.23563251e+02
75              	3.23672630e+02
76              	3.23781518e+02
77              	3.23887460e+02
78              	3.23988764e+02
79              	3.24092102e+02
80              	3.24193835e+02
81              	3.24302445e+02
82              	3.24413322e+02
83              	3.24526218e+02
84              	3.24632847e+02
85              	3.24739343e+02
86              	3.24839291e+02
87              	3.24941042e+02
88              	3.25044076e+02
89              	3.25144325e+02
90              	3.25241605e+02
91              	3.25330911e+02
92              	3.25414609e+02
93              	3.25495510e+02
94              	3.25577258e+02
95              	3.25659240e+02
96              	3.25740157e+02
97              	3.25822199e+02
98              	3.25905244e+02
99              	3.25986210e+02
100             	3.26067710e+02
101             	3.26146297e+02
102             	3.26220939e+02
103             	3.26300685e+02
104             	3.26377608e+02
105             	3.26448243e+02
106             	3.26515538e+02
107             	3.26585689e+02
108             	3.26658184e+02
109             	3.26722461e+02
110             	3.26777994e+02
111             	3.26835994e+02
112             	3.26888617e+02
113             	3.26941795e+02
114             	3.26997218e+02
115             	3.27053640e+02
116             	3.27112009e+02
117             	3.27174077e+02
118             	3.27231048e+02
119             	3.27289078e+02
120             	3.27349771e+02
121             	3.27409470e+02
122             	3.27469959e+02
123             	3.27519028e+02
124             	3.27559477e+02
125             	3.27601368e+02
126             	3.27640974e+02
127             	3.27678410e+02
128             	3.27715495e+02
129             	3.27752873e+02
130             	3.27789808e+02
131             	3.27826338e+02
132             	3.27859206e+02
133             	3.27888755e+02
134             	3.27919840e+02
135             	3.27952438e+02
136             	3.27985146e+02
137             	3.28017783e+02
138             	3.28049270e+02
139             	3.28080780e+02
140             	3.28112958e+02
141             	3.28143797e+02
142             	3.28164191e+02
143             	3.28188842e+02
144             	3.28218166e+02
145             	3.28250262e+02
146             	3.28281903e+02
147             	3.28314323e+02
148             	3.28348585e+02
149             	3.28383094e+02
150             	3.28415958e+02
151             	3.28444936e+02
152             	3.28473793e+02
153             	3.28500775e+02
154             	3.28524826e+02
155             	3.28547275e+02
156             	3.28562886e+02
157             	3.28581140e+02
158             	3.28602936e+02
159             	3.28625354e+02
160             	3.28649812e+02
161             	3.28675338e+02
162             	3.28702669e+02
163             	3.28729902e+02
164             	3.28754708e+02
165             	3.28777967e+02
166             	3.28801169e+02
167             	3.28825279e+02
168             	3.28848207e+02
169             	3.28861536e+02
170             	3.28881466e+02
171             	3.28901997e+02
172             	3.28923323e+02
173             	3.28941524e+02
174             	3.28956742e+02
175             	3.28969732e+02
176             	3.28983392e+02
177             	3.28992543e+02
178             	3.29002948e+02
179             	3.29015019e+02
180             	3.29024325e+02
181             	3.29036832e+02
182             	3.29048418e+02
183             	3.29061288e+02
184             	3.29074205e+02
185             	3.29086340e+02
186             	3.29095737e+02
187             	3.29103712e+02
188             	3.29116931e+02
189             	3.29125564e+02
190             	3.29136701e+02
191             	3.29148106e+02
192             	3.29161541e+02
193             	3.29173482e+02
194             	3.29187699e+02
195             	3.29203280e+02
196             	3.29217593e+02
197             	3.29230763e+02
198             	3.29242801e+02
199             	3.29254068e+02
200             	3.29263170e+02
201             	3.29270929e+02
202             	3.29277911e+02
203             	3.29284713e+02
204             	3.29291059e+02
205             	3.29297457e+02
206             	3.29305211e+02
207             	3.29313766e+02
208             	3.29322948e+02
209             	3.29330078e+02
210             	3.29335349e+02
211             	3.29340354e+02
212             	3.29345177e+02
213             	3.29349359e+02
214             	3.29353618e+02
215             	3.29357791e+02
216             	3.29361854e+02
217             	3.29366111e+02
218             	3.29371459e+02
219             	3.29377148e+02
220             	3.29382906e+02
221             	3.29388745e+02
222             	3.29394827e+02
223             	3.29401471e+02
224             	3.29407922e+02
225             	3.29414790e+02
226             	3.29420516e+02
227             	3.29426037e+02
228             	3.29431083e+02
229             	3.29438991e+02
230             	3.29442698e+02
231             	3.29445237e+02
232             	3.29448833e+02
233             	3.29453381e+02
234             	3.29456746e+02
235             	3.29461175e+02
236             	3.29465855e+02
237             	3.29470313e+02
238             	3.29474870e+02
239             	3.29478854e+02
240             	3.29481499e+02
241             	3.29484918e+02
242             	3.29486303e+02
243             	3.29489035e+02
244             	3.29492321e+02
245             	3.29495339e+02
246             	3.29497906e+02
247             	3.29500257e+02
248             	3.29502673e+02
249             	3.29505002e+02
250             	3.29507117e+02
251             	3.29509294e+02
252             	3.29509601e+02
253             	3.29509455e+02
254             	3.29509882e+02
255             	3.29511233e+02
256             	3.29512738e+02
257             	3.29514018e+02
258             	3.29515233e+02
259             	3.29516335e+02
260             	3.29517949e+02
261             	3.29520083e+02
262             	3.29522266e+02
263             	3.29524799e+02
264             	3.29527344e+02
265             	3.29530006e+02
266             	3.29532722e+02
267             	3.29534951e+02
268             	3.29537463e+02
269             	3.29539783e+02
270             	3.29541611e+02
271             	3.29545570e+02
272             	3.29546331e+02
273             	3.29546280e+02
274             	3.29547223e+02
275             	3.29548899e+02
276             	3.29550677e+02
277             	3.29551830e+02
278             	3.29553110e+02
279             	3.29554880e+02
280             	3.29558015e+02
281             	3.29561196e+02
282             	3.29563506e+02
283             	3.29565370e+02
284             	3.29567171e+02
285             	3.29568652e+02
286             	3.29570321e+02
287             	3.29571880e+02
288             	3.29573386e+02
289             	3.29575184e+02
290             	3.29577140e+02
291             	3.29579176e+02
292             	3.29581318e+02
293             	3.29582989e+02
294             	3.29584634e+02
295             	3.29586965e+02
296             	3.29588966e+02
297             	3.29590244e+02
298             	3.29591113e+02
299             	3.29591759e+02
300             	3.29592352e+02
301             	3.29593096e+02
302             	3.29593494e+02
303             	3.29593708e+02
304             	3.29594353e+02
305             	3.29592439e+02
306             	3.29591487e+02
307             	3.29591628e+02
308             	3.29592501e+02
309             	3.29593331e+02
310             	3.29593639e+02
311             	3.29593136e+02
312             	3.29592232e+02
313             	3.29591212e+02
314             	3.29590596e+02
315             	3.29590561e+02
316             	3.29590626e+02
317             	3.29590512e+02
318             	3.29590500e+02
319             	3.29590649e+02
320             	3.29591368e+02
321             	3.29592307e+02
322             	3.29593309e+02
323             	3.29594527e+02
324             	3.29595929e+02
325             	3.29597105e+02
326             	3.29598302e+02
327             	3.29599616e+02
328             	3.29600925e+02
329             	3.29602249e+02
330             	3.29603519e+02
331             	3.29604851e+02
332             	3.29605959e+02
333             	3.29607475e+02
334             	3.29609007e+02
335             	3.29610199e+02
336             	3.29611070e+02
337             	3.29612257e+02
338             	3.29613949e+02
339             	3.29614383e+02
340             	3.29613705e+02
341             	3.29613303e+02
342             	3.29613414e+02
343             	3.29613398e+02
344             	3.29613123e+02
345             	3.29612787e+02
346             	3.29611637e+02
347             	3.29610764e+02
348             	3.29611351e+02
349             	3.29611849e+02
350             	3.29613213e+02
351             	3.29612402e+02
352             	3.29611185e+02
353             	3.29610648e+02
354             	3.29610537e+02
355             	3.29610268e+02
356             	3.29609777e+02
357             	3.29608979e+02
358             	3.29607863e+02
359             	3.29607480e+02
360             	3.29607358e+02
361             	3.29606141e+02
362             	3.29605069e+02
363             	3.29603177e+02
364             	3.29602210e+02
365             	3.29603067e+02
366             	3.29604021e+02
367             	3.29604691e+02
368             	3.29605153e+02
369             	3.29605128e+02
370             	3.29604662e+02
371             	3.29604092e+02
372             	3.29603668e+02
373             	3.29603687e+02
374             	3.29604136e+02
375             	3.29604458e+02
376             	3.29604997e+02
377             	3.29605533e+02
378             	3.29605853e+02
379             	3.29606279e+02
380             	3.29606644e+02
381             	3.29607424e+02
382             	3.29608226e+02
383             	3.29609287e+02
384             	3.29610448e+02
385             	3.29611426e+02
386             	3.29612071e+02
387             	3.29612221e+02
388             	3.29612431e+02
389             	3.29613077e+02
390             	3.29613509e+02
391             	3.29613409e+02
392             	3.29613179e+02
393             	3.29613005e+02
394             	3.29612858e+02
395             	3.29612663e+02
396             	3.29612454e+02
397             	3.29612248e+02
398             	3.29612024e+02
399             	3.29611877e+02
400             	3.29611487e+02
401             	3.29611216e+02
402             	3.29610969e+02
403             	3.29610687e+02
404             	3.29610346e+02
405             	3.29609955e+02
406             	3.29610042e+02
407             	3.29609433e+02
408             	3.29608489e+02
409             	3.29607851e+02
410             	3.29607464e+02
411             	3.29607642e+02
412             	3.29607881e+02
413             	3.29607990e+02
414             	3.29608164e+02
415             	3.29608434e+02
416             	3.29608840e+02
417             	3.29609316e+02
418             	3.29609783e+02
419             	3.29610191e+02
420             	3.29610547e+02
421             	3.29610860e+02
422             	3.29611152e+02
423             	3.29611410e+02
424             	3.29611637e+02
425             	3.29611863e+02
426             	3.29612104e+02
427             	3.29612299e+02
428             	3.29612608e+02
429             	3.29612912e+02
430             	3.29613202e+02
431             	3.29613463e+02
432             	3.29613621e+02
433             	3.29613619e+02
434             	3.29613857e+02
435             	3.29613544e+02
436             	3.29613008e+02
437             	3.29612580e+02
438             	3.29612253e+02
439             	3.29611882e+02
440             	3.29611486e+02
441             	3.29611119e+02
442             	3.29610817e+02
443             	3.29610544e+02
444             	3.29610327e+02
445             	3.29610230e+02
446             	3.29610027e+02
447             	3.29609993e+02
448             	3.29610063e+02
449             	3.29610027e+02
450             	3.29609794e+02
451             	3.29609361e+02
452             	3.29609290e+02
453             	3.29609372e+02
454             	3.29609337e+02
455             	3.29609217e+02
456             	3.29609084e+02
457             	3.29609106e+02
458             	3.29609193e+02
459             	3.29609274e+02
460             	3.29609499e+02
461             	3.29609829e+02
462             	3.29609821e+02
463             	3.29609693e+02
464             	3.29609584e+02
465             	3.29609453e+02
466             	3.29609372e+02
467             	3.29609093e+02
468             	3.29608791e+02
469             	3.29608487e+02
470             	3.29608215e+02
471             	3.29607979e+02
472             	3.29607730e+02
473             	3.29607491e+02
474             	3.29607296e+02
475             	3.29607194e+02
476             	3.29607218e+02
477             	3.29607281e+02
478             	3.29607275e+02
479             	3.29607176e+02
480             	3.29607026e+02
481             	3.29606840e+02
482             	3.29606671e+02
483             	3.29606646e+02
484             	3.29606714e+02
485             	3.29606772e+02
486             	3.29606841e+02
487             	3.29606990e+02
488             	3.29607231e+02
489             	3.29607527e+02
490             	3.29607813e+02
491             	3.29608017e+02
492             	3.29608272e+02
493             	3.29608496e+02
494             	3.29608631e+02
495             	3.29608716e+02
496             	3.29608986e+02
497             	3.29608905e+02
498             	3.29608689e+02
499             	3.29608574e+02
500             	3.29608544e+02
501             	3.29608478e+02
502             	3.29608442e+02
503             	3.29608404e+02
504             	3.29608337e+02
505             	3.29608218e+02
506             	3.29608228e+02
507             	3.29608205e+02
508             	3.29608099e+02
509             	3.29607997e+02
510             	3.29607946e+02
511             	3.29607894e+02
512             	3.29607795e+02
513             	3.29607663e+02
514             	3.29607526e+02
515             	3.29607380e+02
516             	3.29607221e+02
517             	3.29607054e+02
518             	3.29606861e+02
519             	3.29606649e+02
520             	3.29606428e+02
521             	3.29606211e+02
522             	3.29605980e+02
523             	3.29605716e+02
524             	3.29605477e+02
525             	3.29605168e+02
526             	3.29604846e+02
527             	3.29604527e+02
528             	3.29604199e+02
529             	3.29603870e+02
530             	3.29603572e+02
531             	3.29603276e+02
532             	3.29602996e+02
533             	3.29602754e+02
534             	3.29602547e+02
535             	3.29602393e+02
536             	3.29602267e+02
537             	3.29602150e+02
538             	3.29602047e+02
539             	3.29601923e+02
540             	3.29601813e+02
541             	3.29601695e+02
542             	3.29601599e+02
543             	3.29601506e+02
544             	3.29601439e+02
545             	3.29601404e+02
546             	3.29601385e+02
547             	3.29601403e+02
548             	3.29601462e+02
549             	3.29601562e+02
550             	3.29601700e+02
551             	3.29601913e+02
552             	3.29602174e+02
553             	3.29602425e+02
554             	3.29602710e+02
555             	3.29603013e+02
556             	3.29603314e+02
557             	3.29603602e+02
558             	3.29603880e+02
559             	3.29604150e+02
560             	3.29604368e+02
561             	3.29604585e+02
562             	3.29604805e+02
563             	3.29604993e+02
564             	3.29605124e+02
565             	3.29605224e+02
566             	3.29605313e+02
567             	3.29605361e+02
568             	3.29605364e+02
569             	3.29605236e+02
570             	3.29605049e+02
571             	3.29604865e+02
572             	3.29604669e+02
573             	3.29604478e+02
574             	3.29604228e+02
575             	3.29603891e+02
576             	3.29603549e+02
577             	3.29603247e+02
578             	3.29602970e+02
579             	3.29602689e+02
580             	3.29602401e+02
581             	3.29602116e+02
582             	3.29601981e+02
583             	3.29601908e+02
584             	3.29601806e+02
585             	3.29601644e+02
586             	3.29601459e+02
587             	3.29601277e+02
588             	3.29601126e+02
589             	3.29601061e+02
590             	3.29601067e+02
591             	3.29601201e+02
592             	3.29601403e+02
593             	3.29601475e+02
594             	3.29601702e+02
595             	3.29602002e+02
596             	3.29602276e+02
597             	3.29602506e+02
598             	3.29602715e+02
599             	3.29602918e+02
600             	3.29603153e+02
601             	3.29603347e+02
602             	3.29603457e+02
603             	3.29603586e+02
604             	3.29603740e+02
605             	3.29603904e+02
606             	3.29603897e+02
607             	3.29604068e+02
608             	3.29604322e+02
609             	3.29604454e+02
610             	3.29604419e+02
611             	3.29604219e+02
612             	3.29604021e+02
613             	3.29603876e+02
614             	3.29603722e+02
615             	3.29603540e+02
616             	3.29603342e+02
617             	3.29603127e+02
618             	3.29602927e+02
619             	3.29602725e+02
620             	3.29602529e+02
621             	3.29602205e+02
