# Region        : cellZone component_1
# Cells         : 24
# Volume        : 3.55002933e-02
# Time          	volAverage(T)
1               	3.03329691e+02
2               	3.06583316e+02
3               	3.09166102e+02
4               	3.11335428e+02
5               	3.13372926e+02
6               	3.15347302e+02
7               	3.17219570e+02
8               	3.18985411e+02
9               	3.20653964e+02
10              	3.22296197e+02
11              	3.23812623e+02
12              	3.25097780e+02
13              	3.26080778e+02
14              	3.26839295e+02
15              	3.27554529e+02
16              	3.28321248e+02
17              	3.29161028e+02
18              	3.30054060e+02
19              	3.30929254e+02
20              	3.31754449e+02
21              	3.32531413e+02
22              	3.33253987e+02
23              	3.33772498e+02
24              	3.34141127e+02
25              	3.34449557e+02
26              	3.34815368e+02
27              	3.35195715e+02
28              	3.35623003e+02
29              	3.36106177e+02
30              	3.36620972e+02
31              	3.37031211e+02
32              	3.37222659e+02
33              	3.37430489e+02
34              	3.37655485e+02
35              	3.37928538e+02
36              	3.38223727e+02
37              	3.38550167e+02
38              	3.38941271e+02
39              	3.39387184e+02
40              	3.39878184e+02
41              	3.40248277e+02
42              	3.40583098e+02
43              	3.40930767e+02
44              	3.41258181e+02
45              	3.41523792e+02
46              	3.41753189e+02
47              	3.41956206e+02
48              	3.42176266e+02
49              	3.42409371e+02
50              	3.42708139e+02
51              	3.43039862e+02
52              	3.43297951e+02
53              	3.43514028e+02
54              	3.43704472e+02
55              	3.43881436e+02
56              	3.43997592e+02
57              	3.44106940e+02
58              	3.44244285e+02
59              	3.44404010e+02
60              	3.44634899e+02
61              	3.44924228e+02
62              	3.45136487e+02
63              	3.45414392e+02
64              	3.45607905e+02
65              	3.45827119e+02
66              	3.46052554e+02
67              	3.46226517e+02
68              	3.46402847e+02
69              	3.46518188e+02
70              	3.46598470e+02
71              	3.46633747e+02
72              	3.46697732e+02
73              	3.46724602e+02
74              	3.46753892e+02
75              	3.46843808e+02
76              	3.46973792e+02
77              	3.47098426e+02
78              	3.47241310e+02
79              	3.47389684e+02
80              	3.47533523e+02
81              	3.47640060e+02
82              	3.47705909e+02
83              	3.47755431e+02
84              	3.47806286e+02
85              	3.47852529e+02
86              	3.47915772e+02
87              	3.48016989e+02
88              	3.48149104e+02
89              	3.48149266e+02
90              	3.48195950e+02
91              	3.48243523e+02
92              	3.48281485e+02
93              	3.48302798e+02
94              	3.48300427e+02
95              	3.48230933e+02
96              	3.48174498e+02
97              	3.48139390e+02
98              	3.48130281e+02
99              	3.48131895e+02
100             	3.48133144e+02
101             	3.48115807e+02
102             	3.48125773e+02
103             	3.48158821e+02
104             	3.48197040e+02
105             	3.48258555e+02
106             	3.48203718e+02
107             	3.48170038e+02
108             	3.48174519e+02
109             	3.48249733e+02
110             	3.48233363e+02
111             	3.48299227e+02
112             	3.48313826e+02
113             	3.48393378e+02
114             	3.48501338e+02
115             	3.48508072e+02
116             	3.48541477e+02
117             	3.48607184e+02
118             	3.48692556e+02
119             	3.48770044e+02
120             	3.48858963e+02
121             	3.48967490e+02
122             	3.49070127e+02
123             	3.49187665e+02
124             	3.49320818e+02
125             	3.49488403e+02
126             	3.49535206e+02
127             	3.49612739e+02
128             	3.49709780e+02
129             	3.49809859e+02
130             	3.49865652e+02
131             	3.49896376e+02
132             	3.49967123e+02
133             	3.50104477e+02
134             	3.50123655e+02
135             	3.50198623e+02
136             	3.50244794e+02
137             	3.50347264e+02
138             	3.50366057e+02
139             	3.50446409e+02
140             	3.50435400e+02
141             	3.50465718e+02
142             	3.50499519e+02
143             	3.50533350e+02
144             	3.50569581e+02
145             	3.50597981e+02
146             	3.50587166e+02
147             	3.50593829e+02
148             	3.50617563e+02
149             	3.50641459e+02
150             	3.50659400e+02
151             	3.50694690e+02
152             	3.50642885e+02
153             	3.50659583e+02
154             	3.50727682e+02
155             	3.50696540e+02
156             	3.50718627e+02
157             	3.50688841e+02
158             	3.50724806e+02
159             	3.50700184e+02
160             	3.50732458e+02
161             	3.50708672e+02
162             	3.50747077e+02
163             	3.50714459e+02
164             	3.50722501e+02
165             	3.50751015e+02
166             	3.50788759e+02
167             	3.50831500e+02
168             	3.50827518e+02
169             	3.50799073e+02
170             	3.50759338e+02
171             	3.50750278e+02
172             	3.50760722e+02
173             	3.50806969e+02
174             	3.50737393e+02
175             	3.50742313e+02
176             	3.50821588e+02
177             	3.50793525e+02
178             	3.50844642e+02
179             	3.50801394e+02
180             	3.50810676e+02
181             	3.50846712e+02
182             	3.50788264e+02
183             	3.50776233e+02
184             	3.50782083e+02
185             	3.50678944e+02
186             	3.50605252e+02
187             	3.50481776e+02
188             	3.50341160e+02
189             	3.50283703e+02
190             	3.50272520e+02
191             	3.50278745e+02
192             	3.50296765e+02
193             	3.50225228e+02
194             	3.50229031e+02
195             	3.50290973e+02
196             	3.50247049e+02
197             	3.50261626e+02
198             	3.50306310e+02
199             	3.50272324e+02
200             	3.50289604e+02
201             	3.50341874e+02
202             	3.50395531e+02
203             	3.50320489e+02
204             	3.50283637e+02
205             	3.50271141e+02
206             	3.50251500e+02
207             	3.50228173e+02
208             	3.50197423e+02
209             	3.50179062e+02
210             	3.50102320e+02
211             	3.50075417e+02
212             	3.50094084e+02
213             	3.50147195e+02
214             	3.50104106e+02
215             	3.50138446e+02
216             	3.50108494e+02
217             	3.50142996e+02
218             	3.50104541e+02
219             	3.50100599e+02
220             	3.50115471e+02
221             	3.50133366e+02
222             	3.50127404e+02
223             	3.50108691e+02
224             	3.50070443e+02
225             	3.49924398e+02
226             	3.49853479e+02
227             	3.49848859e+02
228             	3.49860908e+02
229             	3.49899110e+02
230             	3.49828873e+02
231             	3.49811406e+02
232             	3.49823863e+02
233             	3.49860133e+02
234             	3.49764174e+02
235             	3.49719270e+02
236             	3.49721971e+02
237             	3.49728094e+02
238             	3.49691059e+02
239             	3.49667090e+02
240             	3.49682713e+02
241             	3.49705843e+02
242             	3.49719123e+02
243             	3.49618091e+02
244             	3.49572053e+02
245             	3.49578742e+02
246             	3.49557207e+02
247             	3.49452714e+02
248             	3.49401262e+02
249             	3.49371799e+02
250             	3.49326919e+02
251             	3.49321909e+02
252             	3.49335450e+02
253             	3.49351379e+02
254             	3.49372481e+02
255             	3.49406944e+02
256             	3.49446930e+02
257             	3.49512571e+02
258             	3.49485718e+02
259             	3.49542358e+02
260             	3.49540915e+02
261             	3.49611350e+02
262             	3.49617524e+02
263             	3.49662879e+02
264             	3.49644424e+02
265             	3.49670209e+02
266             	3.49712894e+02
267             	3.49665962e+02
268             	3.49640152e+02
269             	3.49605645e+02
270             	3.49561540e+02
271             	3.49535945e+02
272             	3.49538070e+02
273             	3.49554707e+02
274             	3.49601056e+02
275             	3.49569214e+02
276             	3.49586989e+02
277             	3.49572929e+02
278             	3.49635552e+02
279             	3.49632058e+02
280             	3.49684686e+02
281             	3.49773881e+02
282             	3.49745269e+02
283             	3.49767202e+02
284             	3.49826928e+02
285             	3.49903767e+02
286             	3.49943589e+02
287             	3.49943375e+02
288             	3.49932443e+02
289             	3.49899738e+02
290             	3.49866128e+02
291             	3.49792106e+02
292             	3.49774991e+02
293             	3.49801885e+02
294             	3.49855071e+02
295             	3.49820943e+02
296             	3.49848620e+02
297             	3.49834019e+02
298             	3.49888311e+02
299             	3.49863788e+02
300             	3.49896609e+02
301             	3.49973106e+02
302             	3.49952602e+02
303             	3.49975347e+02
304             	3.50023794e+02
305             	3.50071263e+02
306             	3.50008149e+02
307             	3.49982226e+02
308             	3.49975524e+02
309             	3.49951116e+02
310             	3.49962760e+02
311             	3.50013130e+02
312             	3.49970688e+02
313             	3.49993437e+02
314             	3.50055266e+02
315             	3.50049873e+02
316             	3.50107945e+02
317             	3.50064093e+02
318             	3.50067081e+02
319             	3.50100420e+02
320             	3.50044957e+02
321             	3.50025386e+02
322             	3.50008458e+02
323             	3.49966018e+02
324             	3.49897239e+02
325             	3.49869270e+02
326             	3.49877693e+02
327             	3.49902521e+02
328             	3.49938169e+02
329             	3.49864324e+02
330             	3.49859946e+02
331             	3.49909785e+02
332             	3.49852639e+02
333             	3.49854688e+02
334             	3.49883217e+02
335             	3.49917453e+02
336             	3.49948149e+02
337             	3.49952434e+02
338             	3.49928917e+02
339             	3.49884099e+02
340             	3.49810854e+02
341             	3.49761779e+02
342             	3.49656347e+02
343             	3.49620047e+02
344             	3.49639962e+02
345             	3.49679648e+02
346             	3.49668511e+02
347             	3.49716021e+02
348             	3.49704618e+02
349             	3.49760629e+02
350             	3.49740819e+02
351             	3.49765168e+02
352             	3.49814461e+02
353             	3.49876221e+02
354             	3.49929345e+02
355             	3.49953348e+02
356             	3.49967066e+02
357             	3.49979764e+02
358             	3.49976875e+02
359             	3.50009407e+02
360             	3.49981033e+02
361             	3.50000956e+02
362             	3.50062956e+02
363             	3.50031910e+02
364             	3.50064288e+02
365             	3.50156108e+02
366             	3.50153000e+02
367             	3.50207364e+02
368             	3.50294235e+02
369             	3.50260791e+02
370             	3.50277153e+02
371             	3.50245573e+02
372             	3.50263679e+02
373             	3.50295508e+02
374             	3.50230807e+02
375             	3.50211996e+02
376             	3.50188841e+02
377             	3.50098992e+02
378             	3.50069764e+02
379             	3.50082666e+02
380             	3.50107389e+02
381             	3.50142699e+02
382             	3.50081994e+02
383             	3.50088504e+02
384             	3.50156627e+02
385             	3.50110564e+02
386             	3.50128676e+02
387             	3.50203677e+02
388             	3.50167342e+02
389             	3.50179749e+02
390             	3.50225118e+02
391             	3.50285643e+02
392             	3.50223220e+02
393             	3.50206405e+02
394             	3.50226612e+02
395             	3.50236851e+02
396             	3.50220371e+02
397             	3.50196182e+02
398             	3.50167889e+02
399             	3.50140190e+02
400             	3.50124429e+02
401             	3.50126395e+02
402             	3.50142575e+02
403             	3.50079006e+02
404             	3.50086620e+02
405             	3.50052228e+02
406             	3.50091679e+02
407             	3.50190371e+02
408             	3.50172190e+02
409             	3.50238150e+02
410             	3.50195200e+02
411             	3.50186322e+02
412             	3.50197169e+02
413             	3.50217142e+02
414             	3.50231673e+02
415             	3.50224983e+02
416             	3.50175186e+02
417             	3.50043435e+02
418             	3.49974957e+02
419             	3.49961637e+02
420             	3.49958803e+02
421             	3.49973616e+02
422             	3.49933858e+02
423             	3.49955905e+02
424             	3.49904948e+02
425             	3.49914863e+02
426             	3.49950172e+02
427             	3.49889695e+02
428             	3.49882334e+02
429             	3.49911798e+02
430             	3.49943583e+02
431             	3.49953050e+02
432             	3.49943443e+02
433             	3.49974954e+02
434             	3.49903049e+02
435             	3.49875894e+02
436             	3.49880623e+02
437             	3.49804810e+02
438             	3.49783079e+02
439             	3.49777387e+02
440             	3.49775357e+02
441             	3.49769546e+02
442             	3.49808049e+02
443             	3.49760763e+02
444             	3.49759544e+02
445             	3.49768985e+02
446             	3.49807270e+02
447             	3.49776367e+02
448             	3.49803504e+02
449             	3.49859421e+02
450             	3.49891384e+02
451             	3.49818186e+02
452             	3.49800692e+02
453             	3.49800615e+02
454             	3.49780360e+02
455             	3.49743122e+02
456             	3.49748516e+02
457             	3.49772092e+02
458             	3.49798068e+02
459             	3.49831959e+02
460             	3.49768812e+02
461             	3.49774518e+02
462             	3.49830806e+02
463             	3.49780381e+02
464             	3.49788371e+02
465             	3.49838219e+02
466             	3.49787469e+02
467             	3.49778419e+02
468             	3.49793337e+02
469             	3.49815966e+02
470             	3.49817055e+02
471             	3.49776112e+02
472             	3.49699938e+02
473             	3.49656922e+02
474             	3.49654262e+02
475             	3.49672943e+02
476             	3.49712323e+02
477             	3.49766333e+02
478             	3.49822793e+02
479             	3.49892360e+02
480             	3.49818673e+02
481             	3.49811426e+02
482             	3.49854418e+02
483             	3.49801849e+02
484             	3.49789384e+02
485             	3.49798927e+02
486             	3.49803952e+02
487             	3.49815523e+02
488             	3.49813593e+02
489             	3.49756570e+02
490             	3.49712689e+02
491             	3.49703948e+02
492             	3.49714327e+02
493             	3.49733179e+02
494             	3.49762549e+02
495             	3.49817953e+02
496             	3.49777369e+02
497             	3.49803575e+02
498             	3.49862833e+02
499             	3.49945444e+02
500             	3.49937128e+02
501             	3.50006526e+02
502             	3.49993260e+02
503             	3.50038350e+02
504             	3.50016893e+02
505             	3.50038256e+02
506             	3.50082706e+02
507             	3.50137851e+02
508             	3.50180976e+02
509             	3.50184532e+02
510             	3.50172642e+02
511             	3.50154816e+02
512             	3.50147580e+02
513             	3.50072580e+02
514             	3.50062121e+02
515             	3.50111544e+02
516             	3.50071944e+02
517             	3.50096543e+02
518             	3.50066701e+02
519             	3.50103526e+02
520             	3.50070284e+02
521             	3.50085859e+02
522             	3.50137296e+02
523             	3.50172875e+02
524             	3.50180623e+02
525             	3.50175379e+02
526             	3.50180188e+02
527             	3.50104010e+02
528             	3.50075801e+02
529             	3.50074398e+02
530             	3.50103499e+02
531             	3.50006312e+02
532             	3.49962168e+02
533             	3.49979383e+02
534             	3.49978209e+02
535             	3.49951329e+02
536             	3.49940157e+02
537             	3.49936534e+02
538             	3.49916203e+02
539             	3.49907419e+02
540             	3.49925531e+02
541             	3.49948723e+02
542             	3.49882240e+02
543             	3.49878737e+02
544             	3.49934879e+02
545             	3.49884252e+02
546             	3.49896103e+02
547             	3.49983142e+02
548             	3.49948643e+02
549             	3.49971376e+02
550             	3.50043568e+02
551             	3.50014242e+02
552             	3.50035786e+02
553             	3.50003313e+02
554             	3.50012837e+02
555             	3.50042757e+02
556             	3.50082293e+02
557             	3.50125938e+02
558             	3.50166364e+02
559             	3.50197086e+02
560             	3.50274785e+02
561             	3.50241086e+02
562             	3.50262618e+02
563             	3.50342558e+02
564             	3.50323084e+02
565             	3.50366168e+02
566             	3.50362904e+02
567             	3.50420113e+02
568             	3.50408946e+02
569             	3.50455033e+02
570             	3.50506667e+02
571             	3.50558703e+02
572             	3.50503090e+02
573             	3.50485886e+02
574             	3.50470498e+02
575             	3.50487526e+02
576             	3.50487064e+02
577             	3.50529085e+02
578             	3.50445421e+02
579             	3.50417243e+02
580             	3.50439158e+02
581             	3.50362277e+02
582             	3.50351636e+02
583             	3.50300657e+02
584             	3.50309983e+02
585             	3.50359895e+02
586             	3.50303098e+02
587             	3.50294283e+02
588             	3.50318814e+02
589             	3.50355355e+02
590             	3.50375016e+02
591             	3.50391616e+02
592             	3.50395313e+02
593             	3.50314256e+02
594             	3.50297663e+02
595             	3.50331998e+02
596             	3.50283225e+02
597             	3.50295026e+02
598             	3.50260618e+02
599             	3.50284580e+02
600             	3.50356008e+02
601             	3.50321853e+02
602             	3.50334732e+02
603             	3.50389005e+02
604             	3.50349573e+02
605             	3.50357240e+02
606             	3.50399311e+02
607             	3.50358780e+02
608             	3.50366251e+02
609             	3.50407240e+02
610             	3.50361071e+02
611             	3.50364393e+02
612             	3.50411185e+02
613             	3.50472269e+02
614             	3.50493934e+02
615             	3.50434126e+02
616             	3.50438017e+02
617             	3.50483682e+02
618             	3.50442374e+02
619             	3.50451320e+02
620             	3.50407545e+02
621             	3.50415522e+02
