# Region        : cellZone component_0
# Cells         : 55
# Volume        : 9.97696378e-02
# Time          	volAverage(T)
1               	3.03236286e+02
2               	3.06427358e+02
3               	3.09436342e+02
4               	3.12356360e+02
5               	3.15236509e+02
6               	3.18096149e+02
7               	3.20945118e+02
8               	3.23804754e+02
9               	3.26656011e+02
10              	3.29504779e+02
11              	3.32311245e+02
12              	3.35073091e+02
13              	3.37787724e+02
14              	3.40462777e+02
15              	3.43117102e+02
16              	3.45801809e+02
17              	3.48497168e+02
18              	3.51182995e+02
19              	3.53852162e+02
20              	3.56518496e+02
21              	3.59169112e+02
22              	3.61826234e+02
23              	3.64457618e+02
24              	3.67055233e+02
25              	3.69630944e+02
26              	3.72176772e+02
27              	3.74713704e+02
28              	3.77267582e+02
29              	3.79812131e+02
30              	3.82338871e+02
31              	3.84844252e+02
32              	3.87351289e+02
33              	3.89856374e+02
34              	3.92373274e+02
35              	3.94867310e+02
36              	3.97320084e+02
37              	3.99753139e+02
38              	4.02172288e+02
39              	4.04581085e+02
40              	4.06972316e+02
41              	4.09341295e+02
42              	4.11680457e+02
43              	4.14000846e+02
44              	4.16286737e+02
45              	4.18558208e+02
46              	4.20823518e+02
47              	4.23081234e+02
48              	4.25322497e+02
49              	4.27525634e+02
50              	4.29701153e+02
51              	4.31878198e+02
52              	4.34048150e+02
53              	4.36179751e+02
54              	4.38285906e+02
55              	4.40380264e+02
56              	4.42444956e+02
57              	4.44471960e+02
58              	4.46477516e+02
59              	4.48433808e+02
60              	4.50349183e+02
61              	4.52241317e+02
62              	4.54112769e+02
63              	4.55972372e+02
64              	4.57840007e+02
65              	4.59708577e+02
66              	4.61550195e+02
67              	4.63373402e+02
68              	4.65157032e+02
69              	4.66927592e+02
70              	4.68601508e+02
71              	4.70234434e+02
72              	4.71848952e+02
73              	4.73455329e+02
74              	4.75032099e+02
75              	4.76584497e+02
76              	4.78151321e+02
77              	4.79732865e+02
78              	4.81330665e+02
79              	4.82876667e+02
80              	4.84329624e+02
81              	4.85776047e+02
82              	4.87172207e+02
83              	4.88564577e+02
84              	4.89924363e+02
85              	4.91256949e+02
86              	4.92595131e+02
87              	4.93920981e+02
88              	4.95256181e+02
89              	4.96606855e+02
90              	4.97911025e+02
91              	4.99234113e+02
92              	5.00541811e+02
93              	5.01850837e+02
94              	5.03088155e+02
95              	5.04314563e+02
96              	5.05539277e+02
97              	5.06738949e+02
98              	5.07941614e+02
99              	5.09143147e+02
100             	5.10312246e+02
101             	5.11491222e+02
102             	5.12665799e+02
103             	5.13821482e+02
104             	5.14969277e+02
105             	5.16130535e+02
106             	5.17289508e+02
107             	5.18432952e+02
108             	5.19553945e+02
109             	5.20639906e+02
110             	5.21708434e+02
111             	5.22757271e+02
112             	5.23782490e+02
113             	5.24782364e+02
114             	5.25781684e+02
115             	5.26758112e+02
116             	5.27721629e+02
117             	5.28686665e+02
118             	5.29654318e+02
119             	5.30613978e+02
120             	5.31570573e+02
121             	5.32523032e+02
122             	5.33469987e+02
123             	5.34408120e+02
124             	5.35333566e+02
125             	5.36229607e+02
126             	5.37124279e+02
127             	5.38008872e+02
128             	5.38882860e+02
129             	5.39744588e+02
130             	5.40601382e+02
131             	5.41450018e+02
132             	5.42290673e+02
133             	5.43131212e+02
134             	5.43959031e+02
135             	5.44780314e+02
136             	5.45604344e+02
137             	5.46417286e+02
138             	5.47221626e+02
139             	5.48014412e+02
140             	5.48793273e+02
141             	5.49568175e+02
142             	5.50336196e+02
143             	5.51093992e+02
144             	5.51837826e+02
145             	5.52570603e+02
146             	5.53295917e+02
147             	5.54013452e+02
148             	5.54723576e+02
149             	5.55428973e+02
150             	5.56129847e+02
151             	5.56825977e+02
152             	5.57520090e+02
153             	5.58208529e+02
154             	5.58892802e+02
155             	5.59571085e+02
156             	5.60242428e+02
157             	5.60906749e+02
158             	5.61568014e+02
159             	5.62221898e+02
160             	5.62865408e+02
161             	5.63501738e+02
162             	5.64132156e+02
163             	5.64756654e+02
164             	5.65373721e+02
165             	5.65983232e+02
166             	5.66584592e+02
167             	5.67183463e+02
168             	5.67776886e+02
169             	5.68362434e+02
170             	5.68942997e+02
171             	5.69516578e+02
172             	5.70087393e+02
173             	5.70652200e+02
174             	5.71212575e+02
175             	5.71768842e+02
176             	5.72320821e+02
177             	5.72867948e+02
178             	5.73412065e+02
179             	5.73951947e+02
180             	5.74487000e+02
181             	5.75016957e+02
182             	5.75541613e+02
183             	5.76058849e+02
184             	5.76571579e+02
185             	5.77078888e+02
186             	5.77580492e+02
187             	5.78076601e+02
188             	5.78565827e+02
189             	5.79041620e+02
190             	5.79497612e+02
191             	5.79934006e+02
192             	5.80349710e+02
193             	5.80748021e+02
194             	5.81123782e+02
195             	5.81482527e+02
196             	5.81820975e+02
197             	5.82141825e+02
198             	5.82449766e+02
199             	5.82744197e+02
200             	5.83025230e+02
201             	5.83291901e+02
202             	5.83546608e+02
203             	5.83787695e+02
204             	5.84016355e+02
205             	5.84234360e+02
206             	5.84440971e+02
207             	5.84636450e+02
208             	5.84821995e+02
209             	5.84997466e+02
210             	5.85162572e+02
211             	5.85317320e+02
212             	5.85463224e+02
213             	5.85601215e+02
214             	5.85732116e+02
215             	5.85856046e+02
216             	5.85973490e+02
217             	5.86084811e+02
218             	5.86189832e+02
219             	5.86289129e+02
220             	5.86383318e+02
221             	5.86476492e+02
222             	5.86562824e+02
223             	5.86644663e+02
224             	5.86723472e+02
225             	5.86799432e+02
226             	5.86872656e+02
227             	5.86944450e+02
228             	5.87013293e+02
229             	5.87077645e+02
230             	5.87134742e+02
231             	5.87189489e+02
232             	5.87240136e+02
233             	5.87286702e+02
234             	5.87329661e+02
235             	5.87370580e+02
236             	5.87407979e+02
237             	5.87443281e+02
238             	5.87477353e+02
239             	5.87511399e+02
240             	5.87548561e+02
241             	5.87581789e+02
242             	5.87614647e+02
243             	5.87650048e+02
244             	5.87685106e+02
245             	5.87717811e+02
246             	5.87746667e+02
247             	5.87772601e+02
248             	5.87799647e+02
249             	5.87825058e+02
250             	5.87848002e+02
251             	5.87868795e+02
252             	5.87887744e+02
253             	5.87904730e+02
254             	5.87920428e+02
255             	5.87935159e+02
256             	5.87949598e+02
257             	5.87963767e+02
258             	5.87977537e+02
259             	5.87990931e+02
260             	5.88004568e+02
261             	5.88018365e+02
262             	5.88032024e+02
263             	5.88045521e+02
264             	5.88058033e+02
265             	5.88069084e+02
266             	5.88081585e+02
267             	5.88095316e+02
268             	5.88108139e+02
269             	5.88120508e+02
270             	5.88132786e+02
271             	5.88144979e+02
272             	5.88157288e+02
273             	5.88172927e+02
274             	5.88186074e+02
275             	5.88198993e+02
276             	5.88212606e+02
277             	5.88228670e+02
278             	5.88244141e+02
279             	5.88259925e+02
280             	5.88276212e+02
281             	5.88292436e+02
282             	5.88305691e+02
283             	5.88319021e+02
284             	5.88332610e+02
285             	5.88345133e+02
286             	5.88356310e+02
287             	5.88366379e+02
288             	5.88375689e+02
289             	5.88384673e+02
290             	5.88393733e+02
291             	5.88403869e+02
292             	5.88413692e+02
293             	5.88423175e+02
294             	5.88432573e+02
295             	5.88441767e+02
296             	5.88448856e+02
297             	5.88457164e+02
298             	5.88465557e+02
299             	5.88471232e+02
300             	5.88478240e+02
301             	5.88486408e+02
302             	5.88494997e+02
303             	5.88501727e+02
304             	5.88508442e+02
305             	5.88515773e+02
306             	5.88523577e+02
307             	5.88531558e+02
308             	5.88539787e+02
309             	5.88551050e+02
310             	5.88559997e+02
311             	5.88568376e+02
312             	5.88577167e+02
313             	5.88584002e+02
314             	5.88588436e+02
315             	5.88591736e+02
316             	5.88597482e+02
317             	5.88603342e+02
318             	5.88609053e+02
319             	5.88620768e+02
320             	5.88638165e+02
321             	5.88650871e+02
322             	5.88659018e+02
323             	5.88675554e+02
324             	5.88695667e+02
325             	5.88714599e+02
326             	5.88729920e+02
327             	5.88739976e+02
328             	5.88744726e+02
329             	5.88751909e+02
330             	5.88758139e+02
331             	5.88764425e+02
332             	5.88773298e+02
333             	5.88779451e+02
334             	5.88787092e+02
335             	5.88797798e+02
336             	5.88812353e+02
337             	5.88834563e+02
338             	5.88856944e+02
339             	5.88875895e+02
340             	5.88889524e+02
341             	5.88906905e+02
342             	5.88915088e+02
343             	5.88928009e+02
344             	5.88940219e+02
345             	5.88941583e+02
346             	5.88944212e+02
347             	5.88946848e+02
348             	5.88949140e+02
349             	5.88957577e+02
350             	5.88966244e+02
351             	5.88974153e+02
352             	5.88984826e+02
353             	5.89000574e+02
354             	5.89019671e+02
355             	5.89034144e+02
356             	5.89049382e+02
357             	5.89068132e+02
358             	5.89085857e+02
359             	5.89101046e+02
360             	5.89114934e+02
361             	5.89127271e+02
362             	5.89136362e+02
363             	5.89147004e+02
364             	5.89156331e+02
365             	5.89163114e+02
366             	5.89172653e+02
367             	5.89185598e+02
368             	5.89199612e+02
369             	5.89213134e+02
370             	5.89230884e+02
371             	5.89241394e+02
372             	5.89255358e+02
373             	5.89268375e+02
374             	5.89281113e+02
375             	5.89292698e+02
376             	5.89302554e+02
377             	5.89311972e+02
378             	5.89324337e+02
379             	5.89339624e+02
380             	5.89359303e+02
381             	5.89377834e+02
382             	5.89400008e+02
383             	5.89424649e+02
384             	5.89450127e+02
385             	5.89473701e+02
386             	5.89496936e+02
387             	5.89517271e+02
388             	5.89529260e+02
389             	5.89541324e+02
390             	5.89550754e+02
391             	5.89559624e+02
392             	5.89566745e+02
393             	5.89573051e+02
394             	5.89582945e+02
395             	5.89591750e+02
396             	5.89601368e+02
397             	5.89611909e+02
398             	5.89623328e+02
399             	5.89635300e+02
400             	5.89649589e+02
401             	5.89664150e+02
402             	5.89681958e+02
403             	5.89696162e+02
404             	5.89709380e+02
405             	5.89725851e+02
406             	5.89744898e+02
407             	5.89761394e+02
408             	5.89778048e+02
409             	5.89793513e+02
410             	5.89808045e+02
411             	5.89821487e+02
412             	5.89835531e+02
413             	5.89848246e+02
414             	5.89859735e+02
415             	5.89869798e+02
416             	5.89879624e+02
417             	5.89890510e+02
418             	5.89902180e+02
419             	5.89915216e+02
420             	5.89928526e+02
421             	5.89943029e+02
422             	5.89958788e+02
423             	5.89974586e+02
424             	5.89990662e+02
425             	5.90006950e+02
426             	5.90023556e+02
427             	5.90039840e+02
428             	5.90055305e+02
429             	5.90070961e+02
430             	5.90086439e+02
431             	5.90103094e+02
432             	5.90118225e+02
433             	5.90133275e+02
434             	5.90149050e+02
435             	5.90165698e+02
436             	5.90183421e+02
437             	5.90201992e+02
438             	5.90219935e+02
439             	5.90237429e+02
440             	5.90254000e+02
441             	5.90270098e+02
442             	5.90286139e+02
443             	5.90302894e+02
444             	5.90317858e+02
445             	5.90332396e+02
446             	5.90346886e+02
447             	5.90361105e+02
448             	5.90376001e+02
449             	5.90390658e+02
450             	5.90404979e+02
451             	5.90418903e+02
452             	5.90430599e+02
453             	5.90442224e+02
454             	5.90453529e+02
455             	5.90463928e+02
456             	5.90475460e+02
457             	5.90488592e+02
458             	5.90499562e+02
459             	5.90510550e+02
460             	5.90522621e+02
461             	5.90535705e+02
462             	5.90549433e+02
463             	5.90563564e+02
464             	5.90577581e+02
465             	5.90591521e+02
466             	5.90605057e+02
467             	5.90618229e+02
468             	5.90631340e+02
469             	5.90644594e+02
470             	5.90657721e+02
471             	5.90670700e+02
472             	5.90680996e+02
473             	5.90693032e+02
474             	5.90708685e+02
475             	5.90722683e+02
476             	5.90736436e+02
477             	5.90750967e+02
478             	5.90765984e+02
479             	5.90780767e+02
480             	5.90796978e+02
481             	5.90813016e+02
482             	5.90828800e+02
483             	5.90844420e+02
484             	5.90860422e+02
485             	5.90877319e+02
486             	5.90892095e+02
487             	5.90906128e+02
488             	5.90920123e+02
489             	5.90934051e+02
490             	5.90945843e+02
491             	5.90956393e+02
492             	5.90967925e+02
493             	5.90979347e+02
494             	5.90990678e+02
495             	5.91002232e+02
496             	5.91014208e+02
497             	5.91026458e+02
498             	5.91039173e+02
499             	5.91052597e+02
500             	5.91066506e+02
501             	5.91080485e+02
502             	5.91094362e+02
503             	5.91108437e+02
504             	5.91123009e+02
505             	5.91136811e+02
506             	5.91150034e+02
507             	5.91162813e+02
508             	5.91175306e+02
509             	5.91187488e+02
510             	5.91199484e+02
511             	5.91211484e+02
512             	5.91223536e+02
513             	5.91235332e+02
514             	5.91246657e+02
515             	5.91258088e+02
516             	5.91269341e+02
517             	5.91280611e+02
518             	5.91291953e+02
519             	5.91302641e+02
520             	5.91313853e+02
521             	5.91325276e+02
522             	5.91336685e+02
523             	5.91348244e+02
524             	5.91360164e+02
525             	5.91373348e+02
526             	5.91386874e+02
527             	5.91400479e+02
528             	5.91414482e+02
529             	5.91428743e+02
530             	5.91443176e+02
531             	5.91457856e+02
532             	5.91472826e+02
533             	5.91487870e+02
534             	5.91502717e+02
535             	5.91517407e+02
536             	5.91532033e+02
537             	5.91546689e+02
538             	5.91561311e+02
539             	5.91575683e+02
540             	5.91589744e+02
541             	5.91603470e+02
542             	5.91616796e+02
543             	5.91629575e+02
544             	5.91641816e+02
545             	5.91653448e+02
546             	5.91664600e+02
547             	5.91675310e+02
548             	5.91685019e+02
549             	5.91695115e+02
550             	5.91705199e+02
551             	5.91715194e+02
552             	5.91725159e+02
553             	5.91735190e+02
554             	5.91745325e+02
555             	5.91755591e+02
556             	5.91765999e+02
557             	5.91776582e+02
558             	5.91787360e+02
559             	5.91798333e+02
560             	5.91809488e+02
561             	5.91821230e+02
562             	5.91832763e+02
563             	5.91844305e+02
564             	5.91856220e+02
565             	5.91868388e+02
566             	5.91880615e+02
567             	5.91892841e+02
568             	5.91905059e+02
569             	5.91917279e+02
570             	5.91929461e+02
571             	5.91941628e+02
572             	5.91953050e+02
573             	5.91965152e+02
574             	5.91977500e+02
575             	5.91989779e+02
576             	5.92002052e+02
577             	5.92012834e+02
578             	5.92023179e+02
579             	5.92034301e+02
580             	5.92045304e+02
581             	5.92055572e+02
582             	5.92065118e+02
583             	5.92074024e+02
584             	5.92082568e+02
585             	5.92090985e+02
586             	5.92099456e+02
587             	5.92107959e+02
588             	5.92116312e+02
589             	5.92124851e+02
590             	5.92133076e+02
591             	5.92141225e+02
592             	5.92147909e+02
593             	5.92155283e+02
594             	5.92162749e+02
595             	5.92170012e+02
596             	5.92176965e+02
597             	5.92183707e+02
598             	5.92190285e+02
599             	5.92196724e+02
600             	5.92203151e+02
601             	5.92209674e+02
602             	5.92216426e+02
603             	5.92223484e+02
604             	5.92230859e+02
605             	5.92238583e+02
606             	5.92246601e+02
607             	5.92254918e+02
608             	5.92263482e+02
609             	5.92272310e+02
610             	5.92281442e+02
611             	5.92290879e+02
612             	5.92300550e+02
613             	5.92310381e+02
614             	5.92320323e+02
615             	5.92330413e+02
616             	5.92340554e+02
617             	5.92350587e+02
618             	5.92360453e+02
619             	5.92370201e+02
620             	5.92378800e+02
621             	5.92387909e+02
