# Region        : cellZone component_1
# Cells         : 72
# Volume        : 1.18656479e-01
# Time          	volAverage(T)
1               	3.02413329e+02
2               	3.04775903e+02
3               	3.06651896e+02
4               	3.08223820e+02
5               	3.09729505e+02
6               	3.11201786e+02
7               	3.12613679e+02
8               	3.13963706e+02
9               	3.15271437e+02
10              	3.16495202e+02
11              	3.17619361e+02
12              	3.18743243e+02
13              	3.19800049e+02
14              	3.20865766e+02
15              	3.21900798e+02
16              	3.22835145e+02
17              	3.23760766e+02
18              	3.24695179e+02
19              	3.25660416e+02
20              	3.26642145e+02
21              	3.27623597e+02
22              	3.28555808e+02
23              	3.29432454e+02
24              	3.30270881e+02
25              	3.31053716e+02
26              	3.31775673e+02
27              	3.32439085e+02
28              	3.33076992e+02
29              	3.33657329e+02
30              	3.34214980e+02
31              	3.34730608e+02
32              	3.35193432e+02
33              	3.35607695e+02
34              	3.35981787e+02
35              	3.36318936e+02
36              	3.36618670e+02
37              	3.36889463e+02
38              	3.37132219e+02
39              	3.37351721e+02
40              	3.37571084e+02
41              	3.37816395e+02
42              	3.38092940e+02
43              	3.38343507e+02
44              	3.38497048e+02
45              	3.38678439e+02
46              	3.38870235e+02
47              	3.39047101e+02
48              	3.39202597e+02
49              	3.39362736e+02
50              	3.39550687e+02
51              	3.39780476e+02
52              	3.40003971e+02
53              	3.40227888e+02
54              	3.40460267e+02
55              	3.40720989e+02
56              	3.40977619e+02
57              	3.41234792e+02
58              	3.41426717e+02
59              	3.41610004e+02
60              	3.41782161e+02
61              	3.41955042e+02
62              	3.42111089e+02
63              	3.42242110e+02
64              	3.42354231e+02
65              	3.42456777e+02
66              	3.42562628e+02
67              	3.42686576e+02
68              	3.42806402e+02
69              	3.42955280e+02
70              	3.43112167e+02
71              	3.43238240e+02
72              	3.43381255e+02
73              	3.43540403e+02
74              	3.43709783e+02
75              	3.43869736e+02
76              	3.44020632e+02
77              	3.44181382e+02
78              	3.44345139e+02
79              	3.44504032e+02
80              	3.44671841e+02
81              	3.44854029e+02
82              	3.45040783e+02
83              	3.45240669e+02
84              	3.45442354e+02
85              	3.45628927e+02
86              	3.45802960e+02
87              	3.45971824e+02
88              	3.46132311e+02
89              	3.46281774e+02
90              	3.46410817e+02
91              	3.46517902e+02
92              	3.46638161e+02
93              	3.46766926e+02
94              	3.46892265e+02
95              	3.47013379e+02
96              	3.47144306e+02
97              	3.47269728e+02
98              	3.47378840e+02
99              	3.47511569e+02
100             	3.47644606e+02
101             	3.47778172e+02
102             	3.47909754e+02
103             	3.48021644e+02
104             	3.48126963e+02
105             	3.48227556e+02
106             	3.48335171e+02
107             	3.48448710e+02
108             	3.48560849e+02
109             	3.48667162e+02
110             	3.48755299e+02
111             	3.48857981e+02
112             	3.48919061e+02
113             	3.48984872e+02
114             	3.49063082e+02
115             	3.49143854e+02
116             	3.49216091e+02
117             	3.49295410e+02
118             	3.49375520e+02
119             	3.49415255e+02
120             	3.49473398e+02
121             	3.49548461e+02
122             	3.49630275e+02
123             	3.49714239e+02
124             	3.49798138e+02
125             	3.49884565e+02
126             	3.49971503e+02
127             	3.50066190e+02
128             	3.50134972e+02
129             	3.50192527e+02
130             	3.50248561e+02
131             	3.50304735e+02
132             	3.50371140e+02
133             	3.50433461e+02
134             	3.50488740e+02
135             	3.50541671e+02
136             	3.50590777e+02
137             	3.50645463e+02
138             	3.50703459e+02
139             	3.50756684e+02
140             	3.50812024e+02
141             	3.50868736e+02
142             	3.50894221e+02
143             	3.50941162e+02
144             	3.51001955e+02
145             	3.51062994e+02
146             	3.51115755e+02
147             	3.51164512e+02
148             	3.51209837e+02
149             	3.51256169e+02
150             	3.51313219e+02
151             	3.51361114e+02
152             	3.51396176e+02
153             	3.51432021e+02
154             	3.51476795e+02
155             	3.51523978e+02
156             	3.51565484e+02
157             	3.51602740e+02
158             	3.51602860e+02
159             	3.51619391e+02
160             	3.51650326e+02
161             	3.51679979e+02
162             	3.51703432e+02
163             	3.51725951e+02
164             	3.51751649e+02
165             	3.51793936e+02
166             	3.51802687e+02
167             	3.51819524e+02
168             	3.51843351e+02
169             	3.51874532e+02
170             	3.51904380e+02
171             	3.51927152e+02
172             	3.51926111e+02
173             	3.51931432e+02
174             	3.51949093e+02
175             	3.51968839e+02
176             	3.51984400e+02
177             	3.51998085e+02
178             	3.52014907e+02
179             	3.52023770e+02
180             	3.52038639e+02
181             	3.52061376e+02
182             	3.52094032e+02
183             	3.52109114e+02
184             	3.52122724e+02
185             	3.52141699e+02
186             	3.52161598e+02
187             	3.52173741e+02
188             	3.52186731e+02
189             	3.52189824e+02
190             	3.52188334e+02
191             	3.52185191e+02
192             	3.52193669e+02
193             	3.52204991e+02
194             	3.52213721e+02
195             	3.52218100e+02
196             	3.52228144e+02
197             	3.52251554e+02
198             	3.52283148e+02
199             	3.52275605e+02
200             	3.52281547e+02
201             	3.52296538e+02
202             	3.52304214e+02
203             	3.52303166e+02
204             	3.52313312e+02
205             	3.52326190e+02
206             	3.52335185e+02
207             	3.52340135e+02
208             	3.52346747e+02
209             	3.52353985e+02
210             	3.52367137e+02
211             	3.52381323e+02
212             	3.52400375e+02
213             	3.52423596e+02
214             	3.52423981e+02
215             	3.52425624e+02
216             	3.52433593e+02
217             	3.52445506e+02
218             	3.52462601e+02
219             	3.52460949e+02
220             	3.52461191e+02
221             	3.52468121e+02
222             	3.52475884e+02
223             	3.52479336e+02
224             	3.52482854e+02
225             	3.52487091e+02
226             	3.52493233e+02
227             	3.52500250e+02
228             	3.52512549e+02
229             	3.52522302e+02
230             	3.52529065e+02
231             	3.52532198e+02
232             	3.52533781e+02
233             	3.52536987e+02
234             	3.52544755e+02
235             	3.52553644e+02
236             	3.52562177e+02
237             	3.52569467e+02
238             	3.52577851e+02
239             	3.52588375e+02
240             	3.52593738e+02
241             	3.52586759e+02
242             	3.52589046e+02
243             	3.52597755e+02
244             	3.52606306e+02
245             	3.52612872e+02
246             	3.52616482e+02
247             	3.52627926e+02
248             	3.52633974e+02
249             	3.52638597e+02
250             	3.52644694e+02
251             	3.52652115e+02
252             	3.52667259e+02
253             	3.52677282e+02
254             	3.52659830e+02
255             	3.52651459e+02
256             	3.52651258e+02
257             	3.52649678e+02
258             	3.52647683e+02
259             	3.52650491e+02
260             	3.52653886e+02
261             	3.52659799e+02
262             	3.52667107e+02
263             	3.52693810e+02
264             	3.52695028e+02
265             	3.52687133e+02
266             	3.52683760e+02
267             	3.52689482e+02
268             	3.52690917e+02
269             	3.52689029e+02
270             	3.52675595e+02
271             	3.52670719e+02
272             	3.52672212e+02
273             	3.52671952e+02
274             	3.52678562e+02
275             	3.52693394e+02
276             	3.52690193e+02
277             	3.52686680e+02
278             	3.52688769e+02
279             	3.52692390e+02
280             	3.52692983e+02
281             	3.52697817e+02
282             	3.52701174e+02
283             	3.52704943e+02
284             	3.52709594e+02
285             	3.52710591e+02
286             	3.52709376e+02
287             	3.52715569e+02
288             	3.52720130e+02
289             	3.52720208e+02
290             	3.52720470e+02
291             	3.52715742e+02
292             	3.52716207e+02
293             	3.52717543e+02
294             	3.52714030e+02
295             	3.52714003e+02
296             	3.52712425e+02
297             	3.52712314e+02
298             	3.52711540e+02
299             	3.52718314e+02
300             	3.52724785e+02
301             	3.52727707e+02
302             	3.52730787e+02
303             	3.52722148e+02
304             	3.52716534e+02
305             	3.52718529e+02
306             	3.52722421e+02
307             	3.52725379e+02
308             	3.52726246e+02
309             	3.52725552e+02
310             	3.52724119e+02
311             	3.52732585e+02
312             	3.52734367e+02
313             	3.52733902e+02
314             	3.52736288e+02
315             	3.52741516e+02
316             	3.52747820e+02
317             	3.52752686e+02
318             	3.52747082e+02
319             	3.52742750e+02
320             	3.52743375e+02
321             	3.52745266e+02
322             	3.52748119e+02
323             	3.52753018e+02
324             	3.52761254e+02
325             	3.52767384e+02
326             	3.52767795e+02
327             	3.52763811e+02
328             	3.52763318e+02
329             	3.52763859e+02
330             	3.52766619e+02
331             	3.52770259e+02
332             	3.52773904e+02
333             	3.52775125e+02
334             	3.52775159e+02
335             	3.52773385e+02
336             	3.52772841e+02
337             	3.52775040e+02
338             	3.52777282e+02
339             	3.52780416e+02
340             	3.52783590e+02
341             	3.52783088e+02
342             	3.52781631e+02
343             	3.52782133e+02
344             	3.52779059e+02
345             	3.52776330e+02
346             	3.52775448e+02
347             	3.52776251e+02
348             	3.52779171e+02
349             	3.52781921e+02
350             	3.52784556e+02
351             	3.52785933e+02
352             	3.52787748e+02
353             	3.52788159e+02
354             	3.52787021e+02
355             	3.52784930e+02
356             	3.52784154e+02
357             	3.52784602e+02
358             	3.52785562e+02
359             	3.52786867e+02
360             	3.52785202e+02
361             	3.52784688e+02
362             	3.52784933e+02
363             	3.52785908e+02
364             	3.52786799e+02
365             	3.52787884e+02
366             	3.52791040e+02
367             	3.52792122e+02
368             	3.52792172e+02
369             	3.52792266e+02
370             	3.52792497e+02
371             	3.52792410e+02
372             	3.52791512e+02
373             	3.52791234e+02
374             	3.52790771e+02
375             	3.52790004e+02
376             	3.52789051e+02
377             	3.52788826e+02
378             	3.52790395e+02
379             	3.52791178e+02
380             	3.52791300e+02
381             	3.52791505e+02
382             	3.52792150e+02
383             	3.52794014e+02
384             	3.52795087e+02
385             	3.52795475e+02
386             	3.52794981e+02
387             	3.52793904e+02
388             	3.52793617e+02
389             	3.52793969e+02
390             	3.52794040e+02
391             	3.52794468e+02
392             	3.52794608e+02
393             	3.52795825e+02
394             	3.52797137e+02
395             	3.52798085e+02
396             	3.52798854e+02
397             	3.52799569e+02
398             	3.52800219e+02
399             	3.52800766e+02
400             	3.52800395e+02
401             	3.52800589e+02
402             	3.52801026e+02
403             	3.52801862e+02
404             	3.52803431e+02
405             	3.52804415e+02
406             	3.52804991e+02
407             	3.52805565e+02
408             	3.52806348e+02
409             	3.52807141e+02
410             	3.52807594e+02
411             	3.52807996e+02
412             	3.52808134e+02
413             	3.52808298e+02
414             	3.52808341e+02
415             	3.52808542e+02
416             	3.52809196e+02
417             	3.52810084e+02
418             	3.52811356e+02
419             	3.52812387e+02
420             	3.52812961e+02
421             	3.52811687e+02
422             	3.52811468e+02
423             	3.52811962e+02
424             	3.52812334e+02
425             	3.52812341e+02
426             	3.52812426e+02
427             	3.52812146e+02
428             	3.52813289e+02
429             	3.52813313e+02
430             	3.52813182e+02
431             	3.52812491e+02
432             	3.52811288e+02
433             	3.52809928e+02
434             	3.52808379e+02
435             	3.52807239e+02
436             	3.52805217e+02
437             	3.52804059e+02
438             	3.52803627e+02
439             	3.52803710e+02
440             	3.52803984e+02
441             	3.52804778e+02
442             	3.52805644e+02
443             	3.52806390e+02
444             	3.52807023e+02
445             	3.52807587e+02
446             	3.52808299e+02
447             	3.52808728e+02
448             	3.52809074e+02
449             	3.52809164e+02
450             	3.52809288e+02
451             	3.52809081e+02
452             	3.52808543e+02
453             	3.52807982e+02
454             	3.52807444e+02
455             	3.52806908e+02
456             	3.52806261e+02
457             	3.52805428e+02
458             	3.52804810e+02
459             	3.52804404e+02
460             	3.52804297e+02
461             	3.52804273e+02
462             	3.52804512e+02
463             	3.52804830e+02
464             	3.52805366e+02
465             	3.52805924e+02
466             	3.52806575e+02
467             	3.52807265e+02
468             	3.52807941e+02
469             	3.52808533e+02
470             	3.52808992e+02
471             	3.52809423e+02
472             	3.52809669e+02
473             	3.52809848e+02
474             	3.52809821e+02
475             	3.52809646e+02
476             	3.52809331e+02
477             	3.52808923e+02
478             	3.52808483e+02
479             	3.52808065e+02
480             	3.52807719e+02
481             	3.52807476e+02
482             	3.52807351e+02
483             	3.52807354e+02
484             	3.52807455e+02
485             	3.52807630e+02
486             	3.52807855e+02
487             	3.52808103e+02
488             	3.52808405e+02
489             	3.52808728e+02
490             	3.52808948e+02
491             	3.52809138e+02
492             	3.52809187e+02
493             	3.52809141e+02
494             	3.52809108e+02
495             	3.52808917e+02
496             	3.52808577e+02
497             	3.52808119e+02
498             	3.52807649e+02
499             	3.52807142e+02
500             	3.52806709e+02
501             	3.52806310e+02
502             	3.52806048e+02
503             	3.52805844e+02
504             	3.52805752e+02
505             	3.52805749e+02
506             	3.52805556e+02
507             	3.52805712e+02
508             	3.52806020e+02
509             	3.52806365e+02
510             	3.52806809e+02
511             	3.52807201e+02
512             	3.52807595e+02
513             	3.52807910e+02
514             	3.52808197e+02
515             	3.52808378e+02
516             	3.52808528e+02
517             	3.52808566e+02
518             	3.52808511e+02
519             	3.52808380e+02
520             	3.52808155e+02
521             	3.52807928e+02
522             	3.52807719e+02
523             	3.52807557e+02
524             	3.52807336e+02
525             	3.52807291e+02
526             	3.52807398e+02
527             	3.52807587e+02
528             	3.52807871e+02
529             	3.52808219e+02
530             	3.52808720e+02
531             	3.52809162e+02
532             	3.52809551e+02
533             	3.52809929e+02
534             	3.52810427e+02
535             	3.52810806e+02
536             	3.52811302e+02
537             	3.52811147e+02
538             	3.52811293e+02
539             	3.52811542e+02
540             	3.52811756e+02
541             	3.52811853e+02
542             	3.52811877e+02
543             	3.52811844e+02
544             	3.52811693e+02
545             	3.52811499e+02
546             	3.52811144e+02
547             	3.52810934e+02
548             	3.52810832e+02
549             	3.52810755e+02
550             	3.52810741e+02
551             	3.52810735e+02
552             	3.52810815e+02
553             	3.52810881e+02
554             	3.52811014e+02
555             	3.52811163e+02
556             	3.52811344e+02
557             	3.52811549e+02
558             	3.52811700e+02
559             	3.52811837e+02
560             	3.52811865e+02
561             	3.52811924e+02
562             	3.52811930e+02
563             	3.52811922e+02
564             	3.52811944e+02
565             	3.52811919e+02
566             	3.52812510e+02
567             	3.52812707e+02
568             	3.52812624e+02
569             	3.52812503e+02
570             	3.52812397e+02
571             	3.52812405e+02
572             	3.52812582e+02
573             	3.52812832e+02
574             	3.52813123e+02
575             	3.52813502e+02
576             	3.52813880e+02
577             	3.52814374e+02
578             	3.52813937e+02
579             	3.52814050e+02
580             	3.52814554e+02
581             	3.52815051e+02
582             	3.52815354e+02
583             	3.52815433e+02
584             	3.52815701e+02
585             	3.52815673e+02
586             	3.52816017e+02
587             	3.52815945e+02
588             	3.52816255e+02
589             	3.52816156e+02
590             	3.52815785e+02
591             	3.52815475e+02
592             	3.52814724e+02
593             	3.52814427e+02
594             	3.52813433e+02
595             	3.52813288e+02
596             	3.52813602e+02
597             	3.52814051e+02
598             	3.52814559e+02
599             	3.52815439e+02
600             	3.52817063e+02
601             	3.52817871e+02
602             	3.52818520e+02
603             	3.52818752e+02
604             	3.52818673e+02
605             	3.52818512e+02
606             	3.52818025e+02
607             	3.52817675e+02
608             	3.52816888e+02
609             	3.52816025e+02
610             	3.52815592e+02
611             	3.52815464e+02
612             	3.52815349e+02
613             	3.52814873e+02
614             	3.52814443e+02
615             	3.52814090e+02
616             	3.52813672e+02
617             	3.52813140e+02
618             	3.52813002e+02
619             	3.52812792e+02
620             	3.52812816e+02
621             	3.52812574e+02
