# Region        : cellZone component_2
# Cells         : 88
# Volume        : 1.47783746e-01
# Time          	volAverage(T)
1               	3.01379765e+02
2               	3.02726066e+02
3               	3.03841361e+02
4               	3.04825924e+02
5               	3.05787484e+02
6               	3.06743253e+02
7               	3.07682854e+02
8               	3.08606773e+02
9               	3.09519281e+02
10              	3.10426473e+02
11              	3.11328675e+02
12              	3.12205216e+02
13              	3.13045761e+02
14              	3.13858977e+02
15              	3.14657879e+02
16              	3.15438931e+02
17              	3.16211096e+02
18              	3.16971361e+02
19              	3.17699675e+02
20              	3.18410787e+02
21              	3.19100967e+02
22              	3.19767042e+02
23              	3.20404585e+02
24              	3.21016412e+02
25              	3.21607247e+02
26              	3.22206099e+02
27              	3.22814058e+02
28              	3.23422190e+02
29              	3.24043097e+02
30              	3.24645225e+02
31              	3.25197191e+02
32              	3.25726626e+02
33              	3.26229269e+02
34              	3.26696233e+02
35              	3.27116502e+02
36              	3.27498775e+02
37              	3.27860805e+02
38              	3.28208791e+02
39              	3.28546745e+02
40              	3.28888504e+02
41              	3.29233481e+02
42              	3.29589207e+02
43              	3.29934647e+02
44              	3.30257015e+02
45              	3.30554323e+02
46              	3.30827717e+02
47              	3.31055427e+02
48              	3.31242730e+02
49              	3.31406111e+02
50              	3.31559292e+02
51              	3.31711840e+02
52              	3.31883298e+02
53              	3.32069522e+02
54              	3.32266127e+02
55              	3.32439266e+02
56              	3.32542109e+02
57              	3.32632218e+02
58              	3.32700308e+02
59              	3.32738577e+02
60              	3.32738407e+02
61              	3.32720044e+02
62              	3.32718659e+02
63              	3.32773642e+02
64              	3.32865148e+02
65              	3.32996457e+02
66              	3.33042011e+02
67              	3.33029567e+02
68              	3.33009090e+02
69              	3.32979745e+02
70              	3.32931907e+02
71              	3.32865184e+02
72              	3.32784944e+02
73              	3.32706467e+02
74              	3.32643002e+02
75              	3.32589644e+02
76              	3.32560242e+02
77              	3.32561564e+02
78              	3.32582192e+02
79              	3.32621533e+02
80              	3.32678585e+02
81              	3.32726366e+02
82              	3.32740095e+02
83              	3.32726287e+02
84              	3.32687939e+02
85              	3.32626600e+02
86              	3.32554710e+02
87              	3.32489473e+02
88              	3.32434941e+02
89              	3.32394942e+02
90              	3.32379104e+02
91              	3.32372466e+02
92              	3.32389687e+02
93              	3.32423152e+02
94              	3.32459553e+02
95              	3.32472995e+02
96              	3.32485214e+02
97              	3.32473534e+02
98              	3.32451502e+02
99              	3.32416943e+02
100             	3.32375717e+02
101             	3.32334888e+02
102             	3.32301998e+02
103             	3.32290955e+02
104             	3.32282420e+02
105             	3.32297742e+02
106             	3.32330617e+02
107             	3.32364501e+02
108             	3.32358243e+02
109             	3.32355813e+02
110             	3.32338116e+02
111             	3.32295734e+02
112             	3.32245321e+02
113             	3.32187501e+02
114             	3.32128059e+02
115             	3.32078210e+02
116             	3.32038123e+02
117             	3.32012173e+02
118             	3.32000648e+02
119             	3.31994516e+02
120             	3.31998403e+02
121             	3.32007628e+02
122             	3.32010527e+02
123             	3.32000455e+02
124             	3.31978675e+02
125             	3.31943725e+02
126             	3.31894251e+02
127             	3.31833359e+02
128             	3.31767581e+02
129             	3.31708341e+02
130             	3.31661865e+02
131             	3.31633293e+02
132             	3.31621414e+02
133             	3.31611179e+02
134             	3.31610861e+02
135             	3.31613210e+02
136             	3.31608946e+02
137             	3.31592740e+02
138             	3.31570893e+02
139             	3.31546924e+02
140             	3.31523102e+02
141             	3.31498856e+02
142             	3.31476395e+02
143             	3.31456181e+02
144             	3.31435177e+02
145             	3.31416912e+02
146             	3.31402245e+02
147             	3.31393161e+02
148             	3.31385204e+02
149             	3.31380307e+02
150             	3.31373003e+02
151             	3.31368395e+02
152             	3.31360126e+02
153             	3.31346361e+02
154             	3.31328873e+02
155             	3.31307193e+02
156             	3.31282588e+02
157             	3.31255103e+02
158             	3.31228909e+02
159             	3.31207276e+02
160             	3.31192927e+02
161             	3.31182055e+02
162             	3.31178030e+02
163             	3.31177364e+02
164             	3.31175414e+02
165             	3.31167774e+02
166             	3.31156471e+02
167             	3.31135645e+02
168             	3.31109558e+02
169             	3.31079243e+02
170             	3.31045015e+02
171             	3.31011684e+02
172             	3.30981971e+02
173             	3.30961794e+02
174             	3.30954165e+02
175             	3.30948047e+02
176             	3.30951848e+02
177             	3.30955526e+02
178             	3.30958564e+02
179             	3.30955205e+02
180             	3.30945030e+02
181             	3.30923720e+02
182             	3.30897711e+02
183             	3.30868757e+02
184             	3.30840475e+02
185             	3.30814062e+02
186             	3.30793177e+02
187             	3.30777775e+02
188             	3.30768092e+02
189             	3.30764219e+02
190             	3.30763734e+02
191             	3.30764930e+02
192             	3.30767710e+02
193             	3.30769528e+02
194             	3.30764673e+02
195             	3.30755770e+02
196             	3.30745105e+02
197             	3.30731861e+02
198             	3.30716028e+02
199             	3.30698729e+02
200             	3.30681159e+02
201             	3.30667889e+02
202             	3.30663032e+02
203             	3.30660537e+02
204             	3.30666188e+02
205             	3.30678428e+02
206             	3.30686098e+02
207             	3.30685466e+02
208             	3.30682478e+02
209             	3.30671014e+02
210             	3.30651062e+02
211             	3.30626529e+02
212             	3.30603274e+02
213             	3.30583240e+02
214             	3.30570811e+02
215             	3.30564728e+02
216             	3.30566757e+02
217             	3.30573838e+02
218             	3.30581811e+02
219             	3.30587811e+02
220             	3.30594869e+02
221             	3.30599888e+02
222             	3.30598399e+02
223             	3.30589278e+02
224             	3.30577680e+02
225             	3.30562149e+02
226             	3.30546670e+02
227             	3.30530706e+02
228             	3.30516770e+02
229             	3.30506820e+02
230             	3.30502307e+02
231             	3.30500257e+02
232             	3.30504137e+02
233             	3.30512458e+02
234             	3.30519024e+02
235             	3.30525217e+02
236             	3.30529187e+02
237             	3.30526614e+02
238             	3.30519338e+02
239             	3.30508430e+02
240             	3.30499948e+02
241             	3.30494401e+02
242             	3.30493047e+02
243             	3.30495106e+02
244             	3.30501100e+02
245             	3.30508115e+02
246             	3.30511864e+02
247             	3.30514658e+02
248             	3.30512162e+02
249             	3.30506375e+02
250             	3.30498743e+02
251             	3.30490043e+02
252             	3.30484810e+02
253             	3.30483004e+02
254             	3.30485110e+02
255             	3.30489903e+02
256             	3.30496977e+02
257             	3.30503671e+02
258             	3.30509599e+02
259             	3.30513537e+02
260             	3.30516533e+02
261             	3.30517303e+02
262             	3.30515812e+02
263             	3.30512679e+02
264             	3.30507813e+02
265             	3.30502054e+02
266             	3.30495740e+02
267             	3.30489204e+02
268             	3.30482872e+02
269             	3.30478058e+02
270             	3.30475569e+02
271             	3.30476158e+02
272             	3.30479620e+02
273             	3.30484021e+02
274             	3.30489840e+02
275             	3.30496029e+02
276             	3.30499420e+02
277             	3.30498948e+02
278             	3.30495388e+02
279             	3.30489735e+02
280             	3.30482359e+02
281             	3.30476378e+02
282             	3.30474147e+02
283             	3.30473805e+02
284             	3.30476047e+02
285             	3.30480584e+02
286             	3.30484722e+02
287             	3.30488740e+02
288             	3.30491125e+02
289             	3.30492342e+02
290             	3.30492715e+02
291             	3.30492118e+02
292             	3.30490942e+02
293             	3.30489756e+02
294             	3.30488802e+02
295             	3.30488284e+02
296             	3.30489854e+02
297             	3.30493080e+02
298             	3.30497330e+02
299             	3.30502356e+02
300             	3.30506827e+02
301             	3.30510042e+02
302             	3.30511535e+02
303             	3.30511062e+02
304             	3.30508361e+02
305             	3.30505090e+02
306             	3.30502402e+02
307             	3.30500513e+02
308             	3.30500001e+02
309             	3.30501776e+02
310             	3.30504962e+02
311             	3.30509442e+02
312             	3.30513869e+02
313             	3.30517179e+02
314             	3.30519219e+02
315             	3.30520118e+02
316             	3.30520002e+02
317             	3.30519629e+02
318             	3.30518888e+02
319             	3.30517995e+02
320             	3.30517764e+02
321             	3.30518296e+02
322             	3.30519422e+02
323             	3.30520720e+02
324             	3.30522187e+02
325             	3.30524071e+02
326             	3.30526059e+02
327             	3.30527785e+02
328             	3.30528943e+02
329             	3.30529440e+02
330             	3.30529546e+02
331             	3.30529895e+02
332             	3.30530089e+02
333             	3.30530624e+02
334             	3.30531490e+02
335             	3.30532642e+02
336             	3.30533872e+02
337             	3.30535744e+02
338             	3.30537756e+02
339             	3.30539665e+02
340             	3.30541327e+02
341             	3.30542839e+02
342             	3.30544355e+02
343             	3.30545601e+02
344             	3.30546850e+02
345             	3.30547627e+02
346             	3.30548437e+02
347             	3.30548936e+02
348             	3.30549662e+02
349             	3.30550297e+02
350             	3.30551122e+02
351             	3.30552498e+02
352             	3.30553920e+02
353             	3.30555845e+02
354             	3.30557573e+02
355             	3.30559316e+02
356             	3.30561060e+02
357             	3.30562680e+02
358             	3.30564140e+02
359             	3.30565373e+02
360             	3.30566389e+02
361             	3.30567375e+02
362             	3.30568398e+02
363             	3.30569376e+02
364             	3.30570565e+02
365             	3.30571930e+02
366             	3.30573360e+02
367             	3.30574736e+02
368             	3.30576177e+02
369             	3.30577511e+02
370             	3.30578757e+02
371             	3.30580020e+02
372             	3.30581290e+02
373             	3.30582456e+02
374             	3.30583660e+02
375             	3.30585040e+02
376             	3.30586552e+02
377             	3.30588042e+02
378             	3.30589503e+02
379             	3.30590886e+02
380             	3.30592155e+02
381             	3.30593249e+02
382             	3.30594318e+02
383             	3.30595400e+02
384             	3.30596579e+02
385             	3.30597834e+02
386             	3.30599145e+02
387             	3.30600489e+02
388             	3.30601863e+02
389             	3.30603223e+02
390             	3.30604603e+02
391             	3.30606019e+02
392             	3.30607433e+02
393             	3.30608845e+02
394             	3.30610246e+02
395             	3.30611633e+02
396             	3.30612985e+02
397             	3.30614299e+02
398             	3.30615613e+02
399             	3.30616910e+02
400             	3.30618234e+02
401             	3.30619578e+02
402             	3.30620917e+02
403             	3.30622185e+02
404             	3.30623414e+02
405             	3.30624625e+02
406             	3.30625827e+02
407             	3.30627068e+02
408             	3.30628331e+02
409             	3.30629682e+02
410             	3.30631075e+02
411             	3.30632505e+02
412             	3.30633925e+02
413             	3.30635292e+02
414             	3.30636626e+02
415             	3.30637874e+02
416             	3.30639070e+02
417             	3.30640224e+02
418             	3.30641384e+02
419             	3.30642590e+02
420             	3.30643912e+02
421             	3.30645256e+02
422             	3.30646692e+02
423             	3.30648157e+02
424             	3.30649609e+02
425             	3.30650983e+02
426             	3.30652267e+02
427             	3.30653497e+02
428             	3.30654651e+02
429             	3.30655764e+02
430             	3.30656879e+02
431             	3.30658030e+02
432             	3.30659201e+02
433             	3.30660425e+02
434             	3.30661671e+02
435             	3.30662944e+02
436             	3.30664244e+02
437             	3.30665555e+02
438             	3.30666835e+02
439             	3.30668120e+02
440             	3.30669391e+02
441             	3.30670642e+02
442             	3.30671859e+02
443             	3.30673048e+02
444             	3.30674239e+02
445             	3.30675433e+02
446             	3.30676621e+02
447             	3.30677812e+02
448             	3.30679036e+02
449             	3.30680275e+02
450             	3.30681502e+02
451             	3.30682710e+02
452             	3.30683898e+02
453             	3.30685073e+02
454             	3.30686234e+02
455             	3.30687423e+02
456             	3.30688633e+02
457             	3.30689863e+02
458             	3.30691094e+02
459             	3.30692330e+02
460             	3.30693566e+02
461             	3.30694777e+02
462             	3.30695951e+02
463             	3.30697104e+02
464             	3.30698245e+02
465             	3.30699373e+02
466             	3.30700493e+02
467             	3.30701643e+02
468             	3.30702827e+02
469             	3.30704017e+02
470             	3.30705241e+02
471             	3.30706470e+02
472             	3.30707695e+02
473             	3.30708898e+02
474             	3.30710083e+02
475             	3.30711206e+02
476             	3.30712293e+02
477             	3.30713346e+02
478             	3.30714397e+02
479             	3.30715452e+02
480             	3.30716552e+02
481             	3.30717661e+02
482             	3.30718794e+02
483             	3.30719937e+02
484             	3.30721102e+02
485             	3.30722242e+02
486             	3.30723369e+02
487             	3.30724476e+02
488             	3.30725564e+02
489             	3.30726631e+02
490             	3.30727684e+02
491             	3.30728731e+02
492             	3.30729791e+02
493             	3.30730858e+02
494             	3.30731927e+02
495             	3.30733023e+02
496             	3.30734123e+02
497             	3.30735233e+02
498             	3.30736324e+02
499             	3.30737394e+02
500             	3.30738448e+02
501             	3.30739482e+02
502             	3.30740495e+02
503             	3.30741505e+02
504             	3.30742498e+02
505             	3.30743492e+02
506             	3.30744496e+02
507             	3.30745508e+02
508             	3.30746538e+02
509             	3.30747569e+02
510             	3.30748605e+02
511             	3.30749652e+02
512             	3.30750698e+02
513             	3.30751739e+02
514             	3.30752766e+02
515             	3.30753781e+02
516             	3.30754784e+02
517             	3.30755790e+02
518             	3.30756795e+02
519             	3.30757802e+02
520             	3.30758810e+02
521             	3.30759816e+02
522             	3.30760821e+02
523             	3.30761817e+02
524             	3.30762796e+02
525             	3.30763768e+02
526             	3.30764728e+02
527             	3.30765683e+02
528             	3.30766641e+02
529             	3.30767607e+02
530             	3.30768570e+02
531             	3.30769538e+02
532             	3.30770497e+02
533             	3.30771453e+02
534             	3.30772406e+02
535             	3.30773348e+02
536             	3.30774277e+02
537             	3.30775201e+02
538             	3.30776121e+02
539             	3.30777039e+02
540             	3.30777965e+02
541             	3.30778888e+02
542             	3.30779821e+02
543             	3.30780756e+02
544             	3.30781691e+02
545             	3.30782627e+02
546             	3.30783562e+02
547             	3.30784488e+02
548             	3.30785407e+02
549             	3.30786315e+02
550             	3.30787218e+02
551             	3.30788117e+02
552             	3.30789009e+02
553             	3.30789894e+02
554             	3.30790781e+02
555             	3.30791671e+02
556             	3.30792570e+02
557             	3.30793469e+02
558             	3.30794374e+02
559             	3.30795278e+02
560             	3.30796183e+02
561             	3.30797082e+02
562             	3.30797975e+02
563             	3.30798865e+02
564             	3.30799753e+02
565             	3.30800634e+02
566             	3.30801517e+02
567             	3.30802398e+02
568             	3.30803282e+02
569             	3.30804161e+02
570             	3.30805038e+02
571             	3.30805912e+02
572             	3.30806785e+02
573             	3.30807655e+02
574             	3.30808520e+02
575             	3.30809380e+02
576             	3.30810235e+02
577             	3.30811088e+02
578             	3.30811941e+02
579             	3.30812792e+02
580             	3.30813643e+02
581             	3.30814492e+02
582             	3.30815339e+02
583             	3.30816184e+02
584             	3.30817034e+02
585             	3.30817883e+02
586             	3.30818727e+02
587             	3.30819569e+02
588             	3.30820410e+02
589             	3.30821246e+02
590             	3.30822078e+02
591             	3.30822904e+02
592             	3.30823727e+02
593             	3.30824545e+02
594             	3.30825365e+02
595             	3.30826186e+02
596             	3.30827008e+02
597             	3.30827830e+02
598             	3.30828654e+02
599             	3.30829476e+02
600             	3.30830294e+02
601             	3.30831111e+02
602             	3.30831918e+02
603             	3.30832718e+02
604             	3.30833512e+02
605             	3.30834305e+02
606             	3.30835097e+02
607             	3.30835884e+02
608             	3.30836666e+02
609             	3.30837451e+02
610             	3.30838234e+02
611             	3.30839013e+02
612             	3.30839783e+02
613             	3.30840552e+02
614             	3.30841316e+02
615             	3.30842075e+02
616             	3.30842825e+02
617             	3.30843573e+02
618             	3.30844317e+02
619             	3.30845058e+02
620             	3.30845796e+02
621             	3.30846534e+02
