# Region        : cellZone component_3
# Cells         : 129
# Volume        : 2.38796710e-01
# Time          	volAverage(T)
1               	3.00768893e+02
2               	3.01526596e+02
3               	3.02227741e+02
4               	3.02890967e+02
5               	3.03534719e+02
6               	3.04164285e+02
7               	3.04781141e+02
8               	3.05387585e+02
9               	3.05986962e+02
10              	3.06586049e+02
11              	3.07178235e+02
12              	3.07743828e+02
13              	3.08283742e+02
14              	3.08816107e+02
15              	3.09342614e+02
16              	3.09856073e+02
17              	3.10347611e+02
18              	3.10811758e+02
19              	3.11265340e+02
20              	3.11725518e+02
21              	3.12195810e+02
22              	3.12640550e+02
23              	3.13070522e+02
24              	3.13491056e+02
25              	3.13922038e+02
26              	3.14341011e+02
27              	3.14772753e+02
28              	3.15204401e+02
29              	3.15626870e+02
30              	3.16061431e+02
31              	3.16505391e+02
32              	3.16912288e+02
33              	3.17291841e+02
34              	3.17658652e+02
35              	3.18023197e+02
36              	3.18378731e+02
37              	3.18714844e+02
38              	3.19046304e+02
39              	3.19362050e+02
40              	3.19662329e+02
41              	3.19952788e+02
42              	3.20227093e+02
43              	3.20502710e+02
44              	3.20794686e+02
45              	3.21097459e+02
46              	3.21373875e+02
47              	3.21601985e+02
48              	3.21824150e+02
49              	3.22064314e+02
50              	3.22295909e+02
51              	3.22510541e+02
52              	3.22719801e+02
53              	3.22923147e+02
54              	3.23119463e+02
55              	3.23309210e+02
56              	3.23501989e+02
57              	3.23701353e+02
58              	3.23904759e+02
59              	3.24106397e+02
60              	3.24320255e+02
61              	3.24539694e+02
62              	3.24753712e+02
63              	3.24951973e+02
64              	3.25134308e+02
65              	3.25309812e+02
66              	3.25489418e+02
67              	3.25660812e+02
68              	3.25828245e+02
69              	3.25986215e+02
70              	3.26139550e+02
71              	3.26278556e+02
72              	3.26399988e+02
73              	3.26506742e+02
74              	3.26599765e+02
75              	3.26692131e+02
76              	3.26784758e+02
77              	3.26881823e+02
78              	3.26993872e+02
79              	3.27109692e+02
80              	3.27245675e+02
81              	3.27385195e+02
82              	3.27514256e+02
83              	3.27641784e+02
84              	3.27755468e+02
85              	3.27853727e+02
86              	3.27951558e+02
87              	3.28041540e+02
88              	3.28127147e+02
89              	3.28201721e+02
90              	3.28269577e+02
91              	3.28336276e+02
92              	3.28403578e+02
93              	3.28478850e+02
94              	3.28558773e+02
95              	3.28647856e+02
96              	3.28745214e+02
97              	3.28846543e+02
98              	3.28948663e+02
99              	3.29042572e+02
100             	3.29141157e+02
101             	3.29237134e+02
102             	3.29334969e+02
103             	3.29428432e+02
104             	3.29525937e+02
105             	3.29627090e+02
106             	3.29723859e+02
107             	3.29810297e+02
108             	3.29898106e+02
109             	3.29981536e+02
110             	3.30057212e+02
111             	3.30123489e+02
112             	3.30180670e+02
113             	3.30231355e+02
114             	3.30279542e+02
115             	3.30329894e+02
116             	3.30379254e+02
117             	3.30440310e+02
118             	3.30509968e+02
119             	3.30595441e+02
120             	3.30680932e+02
121             	3.30770287e+02
122             	3.30869716e+02
123             	3.30970964e+02
124             	3.31071235e+02
125             	3.31165038e+02
126             	3.31255677e+02
127             	3.31339194e+02
128             	3.31415338e+02
129             	3.31485781e+02
130             	3.31554320e+02
131             	3.31616044e+02
132             	3.31671221e+02
133             	3.31719712e+02
134             	3.31766711e+02
135             	3.31818012e+02
136             	3.31867025e+02
137             	3.31919561e+02
138             	3.31973597e+02
139             	3.32027154e+02
140             	3.32078787e+02
141             	3.32137319e+02
142             	3.32196604e+02
143             	3.32254000e+02
144             	3.32312389e+02
145             	3.32366749e+02
146             	3.32421196e+02
147             	3.32470294e+02
148             	3.32518140e+02
149             	3.32569991e+02
150             	3.32617926e+02
151             	3.32663034e+02
152             	3.32707064e+02
153             	3.32748082e+02
154             	3.32788950e+02
155             	3.32830268e+02
156             	3.32872855e+02
157             	3.32917451e+02
158             	3.32963549e+02
159             	3.33008169e+02
160             	3.33059439e+02
161             	3.33113731e+02
162             	3.33170712e+02
163             	3.33226899e+02
164             	3.33284293e+02
165             	3.33341802e+02
166             	3.33400422e+02
167             	3.33457459e+02
168             	3.33512378e+02
169             	3.33566356e+02
170             	3.33616623e+02
171             	3.33658338e+02
172             	3.33698354e+02
173             	3.33738126e+02
174             	3.33776621e+02
175             	3.33813722e+02
176             	3.33845798e+02
177             	3.33879252e+02
178             	3.33914020e+02
179             	3.33950156e+02
180             	3.33988257e+02
181             	3.34030159e+02
182             	3.34072277e+02
183             	3.34115798e+02
184             	3.34163599e+02
185             	3.34218197e+02
186             	3.34271597e+02
187             	3.34326337e+02
188             	3.34383841e+02
189             	3.34442526e+02
190             	3.34501478e+02
191             	3.34560450e+02
192             	3.34614979e+02
193             	3.34669239e+02
194             	3.34721172e+02
195             	3.34769844e+02
196             	3.34813962e+02
197             	3.34845552e+02
198             	3.34875963e+02
199             	3.34905182e+02
200             	3.34931753e+02
201             	3.34956920e+02
202             	3.34983946e+02
203             	3.35010076e+02
204             	3.35035562e+02
205             	3.35062807e+02
206             	3.35093086e+02
207             	3.35127468e+02
208             	3.35167940e+02
209             	3.35208794e+02
210             	3.35250688e+02
211             	3.35293524e+02
212             	3.35335870e+02
213             	3.35379468e+02
214             	3.35421758e+02
215             	3.35456580e+02
216             	3.35491409e+02
217             	3.35522256e+02
218             	3.35550980e+02
219             	3.35576937e+02
220             	3.35599555e+02
221             	3.35618179e+02
222             	3.35636526e+02
223             	3.35658139e+02
224             	3.35674625e+02
225             	3.35690823e+02
226             	3.35711333e+02
227             	3.35737661e+02
228             	3.35769471e+02
229             	3.35804078e+02
230             	3.35837793e+02
231             	3.35872861e+02
232             	3.35907838e+02
233             	3.35944202e+02
234             	3.35980184e+02
235             	3.36013173e+02
236             	3.36041626e+02
237             	3.36065401e+02
238             	3.36085698e+02
239             	3.36103141e+02
240             	3.36119976e+02
241             	3.36137665e+02
242             	3.36153233e+02
243             	3.36169383e+02
244             	3.36187784e+02
245             	3.36209913e+02
246             	3.36234073e+02
247             	3.36260031e+02
248             	3.36287510e+02
249             	3.36315701e+02
250             	3.36343122e+02
251             	3.36371018e+02
252             	3.36397116e+02
253             	3.36420349e+02
254             	3.36438360e+02
255             	3.36457149e+02
256             	3.36472079e+02
257             	3.36484573e+02
258             	3.36494489e+02
259             	3.36504908e+02
260             	3.36517664e+02
261             	3.36532251e+02
262             	3.36544541e+02
263             	3.36560097e+02
264             	3.36579393e+02
265             	3.36602164e+02
266             	3.36626758e+02
267             	3.36646427e+02
268             	3.36669386e+02
269             	3.36690900e+02
270             	3.36710834e+02
271             	3.36729023e+02
272             	3.36743678e+02
273             	3.36756980e+02
274             	3.36767321e+02
275             	3.36777615e+02
276             	3.36788335e+02
277             	3.36792529e+02
278             	3.36798819e+02
279             	3.36808667e+02
280             	3.36823113e+02
281             	3.36840146e+02
282             	3.36855783e+02
283             	3.36875469e+02
284             	3.36895054e+02
285             	3.36915255e+02
286             	3.36932610e+02
287             	3.36948111e+02
288             	3.36961187e+02
289             	3.36971960e+02
290             	3.36979955e+02
291             	3.36984487e+02
292             	3.36987245e+02
293             	3.36989731e+02
294             	3.36994301e+02
295             	3.36998131e+02
296             	3.37003071e+02
297             	3.37010771e+02
298             	3.37020651e+02
299             	3.37030798e+02
300             	3.37041259e+02
301             	3.37052180e+02
302             	3.37063454e+02
303             	3.37074823e+02
304             	3.37086031e+02
305             	3.37096773e+02
306             	3.37106834e+02
307             	3.37116099e+02
308             	3.37124473e+02
309             	3.37131502e+02
310             	3.37138523e+02
311             	3.37145955e+02
312             	3.37152699e+02
313             	3.37158650e+02
314             	3.37165054e+02
315             	3.37171755e+02
316             	3.37178750e+02
317             	3.37185542e+02
318             	3.37191753e+02
319             	3.37198015e+02
320             	3.37203980e+02
321             	3.37210563e+02
322             	3.37217767e+02
323             	3.37224402e+02
324             	3.37230997e+02
325             	3.37238127e+02
326             	3.37245642e+02
327             	3.37253187e+02
328             	3.37260567e+02
329             	3.37267645e+02
330             	3.37274287e+02
331             	3.37280365e+02
332             	3.37285772e+02
333             	3.37290523e+02
334             	3.37291546e+02
335             	3.37292361e+02
336             	3.37293269e+02
337             	3.37294075e+02
338             	3.37291970e+02
339             	3.37287719e+02
340             	3.37284151e+02
341             	3.37281424e+02
342             	3.37279492e+02
343             	3.37278335e+02
344             	3.37277970e+02
345             	3.37278885e+02
346             	3.37280375e+02
347             	3.37282259e+02
348             	3.37284526e+02
349             	3.37287049e+02
350             	3.37289643e+02
351             	3.37292149e+02
352             	3.37294889e+02
353             	3.37297067e+02
354             	3.37298742e+02
355             	3.37299429e+02
356             	3.37299246e+02
357             	3.37298498e+02
358             	3.37297545e+02
359             	3.37296419e+02
360             	3.37295228e+02
361             	3.37294137e+02
362             	3.37293316e+02
363             	3.37292430e+02
364             	3.37292771e+02
365             	3.37293728e+02
366             	3.37295198e+02
367             	3.37297170e+02
368             	3.37299585e+02
369             	3.37305378e+02
370             	3.37312016e+02
371             	3.37318111e+02
372             	3.37323697e+02
373             	3.37328840e+02
374             	3.37333514e+02
375             	3.37337675e+02
376             	3.37341261e+02
377             	3.37344230e+02
378             	3.37346558e+02
379             	3.37348292e+02
380             	3.37349505e+02
381             	3.37350232e+02
382             	3.37350579e+02
383             	3.37350671e+02
384             	3.37350633e+02
385             	3.37350609e+02
386             	3.37350748e+02
387             	3.37351186e+02
388             	3.37352038e+02
389             	3.37353398e+02
390             	3.37355310e+02
391             	3.37357786e+02
392             	3.37360774e+02
393             	3.37364194e+02
394             	3.37367922e+02
395             	3.37371815e+02
396             	3.37375718e+02
397             	3.37379469e+02
398             	3.37382924e+02
399             	3.37385927e+02
400             	3.37388391e+02
401             	3.37390298e+02
402             	3.37391623e+02
403             	3.37392394e+02
404             	3.37392676e+02
405             	3.37392571e+02
406             	3.37392202e+02
407             	3.37391718e+02
408             	3.37391266e+02
409             	3.37390980e+02
410             	3.37390986e+02
411             	3.37391395e+02
412             	3.37392293e+02
413             	3.37393725e+02
414             	3.37395687e+02
415             	3.37398180e+02
416             	3.37401154e+02
417             	3.37404510e+02
418             	3.37408151e+02
419             	3.37411961e+02
420             	3.37415818e+02
421             	3.37419605e+02
422             	3.37423211e+02
423             	3.37426520e+02
424             	3.37429443e+02
425             	3.37431911e+02
426             	3.37433866e+02
427             	3.37435265e+02
428             	3.37436106e+02
429             	3.37436403e+02
430             	3.37436196e+02
431             	3.37435552e+02
432             	3.37434576e+02
433             	3.37433369e+02
434             	3.37432042e+02
435             	3.37430715e+02
436             	3.37429505e+02
437             	3.37428504e+02
438             	3.37427796e+02
439             	3.37427465e+02
440             	3.37427560e+02
441             	3.37428100e+02
442             	3.37429099e+02
443             	3.37430523e+02
444             	3.37432330e+02
445             	3.37434463e+02
446             	3.37436865e+02
447             	3.37439470e+02
448             	3.37442181e+02
449             	3.37444923e+02
450             	3.37447615e+02
451             	3.37450183e+02
452             	3.37452568e+02
453             	3.37454721e+02
454             	3.37456615e+02
455             	3.37458246e+02
456             	3.37459618e+02
457             	3.37460726e+02
458             	3.37461604e+02
459             	3.37462275e+02
460             	3.37462764e+02
461             	3.37463091e+02
462             	3.37463275e+02
463             	3.37463348e+02
464             	3.37463339e+02
465             	3.37463273e+02
466             	3.37463170e+02
467             	3.37463068e+02
468             	3.37462994e+02
469             	3.37462976e+02
470             	3.37463043e+02
471             	3.37463221e+02
472             	3.37463530e+02
473             	3.37463995e+02
474             	3.37464614e+02
475             	3.37465388e+02
476             	3.37466322e+02
477             	3.37467388e+02
478             	3.37468554e+02
479             	3.37469792e+02
480             	3.37471069e+02
481             	3.37472353e+02
482             	3.37473603e+02
483             	3.37474800e+02
484             	3.37475929e+02
485             	3.37476976e+02
486             	3.37477928e+02
487             	3.37478770e+02
488             	3.37479500e+02
489             	3.37480113e+02
490             	3.37480613e+02
491             	3.37481009e+02
492             	3.37481307e+02
493             	3.37481518e+02
494             	3.37481666e+02
495             	3.37481776e+02
496             	3.37481877e+02
497             	3.37481999e+02
498             	3.37482184e+02
499             	3.37482453e+02
500             	3.37482823e+02
501             	3.37483310e+02
502             	3.37483912e+02
503             	3.37484619e+02
504             	3.37485415e+02
505             	3.37486274e+02
506             	3.37487171e+02
507             	3.37488076e+02
508             	3.37488950e+02
509             	3.37489761e+02
510             	3.37490485e+02
511             	3.37491110e+02
512             	3.37491634e+02
513             	3.37492065e+02
514             	3.37492414e+02
515             	3.37492695e+02
516             	3.37492926e+02
517             	3.37493129e+02
518             	3.37493328e+02
519             	3.37493542e+02
520             	3.37493782e+02
521             	3.37494057e+02
522             	3.37494364e+02
523             	3.37494698e+02
524             	3.37495051e+02
525             	3.37495410e+02
526             	3.37495765e+02
527             	3.37496102e+02
528             	3.37496412e+02
529             	3.37496686e+02
530             	3.37496915e+02
531             	3.37497099e+02
532             	3.37497241e+02
533             	3.37497336e+02
534             	3.37497395e+02
535             	3.37497428e+02
536             	3.37497446e+02
537             	3.37497459e+02
538             	3.37497477e+02
539             	3.37497510e+02
540             	3.37497564e+02
541             	3.37497643e+02
542             	3.37497751e+02
543             	3.37497891e+02
544             	3.37498077e+02
545             	3.37498305e+02
546             	3.37498575e+02
547             	3.37498889e+02
548             	3.37499252e+02
549             	3.37499666e+02
550             	3.37500132e+02
551             	3.37500653e+02
552             	3.37501233e+02
553             	3.37501864e+02
554             	3.37502538e+02
555             	3.37503243e+02
556             	3.37503968e+02
557             	3.37504698e+02
558             	3.37505409e+02
559             	3.37506086e+02
560             	3.37506707e+02
561             	3.37507255e+02
562             	3.37507716e+02
563             	3.37508079e+02
564             	3.37508336e+02
565             	3.37508484e+02
566             	3.37508522e+02
567             	3.37508461e+02
568             	3.37508308e+02
569             	3.37508072e+02
570             	3.37507775e+02
571             	3.37507435e+02
572             	3.37507076e+02
573             	3.37506716e+02
574             	3.37506392e+02
575             	3.37506130e+02
576             	3.37505960e+02
577             	3.37505895e+02
578             	3.37505957e+02
579             	3.37506155e+02
580             	3.37506487e+02
581             	3.37506944e+02
582             	3.37507506e+02
583             	3.37508150e+02
584             	3.37508850e+02
585             	3.37509575e+02
586             	3.37510294e+02
587             	3.37510983e+02
588             	3.37511620e+02
589             	3.37512192e+02
590             	3.37512683e+02
591             	3.37513092e+02
592             	3.37513428e+02
593             	3.37513698e+02
594             	3.37513913e+02
595             	3.37514090e+02
596             	3.37514242e+02
597             	3.37514378e+02
598             	3.37514506e+02
599             	3.37514628e+02
600             	3.37514743e+02
601             	3.37514851e+02
602             	3.37514945e+02
603             	3.37515016e+02
604             	3.37515057e+02
605             	3.37515071e+02
606             	3.37515056e+02
607             	3.37515013e+02
608             	3.37514949e+02
609             	3.37514873e+02
610             	3.37514795e+02
611             	3.37514728e+02
612             	3.37514687e+02
613             	3.37514682e+02
614             	3.37514722e+02
615             	3.37514816e+02
616             	3.37514965e+02
617             	3.37515172e+02
618             	3.37515434e+02
619             	3.37515752e+02
620             	3.37516113e+02
621             	3.37516505e+02
