# Region        : cellZone component_2
# Cells         : 29
# Volume        : 3.46787218e-02
# Time          	volAverage(T)
1               	3.02484857e+02
2               	3.04880664e+02
3               	3.06815606e+02
4               	3.08474142e+02
5               	3.09983072e+02
6               	3.11375020e+02
7               	3.12635055e+02
8               	3.13802728e+02
9               	3.14950603e+02
10              	3.16068239e+02
11              	3.17063830e+02
12              	3.17876306e+02
13              	3.18501228e+02
14              	3.19045498e+02
15              	3.19541422e+02
16              	3.19965177e+02
17              	3.20328481e+02
18              	3.20637023e+02
19              	3.20974163e+02
20              	3.21381604e+02
21              	3.21879765e+02
22              	3.22391069e+02
23              	3.22940167e+02
24              	3.23534660e+02
25              	3.24193436e+02
26              	3.24704059e+02
27              	3.25167255e+02
28              	3.25695143e+02
29              	3.26133252e+02
30              	3.26497327e+02
31              	3.26745627e+02
32              	3.26898856e+02
33              	3.26927289e+02
34              	3.26884447e+02
35              	3.26804159e+02
36              	3.26637206e+02
37              	3.26297042e+02
38              	3.25765827e+02
39              	3.25098883e+02
40              	3.24420941e+02
41              	3.23649038e+02
42              	3.22869727e+02
43              	3.22227500e+02
44              	3.21912498e+02
45              	3.21367396e+02
46              	3.20819777e+02
47              	3.20363349e+02
48              	3.20002603e+02
49              	3.19792947e+02
50              	3.19779034e+02
51              	3.19752283e+02
52              	3.19731992e+02
53              	3.19734798e+02
54              	3.19713255e+02
55              	3.19673958e+02
56              	3.19626818e+02
57              	3.19602823e+02
58              	3.19583084e+02
59              	3.19588547e+02
60              	3.19587977e+02
61              	3.19585166e+02
62              	3.19572065e+02
63              	3.19550467e+02
64              	3.19536756e+02
65              	3.19521799e+02
66              	3.19522764e+02
67              	3.19513086e+02
68              	3.19497128e+02
69              	3.19482943e+02
70              	3.19458622e+02
71              	3.19435958e+02
72              	3.19426983e+02
73              	3.19441212e+02
74              	3.19456277e+02
75              	3.19482093e+02
76              	3.19487077e+02
77              	3.19498707e+02
78              	3.19502280e+02
79              	3.19513280e+02
80              	3.19517363e+02
81              	3.19516701e+02
82              	3.19506509e+02
83              	3.19491309e+02
84              	3.19489581e+02
85              	3.19494152e+02
86              	3.19522399e+02
87              	3.19556584e+02
88              	3.19582022e+02
89              	3.19600102e+02
90              	3.19598889e+02
91              	3.19600342e+02
92              	3.19613554e+02
93              	3.19640518e+02
94              	3.19674200e+02
95              	3.19695575e+02
96              	3.19715116e+02
97              	3.19727796e+02
98              	3.19735066e+02
99              	3.19733857e+02
100             	3.19738782e+02
101             	3.19743088e+02
102             	3.19835463e+02
103             	3.20030335e+02
104             	3.20180485e+02
105             	3.20354047e+02
106             	3.20524821e+02
107             	3.20811266e+02
108             	3.21157477e+02
109             	3.21543805e+02
110             	3.22023417e+02
111             	3.22398552e+02
112             	3.22786782e+02
113             	3.23140646e+02
114             	3.23518466e+02
115             	3.23883461e+02
116             	3.24244323e+02
117             	3.24562424e+02
118             	3.24821259e+02
119             	3.25063051e+02
120             	3.25292753e+02
121             	3.25495018e+02
122             	3.25677443e+02
123             	3.25842496e+02
124             	3.25993672e+02
125             	3.26133852e+02
126             	3.26259993e+02
127             	3.26364460e+02
128             	3.26458435e+02
129             	3.26538222e+02
130             	3.26617651e+02
131             	3.26694153e+02
132             	3.26775929e+02
133             	3.26858158e+02
134             	3.26940536e+02
135             	3.27021328e+02
136             	3.27100066e+02
137             	3.27176619e+02
138             	3.27248037e+02
139             	3.27320176e+02
140             	3.27379854e+02
141             	3.27432695e+02
142             	3.27477815e+02
143             	3.27517453e+02
144             	3.27551511e+02
145             	3.27582570e+02
146             	3.27612689e+02
147             	3.27640832e+02
148             	3.27668223e+02
149             	3.27699475e+02
150             	3.27724551e+02
151             	3.27752501e+02
152             	3.27773162e+02
153             	3.27789744e+02
154             	3.27796951e+02
155             	3.27795737e+02
156             	3.27793659e+02
157             	3.27789551e+02
158             	3.27784777e+02
159             	3.27780800e+02
160             	3.27778531e+02
161             	3.27777405e+02
162             	3.27775041e+02
163             	3.27776216e+02
164             	3.27777759e+02
165             	3.27778318e+02
166             	3.27776485e+02
167             	3.27772655e+02
168             	3.27767394e+02
169             	3.27763343e+02
170             	3.27762126e+02
171             	3.27765046e+02
172             	3.27770648e+02
173             	3.27780014e+02
174             	3.27791602e+02
175             	3.27803341e+02
176             	3.27816886e+02
177             	3.27829583e+02
178             	3.27842235e+02
179             	3.27855503e+02
180             	3.27868513e+02
181             	3.27881001e+02
182             	3.27898949e+02
183             	3.27918468e+02
184             	3.27938065e+02
185             	3.27957387e+02
186             	3.27981174e+02
187             	3.27995941e+02
188             	3.28015588e+02
189             	3.28027396e+02
190             	3.28035494e+02
191             	3.28041011e+02
192             	3.28045018e+02
193             	3.28051505e+02
194             	3.28051855e+02
195             	3.28053743e+02
196             	3.28053083e+02
197             	3.28055067e+02
198             	3.28054012e+02
199             	3.28053008e+02
200             	3.28049693e+02
201             	3.28045205e+02
202             	3.28039796e+02
203             	3.28033792e+02
204             	3.28028822e+02
205             	3.28025427e+02
206             	3.28023733e+02
207             	3.28022568e+02
208             	3.28020046e+02
209             	3.28018232e+02
210             	3.28017213e+02
211             	3.28017525e+02
212             	3.28018137e+02
213             	3.28020201e+02
214             	3.28026246e+02
215             	3.28034944e+02
216             	3.28048121e+02
217             	3.28059087e+02
218             	3.28069556e+02
219             	3.28080189e+02
220             	3.28086458e+02
221             	3.28091925e+02
222             	3.28094079e+02
223             	3.28093759e+02
224             	3.28091373e+02
225             	3.28087573e+02
226             	3.28083344e+02
227             	3.28079269e+02
228             	3.28075778e+02
229             	3.28073372e+02
230             	3.28071637e+02
231             	3.28070467e+02
232             	3.28069637e+02
233             	3.28068346e+02
234             	3.28067264e+02
235             	3.28061919e+02
236             	3.28058981e+02
237             	3.28058522e+02
238             	3.28059086e+02
239             	3.28060493e+02
240             	3.28063247e+02
241             	3.28065114e+02
242             	3.28065183e+02
243             	3.28066488e+02
244             	3.28067737e+02
245             	3.28067891e+02
246             	3.28066362e+02
247             	3.28065400e+02
248             	3.28064034e+02
249             	3.28061979e+02
250             	3.28058226e+02
251             	3.28057905e+02
252             	3.28060654e+02
253             	3.28068091e+02
254             	3.28080864e+02
255             	3.28092779e+02
256             	3.28106965e+02
257             	3.28120576e+02
258             	3.28133146e+02
259             	3.28145017e+02
260             	3.28154854e+02
261             	3.28164654e+02
262             	3.28173455e+02
263             	3.28178728e+02
264             	3.28179701e+02
265             	3.28180363e+02
266             	3.28182041e+02
267             	3.28186596e+02
268             	3.28195086e+02
269             	3.28206466e+02
270             	3.28219585e+02
271             	3.28237004e+02
272             	3.28251109e+02
273             	3.28263107e+02
274             	3.28262531e+02
275             	3.28266093e+02
276             	3.28266105e+02
277             	3.28272745e+02
278             	3.28276747e+02
279             	3.28284051e+02
280             	3.28297154e+02
281             	3.28312400e+02
282             	3.28330038e+02
283             	3.28353563e+02
284             	3.28370396e+02
285             	3.28384420e+02
286             	3.28401241e+02
287             	3.28415621e+02
288             	3.28420078e+02
289             	3.28428736e+02
290             	3.28429118e+02
291             	3.28425439e+02
292             	3.28428878e+02
293             	3.28430055e+02
294             	3.28432456e+02
295             	3.28438248e+02
296             	3.28446461e+02
297             	3.28450615e+02
298             	3.28453411e+02
299             	3.28456007e+02
300             	3.28460981e+02
301             	3.28461453e+02
302             	3.28463187e+02
303             	3.28466631e+02
304             	3.28467486e+02
305             	3.28462063e+02
306             	3.28456050e+02
307             	3.28453681e+02
308             	3.28447325e+02
309             	3.28437469e+02
310             	3.28425853e+02
311             	3.28419133e+02
312             	3.28413758e+02
313             	3.28410256e+02
314             	3.28407979e+02
315             	3.28409496e+02
316             	3.28405710e+02
317             	3.28399797e+02
318             	3.28395544e+02
319             	3.28388823e+02
320             	3.28382177e+02
321             	3.28375476e+02
322             	3.28367957e+02
323             	3.28360452e+02
324             	3.28354106e+02
325             	3.28345655e+02
326             	3.28341751e+02
327             	3.28341693e+02
328             	3.28343501e+02
329             	3.28348650e+02
330             	3.28352743e+02
331             	3.28355017e+02
332             	3.28360769e+02
333             	3.28365557e+02
334             	3.28368098e+02
335             	3.28369225e+02
336             	3.28370098e+02
337             	3.28369553e+02
338             	3.28373711e+02
339             	3.28375228e+02
340             	3.28379512e+02
341             	3.28386219e+02
342             	3.28397785e+02
343             	3.28406588e+02
344             	3.28418666e+02
345             	3.28423984e+02
346             	3.28430338e+02
347             	3.28435188e+02
348             	3.28433851e+02
349             	3.28429852e+02
350             	3.28423153e+02
351             	3.28413293e+02
352             	3.28409661e+02
353             	3.28406363e+02
354             	3.28403484e+02
355             	3.28402342e+02
356             	3.28403332e+02
357             	3.28409557e+02
358             	3.28416054e+02
359             	3.28425268e+02
360             	3.28440604e+02
361             	3.28451467e+02
362             	3.28461871e+02
363             	3.28471221e+02
364             	3.28476821e+02
365             	3.28480970e+02
366             	3.28477112e+02
367             	3.28477116e+02
368             	3.28472512e+02
369             	3.28465238e+02
370             	3.28459640e+02
371             	3.28457519e+02
372             	3.28461061e+02
373             	3.28467019e+02
374             	3.28473194e+02
375             	3.28478181e+02
376             	3.28478683e+02
377             	3.28479932e+02
378             	3.28484715e+02
379             	3.28489854e+02
380             	3.28487795e+02
381             	3.28482510e+02
382             	3.28477001e+02
383             	3.28470132e+02
384             	3.28466556e+02
385             	3.28464964e+02
386             	3.28462187e+02
387             	3.28462449e+02
388             	3.28461055e+02
389             	3.28457906e+02
390             	3.28450327e+02
391             	3.28442580e+02
392             	3.28435604e+02
393             	3.28424231e+02
394             	3.28415630e+02
395             	3.28407298e+02
396             	3.28399963e+02
397             	3.28394392e+02
398             	3.28386814e+02
399             	3.28377434e+02
400             	3.28366604e+02
401             	3.28353969e+02
402             	3.28340000e+02
403             	3.28325846e+02
404             	3.28313510e+02
405             	3.28302419e+02
406             	3.28292522e+02
407             	3.28282383e+02
408             	3.28275355e+02
409             	3.28271795e+02
410             	3.28268568e+02
411             	3.28264217e+02
412             	3.28261271e+02
413             	3.28258659e+02
414             	3.28254733e+02
415             	3.28252234e+02
416             	3.28249606e+02
417             	3.28246191e+02
418             	3.28242999e+02
419             	3.28239745e+02
420             	3.28236670e+02
421             	3.28233605e+02
422             	3.28229995e+02
423             	3.28225714e+02
424             	3.28225439e+02
425             	3.28221746e+02
426             	3.28215823e+02
427             	3.28208321e+02
428             	3.28200302e+02
429             	3.28192726e+02
430             	3.28186545e+02
431             	3.28182743e+02
432             	3.28181932e+02
433             	3.28183851e+02
434             	3.28188796e+02
435             	3.28193609e+02
436             	3.28198328e+02
437             	3.28205318e+02
438             	3.28212745e+02
439             	3.28219562e+02
440             	3.28225414e+02
441             	3.28230957e+02
442             	3.28237016e+02
443             	3.28246701e+02
444             	3.28255338e+02
445             	3.28261691e+02
446             	3.28265063e+02
447             	3.28266649e+02
448             	3.28266979e+02
449             	3.28265819e+02
450             	3.28259598e+02
451             	3.28252989e+02
452             	3.28248360e+02
453             	3.28244398e+02
454             	3.28241438e+02
455             	3.28241129e+02
456             	3.28240820e+02
457             	3.28237946e+02
458             	3.28237393e+02
459             	3.28237935e+02
460             	3.28237168e+02
461             	3.28237824e+02
462             	3.28239185e+02
463             	3.28243393e+02
464             	3.28247907e+02
465             	3.28253277e+02
466             	3.28261751e+02
467             	3.28273251e+02
468             	3.28287499e+02
469             	3.28304797e+02
470             	3.28319523e+02
471             	3.28335962e+02
472             	3.28355448e+02
473             	3.28372613e+02
474             	3.28382709e+02
475             	3.28388491e+02
476             	3.28393361e+02
477             	3.28400001e+02
478             	3.28408893e+02
479             	3.28410394e+02
480             	3.28411053e+02
481             	3.28411965e+02
482             	3.28414526e+02
483             	3.28418829e+02
484             	3.28425817e+02
485             	3.28434617e+02
486             	3.28445055e+02
487             	3.28468001e+02
488             	3.28480744e+02
489             	3.28481632e+02
490             	3.28480412e+02
491             	3.28481603e+02
492             	3.28481408e+02
493             	3.28482978e+02
494             	3.28487098e+02
495             	3.28496538e+02
496             	3.28503923e+02
497             	3.28518692e+02
498             	3.28532051e+02
499             	3.28546382e+02
500             	3.28560224e+02
501             	3.28590575e+02
502             	3.28626669e+02
503             	3.28647587e+02
504             	3.28671685e+02
505             	3.28681043e+02
506             	3.28693223e+02
507             	3.28690594e+02
508             	3.28687134e+02
509             	3.28681873e+02
510             	3.28682447e+02
511             	3.28685560e+02
512             	3.28691648e+02
513             	3.28703738e+02
514             	3.28726827e+02
515             	3.28751356e+02
516             	3.28778892e+02
517             	3.28794108e+02
518             	3.28807827e+02
519             	3.28815716e+02
520             	3.28815535e+02
521             	3.28809251e+02
522             	3.28809126e+02
523             	3.28813601e+02
524             	3.28814943e+02
525             	3.28815514e+02
526             	3.28814478e+02
527             	3.28815019e+02
528             	3.28810488e+02
529             	3.28810880e+02
530             	3.28821378e+02
531             	3.28829542e+02
532             	3.28825429e+02
533             	3.28813703e+02
534             	3.28795140e+02
535             	3.28778068e+02
536             	3.28761873e+02
537             	3.28747232e+02
538             	3.28731679e+02
539             	3.28718933e+02
540             	3.28708842e+02
541             	3.28699170e+02
542             	3.28695506e+02
543             	3.28689604e+02
544             	3.28681745e+02
545             	3.28666055e+02
546             	3.28651263e+02
547             	3.28641445e+02
548             	3.28629203e+02
549             	3.28610824e+02
550             	3.28602184e+02
551             	3.28599417e+02
552             	3.28592702e+02
553             	3.28585571e+02
554             	3.28581433e+02
555             	3.28579700e+02
556             	3.28579086e+02
557             	3.28588045e+02
558             	3.28602471e+02
559             	3.28646998e+02
560             	3.28688780e+02
561             	3.28723561e+02
562             	3.28756390e+02
563             	3.28797698e+02
564             	3.28819456e+02
565             	3.28830579e+02
566             	3.28828068e+02
567             	3.28833458e+02
568             	3.28838767e+02
569             	3.28852435e+02
570             	3.28867151e+02
571             	3.28883328e+02
572             	3.28911538e+02
573             	3.28940228e+02
574             	3.28963451e+02
575             	3.28998165e+02
576             	3.29045290e+02
577             	3.29097340e+02
578             	3.29128676e+02
579             	3.29126634e+02
580             	3.29119453e+02
581             	3.29112213e+02
582             	3.29098563e+02
583             	3.29084984e+02
584             	3.29070504e+02
585             	3.29056827e+02
586             	3.29042962e+02
587             	3.29042981e+02
588             	3.29058511e+02
589             	3.29066919e+02
590             	3.29073296e+02
591             	3.29075792e+02
592             	3.29057714e+02
593             	3.29021667e+02
594             	3.28989256e+02
595             	3.28962947e+02
596             	3.28938298e+02
597             	3.28922298e+02
598             	3.28904764e+02
599             	3.28896873e+02
600             	3.28900345e+02
601             	3.28903608e+02
602             	3.28913758e+02
603             	3.28915338e+02
604             	3.28917842e+02
605             	3.28932568e+02
606             	3.28940198e+02
607             	3.28943698e+02
608             	3.28939182e+02
609             	3.28932127e+02
610             	3.28916189e+02
611             	3.28895528e+02
612             	3.28870952e+02
613             	3.28848271e+02
614             	3.28829359e+02
615             	3.28814011e+02
616             	3.28802689e+02
617             	3.28796391e+02
618             	3.28803348e+02
619             	3.28812152e+02
620             	3.28812089e+02
621             	3.28798242e+02
