# Region        : cellZone component_0
# Cells         : 192
# Volume        : 3.65811614e-01
# Time          	volAverage(T)
1               	3.00680419e+02
2               	3.01355023e+02
3               	3.01996255e+02
4               	3.02613063e+02
5               	3.03213962e+02
6               	3.03802564e+02
7               	3.04381814e+02
8               	3.04953303e+02
9               	3.05518427e+02
10              	3.06082128e+02
11              	3.06636005e+02
12              	3.07171931e+02
13              	3.07703292e+02
14              	3.08215011e+02
15              	3.08723585e+02
16              	3.09226905e+02
17              	3.09722291e+02
18              	3.10214533e+02
19              	3.10704867e+02
20              	3.11196395e+02
21              	3.11683646e+02
22              	3.12154143e+02
23              	3.12609204e+02
24              	3.13064739e+02
25              	3.13517217e+02
26              	3.13968955e+02
27              	3.14416195e+02
28              	3.14852029e+02
29              	3.15276378e+02
30              	3.15711437e+02
31              	3.16142434e+02
32              	3.16543384e+02
33              	3.16922259e+02
34              	3.17270157e+02
35              	3.17604553e+02
36              	3.17914899e+02
37              	3.18205780e+02
38              	3.18473395e+02
39              	3.18746186e+02
40              	3.19039040e+02
41              	3.19343586e+02
42              	3.19649995e+02
43              	3.19961808e+02
44              	3.20276426e+02
45              	3.20610469e+02
46              	3.20910015e+02
47              	3.21135482e+02
48              	3.21326350e+02
49              	3.21522813e+02
50              	3.21752337e+02
51              	3.21997813e+02
52              	3.22252865e+02
53              	3.22531475e+02
54              	3.22813139e+02
55              	3.23088141e+02
56              	3.23340787e+02
57              	3.23586466e+02
58              	3.23812705e+02
59              	3.24035555e+02
60              	3.24251911e+02
61              	3.24481349e+02
62              	3.24722903e+02
63              	3.24980209e+02
64              	3.25259260e+02
65              	3.25552501e+02
66              	3.25837884e+02
67              	3.26114081e+02
68              	3.26378222e+02
69              	3.26617945e+02
70              	3.26843223e+02
71              	3.27058414e+02
72              	3.27278194e+02
73              	3.27501378e+02
74              	3.27734808e+02
75              	3.27979344e+02
76              	3.28231450e+02
77              	3.28483971e+02
78              	3.28733435e+02
79              	3.28981070e+02
80              	3.29236956e+02
81              	3.29486781e+02
82              	3.29738619e+02
83              	3.29987748e+02
84              	3.30221643e+02
85              	3.30455852e+02
86              	3.30688063e+02
87              	3.30903481e+02
88              	3.31118865e+02
89              	3.31332472e+02
90              	3.31539226e+02
91              	3.31759033e+02
92              	3.31982310e+02
93              	3.32204459e+02
94              	3.32427898e+02
95              	3.32652602e+02
96              	3.32882504e+02
97              	3.33118530e+02
98              	3.33345913e+02
99              	3.33565922e+02
100             	3.33785840e+02
101             	3.34002493e+02
102             	3.34218947e+02
103             	3.34436525e+02
104             	3.34639543e+02
105             	3.34847983e+02
106             	3.35064218e+02
107             	3.35277317e+02
108             	3.35477064e+02
109             	3.35663135e+02
110             	3.35840997e+02
111             	3.36025031e+02
112             	3.36204128e+02
113             	3.36380099e+02
114             	3.36563258e+02
115             	3.36747114e+02
116             	3.36928766e+02
117             	3.37105701e+02
118             	3.37274514e+02
119             	3.37439943e+02
120             	3.37604129e+02
121             	3.37778975e+02
122             	3.37964439e+02
123             	3.38157386e+02
124             	3.38335729e+02
125             	3.38518213e+02
126             	3.38702208e+02
127             	3.38874227e+02
128             	3.39043324e+02
129             	3.39211542e+02
130             	3.39380695e+02
131             	3.39522080e+02
132             	3.39637529e+02
133             	3.39730314e+02
134             	3.39821625e+02
135             	3.39923183e+02
136             	3.40032876e+02
137             	3.40148829e+02
138             	3.40273262e+02
139             	3.40399168e+02
140             	3.40532482e+02
141             	3.40667280e+02
142             	3.40804833e+02
143             	3.40945851e+02
144             	3.41090260e+02
145             	3.41237486e+02
146             	3.41384567e+02
147             	3.41530818e+02
148             	3.41668207e+02
149             	3.41807190e+02
150             	3.41946477e+02
151             	3.42080060e+02
152             	3.42204050e+02
153             	3.42319718e+02
154             	3.42430775e+02
155             	3.42541427e+02
156             	3.42649238e+02
157             	3.42754300e+02
158             	3.42856894e+02
159             	3.42957971e+02
160             	3.43072614e+02
161             	3.43184977e+02
162             	3.43303855e+02
163             	3.43420946e+02
164             	3.43540714e+02
165             	3.43658808e+02
166             	3.43773996e+02
167             	3.43887001e+02
168             	3.43995307e+02
169             	3.44106285e+02
170             	3.44214155e+02
171             	3.44314583e+02
172             	3.44408852e+02
173             	3.44499091e+02
174             	3.44591655e+02
175             	3.44679363e+02
176             	3.44776287e+02
177             	3.44871127e+02
178             	3.44971724e+02
179             	3.45074067e+02
180             	3.45175503e+02
181             	3.45268948e+02
182             	3.45370846e+02
183             	3.45462938e+02
184             	3.45548180e+02
185             	3.45615587e+02
186             	3.45675103e+02
187             	3.45736992e+02
188             	3.45801853e+02
189             	3.45872767e+02
190             	3.45951760e+02
191             	3.46036657e+02
192             	3.46123727e+02
193             	3.46213022e+02
194             	3.46304153e+02
195             	3.46395471e+02
196             	3.46486519e+02
197             	3.46575042e+02
198             	3.46662621e+02
199             	3.46751733e+02
200             	3.46836809e+02
201             	3.46918845e+02
202             	3.46997569e+02
203             	3.47072279e+02
204             	3.47147926e+02
205             	3.47222617e+02
206             	3.47296934e+02
207             	3.47371255e+02
208             	3.47444019e+02
209             	3.47513650e+02
210             	3.47581738e+02
211             	3.47645855e+02
212             	3.47705434e+02
213             	3.47771784e+02
214             	3.47838070e+02
215             	3.47907430e+02
216             	3.47976465e+02
217             	3.48045392e+02
218             	3.48106129e+02
219             	3.48176653e+02
220             	3.48242574e+02
221             	3.48298261e+02
222             	3.48341739e+02
223             	3.48377729e+02
224             	3.48408389e+02
225             	3.48444121e+02
226             	3.48490102e+02
227             	3.48539357e+02
228             	3.48589140e+02
229             	3.48646369e+02
230             	3.48712449e+02
231             	3.48776614e+02
232             	3.48836710e+02
233             	3.48892862e+02
234             	3.48943588e+02
235             	3.48991583e+02
236             	3.49038061e+02
237             	3.49082714e+02
238             	3.49124659e+02
239             	3.49165554e+02
240             	3.49204625e+02
241             	3.49243116e+02
242             	3.49278283e+02
243             	3.49310367e+02
244             	3.49347565e+02
245             	3.49388142e+02
246             	3.49437391e+02
247             	3.49491918e+02
248             	3.49548882e+02
249             	3.49606865e+02
250             	3.49673063e+02
251             	3.49738710e+02
252             	3.49802144e+02
253             	3.49866194e+02
254             	3.49930007e+02
255             	3.49993808e+02
256             	3.50050808e+02
257             	3.50104066e+02
258             	3.50156129e+02
259             	3.50202892e+02
260             	3.50246280e+02
261             	3.50287732e+02
262             	3.50327317e+02
263             	3.50365097e+02
264             	3.50401757e+02
265             	3.50438232e+02
266             	3.50475032e+02
267             	3.50512156e+02
268             	3.50549874e+02
269             	3.50589818e+02
270             	3.50628399e+02
271             	3.50669331e+02
272             	3.50712780e+02
273             	3.50756854e+02
274             	3.50800241e+02
275             	3.50842490e+02
276             	3.50883469e+02
277             	3.50923418e+02
278             	3.50962407e+02
279             	3.51000738e+02
280             	3.51037245e+02
281             	3.51069965e+02
282             	3.51100880e+02
283             	3.51131391e+02
284             	3.51161040e+02
285             	3.51191197e+02
286             	3.51221056e+02
287             	3.51249828e+02
288             	3.51278044e+02
289             	3.51306598e+02
290             	3.51335329e+02
291             	3.51364954e+02
292             	3.51395082e+02
293             	3.51425640e+02
294             	3.51456356e+02
295             	3.51487146e+02
296             	3.51518152e+02
297             	3.51548535e+02
298             	3.51580051e+02
299             	3.51612507e+02
300             	3.51644948e+02
301             	3.51678370e+02
302             	3.51709995e+02
303             	3.51740055e+02
304             	3.51770434e+02
305             	3.51800761e+02
306             	3.51829145e+02
307             	3.51857281e+02
308             	3.51884341e+02
309             	3.51912100e+02
310             	3.51939531e+02
311             	3.51965395e+02
312             	3.51992623e+02
313             	3.52020287e+02
314             	3.52047988e+02
315             	3.52074971e+02
316             	3.52102224e+02
317             	3.52129328e+02
318             	3.52155704e+02
319             	3.52181759e+02
320             	3.52206952e+02
321             	3.52232385e+02
322             	3.52256744e+02
323             	3.52280357e+02
324             	3.52303071e+02
325             	3.52324828e+02
326             	3.52345305e+02
327             	3.52366390e+02
328             	3.52387045e+02
329             	3.52407484e+02
330             	3.52426596e+02
331             	3.52444477e+02
332             	3.52462104e+02
333             	3.52480496e+02
334             	3.52496623e+02
335             	3.52511998e+02
336             	3.52527224e+02
337             	3.52541914e+02
338             	3.52556134e+02
339             	3.52570630e+02
340             	3.52585377e+02
341             	3.52601768e+02
342             	3.52619619e+02
343             	3.52638318e+02
344             	3.52657208e+02
345             	3.52676295e+02
346             	3.52695772e+02
347             	3.52714115e+02
348             	3.52731745e+02
349             	3.52749905e+02
350             	3.52767718e+02
351             	3.52784602e+02
352             	3.52800589e+02
353             	3.52816252e+02
354             	3.52831501e+02
355             	3.52846447e+02
356             	3.52861389e+02
357             	3.52876542e+02
358             	3.52891883e+02
359             	3.52907331e+02
360             	3.52923127e+02
361             	3.52938506e+02
362             	3.52953876e+02
363             	3.52969031e+02
364             	3.52984254e+02
365             	3.52999211e+02
366             	3.53014262e+02
367             	3.53029392e+02
368             	3.53044329e+02
369             	3.53059232e+02
370             	3.53073118e+02
371             	3.53086468e+02
372             	3.53099545e+02
373             	3.53111972e+02
374             	3.53123902e+02
375             	3.53135382e+02
376             	3.53146465e+02
377             	3.53157231e+02
378             	3.53167839e+02
379             	3.53178300e+02
380             	3.53188723e+02
381             	3.53199199e+02
382             	3.53209804e+02
383             	3.53220555e+02
384             	3.53231645e+02
385             	3.53242211e+02
386             	3.53252919e+02
387             	3.53263578e+02
388             	3.53274432e+02
389             	3.53285672e+02
390             	3.53296915e+02
391             	3.53307341e+02
392             	3.53318224e+02
393             	3.53330125e+02
394             	3.53342184e+02
395             	3.53354113e+02
396             	3.53365793e+02
397             	3.53377061e+02
398             	3.53387031e+02
399             	3.53396204e+02
400             	3.53405024e+02
401             	3.53413286e+02
402             	3.53420894e+02
403             	3.53428954e+02
404             	3.53436682e+02
405             	3.53445040e+02
406             	3.53453143e+02
407             	3.53461134e+02
408             	3.53469260e+02
409             	3.53478255e+02
410             	3.53487697e+02
411             	3.53497739e+02
412             	3.53507841e+02
413             	3.53518654e+02
414             	3.53529753e+02
415             	3.53540825e+02
416             	3.53551996e+02
417             	3.53562916e+02
418             	3.53573132e+02
419             	3.53582827e+02
420             	3.53592171e+02
421             	3.53601137e+02
422             	3.53609575e+02
423             	3.53617408e+02
424             	3.53624746e+02
425             	3.53631357e+02
426             	3.53637553e+02
427             	3.53643435e+02
428             	3.53649255e+02
429             	3.53655841e+02
430             	3.53662412e+02
431             	3.53669479e+02
432             	3.53676918e+02
433             	3.53684739e+02
434             	3.53692855e+02
435             	3.53701576e+02
436             	3.53710645e+02
437             	3.53720243e+02
438             	3.53729247e+02
439             	3.53737982e+02
440             	3.53746607e+02
441             	3.53754575e+02
442             	3.53762461e+02
443             	3.53769832e+02
444             	3.53776753e+02
445             	3.53783422e+02
446             	3.53789738e+02
447             	3.53795554e+02
448             	3.53801341e+02
449             	3.53806960e+02
450             	3.53812485e+02
451             	3.53818070e+02
452             	3.53823682e+02
453             	3.53829438e+02
454             	3.53835372e+02
455             	3.53841435e+02
456             	3.53847436e+02
457             	3.53854090e+02
458             	3.53861003e+02
459             	3.53867707e+02
460             	3.53874437e+02
461             	3.53881212e+02
462             	3.53887872e+02
463             	3.53894331e+02
464             	3.53900659e+02
465             	3.53906814e+02
466             	3.53912771e+02
467             	3.53918139e+02
468             	3.53923497e+02
469             	3.53928332e+02
470             	3.53933277e+02
471             	3.53937751e+02
472             	3.53942563e+02
473             	3.53947308e+02
474             	3.53951970e+02
475             	3.53956613e+02
476             	3.53961297e+02
477             	3.53966042e+02
478             	3.53970864e+02
479             	3.53975770e+02
480             	3.53980758e+02
481             	3.53985819e+02
482             	3.53990849e+02
483             	3.53996121e+02
484             	3.54001497e+02
485             	3.54006865e+02
486             	3.54012212e+02
487             	3.54017541e+02
488             	3.54022912e+02
489             	3.54027821e+02
490             	3.54032507e+02
491             	3.54037025e+02
492             	3.54041314e+02
493             	3.54045390e+02
494             	3.54049407e+02
495             	3.54053189e+02
496             	3.54056931e+02
497             	3.54060632e+02
498             	3.54064330e+02
499             	3.54068079e+02
500             	3.54071687e+02
501             	3.54075366e+02
502             	3.54079111e+02
503             	3.54082865e+02
504             	3.54086612e+02
505             	3.54090541e+02
506             	3.54094802e+02
507             	3.54099111e+02
508             	3.54103425e+02
509             	3.54107778e+02
510             	3.54112056e+02
511             	3.54116226e+02
512             	3.54120050e+02
513             	3.54123311e+02
514             	3.54126176e+02
515             	3.54128843e+02
516             	3.54131643e+02
517             	3.54134690e+02
518             	3.54137628e+02
519             	3.54140534e+02
520             	3.54143483e+02
521             	3.54146518e+02
522             	3.54149438e+02
523             	3.54152408e+02
524             	3.54155454e+02
525             	3.54158522e+02
526             	3.54161591e+02
527             	3.54164627e+02
528             	3.54167625e+02
529             	3.54170667e+02
530             	3.54173675e+02
531             	3.54176666e+02
532             	3.54179622e+02
533             	3.54182601e+02
534             	3.54185644e+02
535             	3.54188584e+02
536             	3.54191502e+02
537             	3.54194422e+02
538             	3.54197331e+02
539             	3.54200137e+02
540             	3.54202836e+02
541             	3.54205456e+02
542             	3.54207984e+02
543             	3.54210454e+02
544             	3.54212876e+02
545             	3.54215275e+02
546             	3.54217636e+02
547             	3.54220040e+02
548             	3.54222449e+02
549             	3.54224907e+02
550             	3.54227272e+02
551             	3.54229619e+02
552             	3.54231790e+02
553             	3.54234083e+02
554             	3.54236199e+02
555             	3.54238267e+02
556             	3.54240248e+02
557             	3.54242174e+02
558             	3.54244068e+02
559             	3.54246006e+02
560             	3.54247928e+02
561             	3.54249808e+02
562             	3.54251671e+02
563             	3.54253550e+02
564             	3.54255451e+02
565             	3.54257379e+02
566             	3.54259302e+02
567             	3.54261223e+02
568             	3.54263159e+02
569             	3.54265094e+02
570             	3.54266990e+02
571             	3.54268892e+02
572             	3.54270759e+02
573             	3.54272576e+02
574             	3.54274352e+02
575             	3.54276026e+02
576             	3.54277733e+02
577             	3.54279509e+02
578             	3.54281263e+02
579             	3.54283007e+02
580             	3.54284741e+02
581             	3.54286356e+02
582             	3.54287940e+02
583             	3.54289560e+02
584             	3.54291151e+02
585             	3.54292654e+02
586             	3.54294219e+02
587             	3.54295878e+02
588             	3.54297512e+02
589             	3.54299132e+02
590             	3.54300768e+02
591             	3.54302441e+02
592             	3.54304088e+02
593             	3.54305733e+02
594             	3.54307396e+02
595             	3.54309062e+02
596             	3.54310723e+02
597             	3.54312232e+02
598             	3.54313751e+02
599             	3.54315275e+02
600             	3.54316767e+02
601             	3.54318318e+02
602             	3.54319977e+02
603             	3.54321517e+02
604             	3.54323174e+02
605             	3.54324693e+02
606             	3.54326160e+02
607             	3.54327608e+02
608             	3.54328988e+02
609             	3.54330359e+02
610             	3.54331683e+02
611             	3.54332920e+02
612             	3.54334201e+02
613             	3.54335487e+02
614             	3.54336753e+02
615             	3.54337959e+02
616             	3.54339172e+02
617             	3.54340440e+02
618             	3.54341748e+02
619             	3.54343089e+02
620             	3.54344400e+02
621             	3.54345688e+02
