# Region        : cellZone component_3
# Cells         : 104
# Volume        : 2.01418171e-01
# Time          	volAverage(T)
1               	3.01705919e+02
2               	3.03397861e+02
3               	3.04979939e+02
4               	3.06491116e+02
5               	3.07962111e+02
6               	3.09403176e+02
7               	3.10821419e+02
8               	3.12224735e+02
9               	3.13617732e+02
10              	3.15001018e+02
11              	3.16375396e+02
12              	3.17730507e+02
13              	3.19064682e+02
14              	3.20375979e+02
15              	3.21671862e+02
16              	3.22939876e+02
17              	3.24199659e+02
18              	3.25452283e+02
19              	3.26700578e+02
20              	3.27935370e+02
21              	3.29150762e+02
22              	3.30350531e+02
23              	3.31528230e+02
24              	3.32691553e+02
25              	3.33825146e+02
26              	3.34924134e+02
27              	3.35990553e+02
28              	3.37030919e+02
29              	3.38047133e+02
30              	3.39043095e+02
31              	3.40013471e+02
32              	3.40961255e+02
33              	3.41892411e+02
34              	3.42807510e+02
35              	3.43701186e+02
36              	3.44570890e+02
37              	3.45418825e+02
38              	3.46264429e+02
39              	3.47102166e+02
40              	3.47928639e+02
41              	3.48746724e+02
42              	3.49564383e+02
43              	3.50358910e+02
44              	3.51136628e+02
45              	3.51882461e+02
46              	3.52592035e+02
47              	3.53269839e+02
48              	3.53922412e+02
49              	3.54555140e+02
50              	3.55170433e+02
51              	3.55763491e+02
52              	3.56360418e+02
53              	3.56968219e+02
54              	3.57583087e+02
55              	3.58208916e+02
56              	3.58823015e+02
57              	3.59417785e+02
58              	3.60006244e+02
59              	3.60558221e+02
60              	3.61073803e+02
61              	3.61555595e+02
62              	3.62020422e+02
63              	3.62472477e+02
64              	3.62916226e+02
65              	3.63354106e+02
66              	3.63787232e+02
67              	3.64206612e+02
68              	3.64651737e+02
69              	3.65080506e+02
70              	3.65504738e+02
71              	3.65931762e+02
72              	3.66377887e+02
73              	3.66836613e+02
74              	3.67279345e+02
75              	3.67708210e+02
76              	3.68138820e+02
77              	3.68545251e+02
78              	3.68892002e+02
79              	3.69213189e+02
80              	3.69521925e+02
81              	3.69814871e+02
82              	3.70107327e+02
83              	3.70395795e+02
84              	3.70683056e+02
85              	3.70993157e+02
86              	3.71332805e+02
87              	3.71661698e+02
88              	3.71969862e+02
89              	3.72288177e+02
90              	3.72580271e+02
91              	3.72822809e+02
92              	3.73033700e+02
93              	3.73217634e+02
94              	3.73401697e+02
95              	3.73590228e+02
96              	3.73795047e+02
97              	3.74009038e+02
98              	3.74236138e+02
99              	3.74522279e+02
100             	3.74732612e+02
101             	3.74935269e+02
102             	3.75139295e+02
103             	3.75340029e+02
104             	3.75515531e+02
105             	3.75648817e+02
106             	3.75759452e+02
107             	3.75838927e+02
108             	3.75945193e+02
109             	3.76068591e+02
110             	3.76207942e+02
111             	3.76401304e+02
112             	3.76501033e+02
113             	3.76410707e+02
114             	3.76272581e+02
115             	3.76238828e+02
116             	3.76220553e+02
117             	3.76184306e+02
118             	3.76145861e+02
119             	3.76127110e+02
120             	3.76121290e+02
121             	3.76150228e+02
122             	3.76217242e+02
123             	3.76320506e+02
124             	3.76532187e+02
125             	3.76621801e+02
126             	3.76613744e+02
127             	3.76504308e+02
128             	3.76364158e+02
129             	3.76345381e+02
130             	3.76331394e+02
131             	3.76327734e+02
132             	3.76343183e+02
133             	3.76348128e+02
134             	3.76352804e+02
135             	3.76339222e+02
136             	3.76360603e+02
137             	3.76401910e+02
138             	3.76506075e+02
139             	3.76634693e+02
140             	3.76695843e+02
141             	3.76744298e+02
142             	3.76814291e+02
143             	3.76935756e+02
144             	3.77035881e+02
145             	3.77103972e+02
146             	3.77159063e+02
147             	3.77195787e+02
148             	3.77326000e+02
149             	3.77411047e+02
150             	3.77464480e+02
151             	3.77428143e+02
152             	3.77415318e+02
153             	3.77424617e+02
154             	3.77460427e+02
155             	3.77533707e+02
156             	3.77615012e+02
157             	3.77695581e+02
158             	3.77779075e+02
159             	3.77853247e+02
160             	3.77897922e+02
161             	3.77911294e+02
162             	3.77913828e+02
163             	3.77940164e+02
164             	3.77987366e+02
165             	3.78086913e+02
166             	3.78253341e+02
167             	3.78393751e+02
168             	3.78543397e+02
169             	3.78669985e+02
170             	3.78794410e+02
171             	3.78895446e+02
172             	3.78972744e+02
173             	3.79033349e+02
174             	3.79079665e+02
175             	3.79125785e+02
176             	3.79202847e+02
177             	3.79291550e+02
178             	3.79414422e+02
179             	3.79585769e+02
180             	3.79721591e+02
181             	3.79857382e+02
182             	3.79981454e+02
183             	3.80107117e+02
184             	3.80219371e+02
185             	3.80293069e+02
186             	3.80344363e+02
187             	3.80389047e+02
188             	3.80423375e+02
189             	3.80431552e+02
190             	3.80453143e+02
191             	3.80470924e+02
192             	3.80530060e+02
193             	3.80622666e+02
194             	3.80759922e+02
195             	3.80853661e+02
196             	3.80950608e+02
197             	3.81054580e+02
198             	3.81132572e+02
199             	3.81208786e+02
200             	3.81268881e+02
201             	3.81310353e+02
202             	3.81319566e+02
203             	3.81347293e+02
204             	3.81379256e+02
205             	3.81425072e+02
206             	3.81506017e+02
207             	3.81614351e+02
208             	3.81761510e+02
209             	3.81906237e+02
210             	3.82069123e+02
211             	3.82214554e+02
212             	3.82336550e+02
213             	3.82435759e+02
214             	3.82517808e+02
215             	3.82582545e+02
216             	3.82630878e+02
217             	3.82672092e+02
218             	3.82721908e+02
219             	3.82775097e+02
220             	3.82847951e+02
221             	3.82952930e+02
222             	3.83077398e+02
223             	3.83219835e+02
224             	3.83355437e+02
225             	3.83504584e+02
226             	3.83627960e+02
227             	3.83725979e+02
228             	3.83813746e+02
229             	3.83890903e+02
230             	3.83954230e+02
231             	3.84006662e+02
232             	3.84048099e+02
233             	3.84079914e+02
234             	3.84125912e+02
235             	3.84189855e+02
236             	3.84271209e+02
237             	3.84370202e+02
238             	3.84481476e+02
239             	3.84595147e+02
240             	3.84711325e+02
241             	3.84827943e+02
242             	3.84947257e+02
243             	3.85077372e+02
244             	3.85216654e+02
245             	3.85351890e+02
246             	3.85464524e+02
247             	3.85577642e+02
248             	3.85673249e+02
249             	3.85745442e+02
250             	3.85807410e+02
251             	3.85866234e+02
252             	3.85921338e+02
253             	3.85978084e+02
254             	3.86034985e+02
255             	3.86081841e+02
256             	3.86138436e+02
257             	3.86194982e+02
258             	3.86275957e+02
259             	3.86353885e+02
260             	3.86444030e+02
261             	3.86540839e+02
262             	3.86637962e+02
263             	3.86737005e+02
264             	3.86831607e+02
265             	3.86922373e+02
266             	3.87005688e+02
267             	3.87081306e+02
268             	3.87154265e+02
269             	3.87223415e+02
270             	3.87297802e+02
271             	3.87386622e+02
272             	3.87477831e+02
273             	3.87563087e+02
274             	3.87667189e+02
275             	3.87787694e+02
276             	3.87914977e+02
277             	3.88043224e+02
278             	3.88152514e+02
279             	3.88264608e+02
280             	3.88373291e+02
281             	3.88471507e+02
282             	3.88561954e+02
283             	3.88641995e+02
284             	3.88714402e+02
285             	3.88781304e+02
286             	3.88844595e+02
287             	3.88907639e+02
288             	3.88972217e+02
289             	3.89035756e+02
290             	3.89084202e+02
291             	3.89145783e+02
292             	3.89216307e+02
293             	3.89292385e+02
294             	3.89373246e+02
295             	3.89460888e+02
296             	3.89549603e+02
297             	3.89631495e+02
298             	3.89710744e+02
299             	3.89786445e+02
300             	3.89859153e+02
301             	3.89924847e+02
302             	3.89980493e+02
303             	3.90027567e+02
304             	3.90070800e+02
305             	3.90115360e+02
306             	3.90142572e+02
307             	3.90181741e+02
308             	3.90230582e+02
309             	3.90296153e+02
310             	3.90364637e+02
311             	3.90433129e+02
312             	3.90496004e+02
313             	3.90559870e+02
314             	3.90617664e+02
315             	3.90667762e+02
316             	3.90714954e+02
317             	3.90760482e+02
318             	3.90808702e+02
319             	3.90851457e+02
320             	3.90891673e+02
321             	3.90936147e+02
322             	3.90990495e+02
323             	3.91047821e+02
324             	3.91109462e+02
325             	3.91166663e+02
326             	3.91229542e+02
327             	3.91286564e+02
328             	3.91340511e+02
329             	3.91390036e+02
330             	3.91436149e+02
331             	3.91481937e+02
332             	3.91502215e+02
333             	3.91529591e+02
334             	3.91559567e+02
335             	3.91586297e+02
336             	3.91617692e+02
337             	3.91655345e+02
338             	3.91691312e+02
339             	3.91737005e+02
340             	3.91787009e+02
341             	3.91843167e+02
342             	3.91906367e+02
343             	3.91968009e+02
344             	3.92019978e+02
345             	3.92063569e+02
346             	3.92102500e+02
347             	3.92135491e+02
348             	3.92161821e+02
349             	3.92182489e+02
350             	3.92203283e+02
351             	3.92235709e+02
352             	3.92262654e+02
353             	3.92294349e+02
354             	3.92327031e+02
355             	3.92369296e+02
356             	3.92420706e+02
357             	3.92475986e+02
358             	3.92528841e+02
359             	3.92579173e+02
360             	3.92626967e+02
361             	3.92670622e+02
362             	3.92709911e+02
363             	3.92745895e+02
364             	3.92782423e+02
365             	3.92819586e+02
366             	3.92857387e+02
367             	3.92896348e+02
368             	3.92931721e+02
369             	3.92966026e+02
370             	3.92997279e+02
371             	3.93031684e+02
372             	3.93062653e+02
373             	3.93093133e+02
374             	3.93126324e+02
375             	3.93168129e+02
376             	3.93202705e+02
377             	3.93237298e+02
378             	3.93272753e+02
379             	3.93308523e+02
380             	3.93345563e+02
381             	3.93384551e+02
382             	3.93424881e+02
383             	3.93449995e+02
384             	3.93477572e+02
385             	3.93506861e+02
386             	3.93533983e+02
387             	3.93558475e+02
388             	3.93582650e+02
389             	3.93609265e+02
390             	3.93636514e+02
391             	3.93663131e+02
392             	3.93687018e+02
393             	3.93706518e+02
394             	3.93724900e+02
395             	3.93745581e+02
396             	3.93769744e+02
397             	3.93795951e+02
398             	3.93822299e+02
399             	3.93849903e+02
400             	3.93877746e+02
401             	3.93904741e+02
402             	3.93932090e+02
403             	3.93959211e+02
404             	3.93986180e+02
405             	3.94009134e+02
406             	3.94032541e+02
407             	3.94055607e+02
408             	3.94077254e+02
409             	3.94097843e+02
410             	3.94116742e+02
411             	3.94134949e+02
412             	3.94159395e+02
413             	3.94181388e+02
414             	3.94200791e+02
415             	3.94220794e+02
416             	3.94242314e+02
417             	3.94264827e+02
418             	3.94289219e+02
419             	3.94314197e+02
420             	3.94334314e+02
421             	3.94356533e+02
422             	3.94379023e+02
423             	3.94400300e+02
424             	3.94420309e+02
425             	3.94438623e+02
426             	3.94455482e+02
427             	3.94471180e+02
428             	3.94485762e+02
429             	3.94500304e+02
430             	3.94513230e+02
431             	3.94525858e+02
432             	3.94539428e+02
433             	3.94551564e+02
434             	3.94563492e+02
435             	3.94576285e+02
436             	3.94589675e+02
437             	3.94605040e+02
438             	3.94620243e+02
439             	3.94634440e+02
440             	3.94647801e+02
441             	3.94659901e+02
442             	3.94673109e+02
443             	3.94687191e+02
444             	3.94701040e+02
445             	3.94713265e+02
446             	3.94724838e+02
447             	3.94736258e+02
448             	3.94746979e+02
449             	3.94757865e+02
450             	3.94768764e+02
451             	3.94780228e+02
452             	3.94790763e+02
453             	3.94800944e+02
454             	3.94811405e+02
455             	3.94822219e+02
456             	3.94833356e+02
457             	3.94843746e+02
458             	3.94853944e+02
459             	3.94864263e+02
460             	3.94874880e+02
461             	3.94885783e+02
462             	3.94897051e+02
463             	3.94908635e+02
464             	3.94920528e+02
465             	3.94932320e+02
466             	3.94944043e+02
467             	3.94955353e+02
468             	3.94966357e+02
469             	3.94977549e+02
470             	3.94988340e+02
471             	3.94998466e+02
472             	3.95008406e+02
473             	3.95018165e+02
474             	3.95027163e+02
475             	3.95035680e+02
476             	3.95044292e+02
477             	3.95052712e+02
478             	3.95060881e+02
479             	3.95069406e+02
480             	3.95078216e+02
481             	3.95087292e+02
482             	3.95096545e+02
483             	3.95105749e+02
484             	3.95114502e+02
485             	3.95122928e+02
486             	3.95131249e+02
487             	3.95139393e+02
488             	3.95147462e+02
489             	3.95155737e+02
490             	3.95164087e+02
491             	3.95172389e+02
492             	3.95180611e+02
493             	3.95188600e+02
494             	3.95196525e+02
495             	3.95204083e+02
496             	3.95211425e+02
497             	3.95218373e+02
498             	3.95225498e+02
499             	3.95232632e+02
500             	3.95239611e+02
501             	3.95246328e+02
502             	3.95252875e+02
503             	3.95259237e+02
504             	3.95265540e+02
505             	3.95271679e+02
506             	3.95277759e+02
507             	3.95284094e+02
508             	3.95290501e+02
509             	3.95296543e+02
510             	3.95302474e+02
511             	3.95308212e+02
512             	3.95313785e+02
513             	3.95319675e+02
514             	3.95325579e+02
515             	3.95331492e+02
516             	3.95337519e+02
517             	3.95343645e+02
518             	3.95349794e+02
519             	3.95355797e+02
520             	3.95361111e+02
521             	3.95366477e+02
522             	3.95371886e+02
523             	3.95377065e+02
524             	3.95382168e+02
525             	3.95386943e+02
526             	3.95391507e+02
527             	3.95395907e+02
528             	3.95400294e+02
529             	3.95404791e+02
530             	3.95409169e+02
531             	3.95413290e+02
532             	3.95417479e+02
533             	3.95421604e+02
534             	3.95425760e+02
535             	3.95429895e+02
536             	3.95434149e+02
537             	3.95438375e+02
538             	3.95442625e+02
539             	3.95446913e+02
540             	3.95451172e+02
541             	3.95455327e+02
542             	3.95459405e+02
543             	3.95463388e+02
544             	3.95467292e+02
545             	3.95471105e+02
546             	3.95474901e+02
547             	3.95478683e+02
548             	3.95482455e+02
549             	3.95486141e+02
550             	3.95489773e+02
551             	3.95493377e+02
552             	3.95496925e+02
553             	3.95500409e+02
554             	3.95503923e+02
555             	3.95507394e+02
556             	3.95510838e+02
557             	3.95514272e+02
558             	3.95517625e+02
559             	3.95520910e+02
560             	3.95524155e+02
561             	3.95527159e+02
562             	3.95530218e+02
563             	3.95533218e+02
564             	3.95536151e+02
565             	3.95538984e+02
566             	3.95541809e+02
567             	3.95544539e+02
568             	3.95547271e+02
569             	3.95549926e+02
570             	3.95552555e+02
571             	3.95555102e+02
572             	3.95557646e+02
573             	3.95560141e+02
574             	3.95562623e+02
575             	3.95565065e+02
576             	3.95567534e+02
577             	3.95569979e+02
578             	3.95572431e+02
579             	3.95574815e+02
580             	3.95577178e+02
581             	3.95579476e+02
582             	3.95581779e+02
583             	3.95584048e+02
584             	3.95586297e+02
585             	3.95588491e+02
586             	3.95590699e+02
587             	3.95592869e+02
588             	3.95595062e+02
589             	3.95597221e+02
590             	3.95599403e+02
591             	3.95601555e+02
592             	3.95603727e+02
593             	3.95605862e+02
594             	3.95607977e+02
595             	3.95610050e+02
596             	3.95612122e+02
597             	3.95614133e+02
598             	3.95616146e+02
599             	3.95618099e+02
600             	3.95620033e+02
601             	3.95621934e+02
602             	3.95623823e+02
603             	3.95625605e+02
604             	3.95627415e+02
605             	3.95629150e+02
606             	3.95630900e+02
607             	3.95632601e+02
608             	3.95634299e+02
609             	3.95635945e+02
610             	3.95637599e+02
611             	3.95639199e+02
612             	3.95640785e+02
613             	3.95642314e+02
614             	3.95643842e+02
615             	3.95645319e+02
616             	3.95646793e+02
617             	3.95648215e+02
618             	3.95649713e+02
619             	3.95651135e+02
620             	3.95652553e+02
621             	3.95653925e+02
