# Region        : cellZone component_1
# Cells         : 81
# Volume        : 1.48685153e-01
# Time          	volAverage(T)
1               	3.00539108e+02
2               	3.01067056e+02
3               	3.01533175e+02
4               	3.01965617e+02
5               	3.02386613e+02
6               	3.02804238e+02
7               	3.03218375e+02
8               	3.03631433e+02
9               	3.04039580e+02
10              	3.04443031e+02
11              	3.04831587e+02
12              	3.05199896e+02
13              	3.05548803e+02
14              	3.05879245e+02
15              	3.06196296e+02
16              	3.06514689e+02
17              	3.06840033e+02
18              	3.07158010e+02
19              	3.07476598e+02
20              	3.07802715e+02
21              	3.08126594e+02
22              	3.08437149e+02
23              	3.08743179e+02
24              	3.09046566e+02
25              	3.09343767e+02
26              	3.09633898e+02
27              	3.09910847e+02
28              	3.10157113e+02
29              	3.10381061e+02
30              	3.10560080e+02
31              	3.10735366e+02
32              	3.10902476e+02
33              	3.11069349e+02
34              	3.11223799e+02
35              	3.11357036e+02
36              	3.11492974e+02
37              	3.11638515e+02
38              	3.11779299e+02
39              	3.11932579e+02
40              	3.12077030e+02
41              	3.12212007e+02
42              	3.12354679e+02
43              	3.12483833e+02
44              	3.12610473e+02
45              	3.12736660e+02
46              	3.12866146e+02
47              	3.12973406e+02
48              	3.13078417e+02
49              	3.13171453e+02
50              	3.13283882e+02
51              	3.13396002e+02
52              	3.13498924e+02
53              	3.13604109e+02
54              	3.13713307e+02
55              	3.13825557e+02
56              	3.13930017e+02
57              	3.14020468e+02
58              	3.14108626e+02
59              	3.14186971e+02
60              	3.14260471e+02
61              	3.14330034e+02
62              	3.14403889e+02
63              	3.14479325e+02
64              	3.14565532e+02
65              	3.14674841e+02
66              	3.14759066e+02
67              	3.14816718e+02
68              	3.14889122e+02
69              	3.14978246e+02
70              	3.15072261e+02
71              	3.15156893e+02
72              	3.15229985e+02
73              	3.15295136e+02
74              	3.15357488e+02
75              	3.15423626e+02
76              	3.15494242e+02
77              	3.15568043e+02
78              	3.15646719e+02
79              	3.15731606e+02
80              	3.15829270e+02
81              	3.15938203e+02
82              	3.16054911e+02
83              	3.16160762e+02
84              	3.16276694e+02
85              	3.16387267e+02
86              	3.16475904e+02
87              	3.16554240e+02
88              	3.16625982e+02
89              	3.16691872e+02
90              	3.16751741e+02
91              	3.16803114e+02
92              	3.16855877e+02
93              	3.16916837e+02
94              	3.16980599e+02
95              	3.17035211e+02
96              	3.17096454e+02
97              	3.17148591e+02
98              	3.17198072e+02
99              	3.17241745e+02
100             	3.17277448e+02
101             	3.17325630e+02
102             	3.17385215e+02
103             	3.17451691e+02
104             	3.17514508e+02
105             	3.17572910e+02
106             	3.17636284e+02
107             	3.17699452e+02
108             	3.17757833e+02
109             	3.17800894e+02
110             	3.17852946e+02
111             	3.17895747e+02
112             	3.17935274e+02
113             	3.17970082e+02
114             	3.18007613e+02
115             	3.18044443e+02
116             	3.18084616e+02
117             	3.18122864e+02
118             	3.18161745e+02
119             	3.18201777e+02
120             	3.18237702e+02
121             	3.18270437e+02
122             	3.18304355e+02
123             	3.18339314e+02
124             	3.18372885e+02
125             	3.18406969e+02
126             	3.18440063e+02
127             	3.18478338e+02
128             	3.18521051e+02
129             	3.18565499e+02
130             	3.18612253e+02
131             	3.18650162e+02
132             	3.18694564e+02
133             	3.18741659e+02
134             	3.18791208e+02
135             	3.18836848e+02
136             	3.18877752e+02
137             	3.18914470e+02
138             	3.18944009e+02
139             	3.18975278e+02
140             	3.19007624e+02
141             	3.19042133e+02
142             	3.19078363e+02
143             	3.19117343e+02
144             	3.19160826e+02
145             	3.19191271e+02
146             	3.19228188e+02
147             	3.19268998e+02
148             	3.19308551e+02
149             	3.19345341e+02
150             	3.19381715e+02
151             	3.19417182e+02
152             	3.19453541e+02
153             	3.19491438e+02
154             	3.19515975e+02
155             	3.19546945e+02
156             	3.19582508e+02
157             	3.19618234e+02
158             	3.19651221e+02
159             	3.19677030e+02
160             	3.19700517e+02
161             	3.19723910e+02
162             	3.19748945e+02
163             	3.19772152e+02
164             	3.19794752e+02
165             	3.19817437e+02
166             	3.19841008e+02
167             	3.19866103e+02
168             	3.19892831e+02
169             	3.19909023e+02
170             	3.19933343e+02
171             	3.19962113e+02
172             	3.19991130e+02
173             	3.20017610e+02
174             	3.20034817e+02
175             	3.20047275e+02
176             	3.20062360e+02
177             	3.20077778e+02
178             	3.20093751e+02
179             	3.20111272e+02
180             	3.20125047e+02
181             	3.20136640e+02
182             	3.20148599e+02
183             	3.20162371e+02
184             	3.20178984e+02
185             	3.20196917e+02
186             	3.20216014e+02
187             	3.20234253e+02
188             	3.20251673e+02
189             	3.20268696e+02
190             	3.20285300e+02
191             	3.20292651e+02
192             	3.20306658e+02
193             	3.20324571e+02
194             	3.20340214e+02
195             	3.20354211e+02
196             	3.20368599e+02
197             	3.20383101e+02
198             	3.20396962e+02
199             	3.20410001e+02
200             	3.20422594e+02
201             	3.20435064e+02
202             	3.20448048e+02
203             	3.20460659e+02
204             	3.20472778e+02
205             	3.20484921e+02
206             	3.20497303e+02
207             	3.20509272e+02
208             	3.20520065e+02
209             	3.20530788e+02
210             	3.20541432e+02
211             	3.20551540e+02
212             	3.20561134e+02
213             	3.20570438e+02
214             	3.20581040e+02
215             	3.20591184e+02
216             	3.20600797e+02
217             	3.20610255e+02
218             	3.20618663e+02
219             	3.20626925e+02
220             	3.20634975e+02
221             	3.20642718e+02
222             	3.20650016e+02
223             	3.20657085e+02
224             	3.20664097e+02
225             	3.20671058e+02
226             	3.20678064e+02
227             	3.20684838e+02
228             	3.20691477e+02
229             	3.20698169e+02
230             	3.20705547e+02
231             	3.20712933e+02
232             	3.20720269e+02
233             	3.20727703e+02
234             	3.20735162e+02
235             	3.20742630e+02
236             	3.20749800e+02
237             	3.20756383e+02
238             	3.20762388e+02
239             	3.20767655e+02
240             	3.20772280e+02
241             	3.20776486e+02
242             	3.20780394e+02
243             	3.20784218e+02
244             	3.20788891e+02
245             	3.20793626e+02
246             	3.20798144e+02
247             	3.20802280e+02
248             	3.20806492e+02
249             	3.20810522e+02
250             	3.20814315e+02
251             	3.20817961e+02
252             	3.20821654e+02
253             	3.20825724e+02
254             	3.20830423e+02
255             	3.20834942e+02
256             	3.20839091e+02
257             	3.20842891e+02
258             	3.20846612e+02
259             	3.20850495e+02
260             	3.20854747e+02
261             	3.20858895e+02
262             	3.20863274e+02
263             	3.20867001e+02
264             	3.20870915e+02
265             	3.20874920e+02
266             	3.20879013e+02
267             	3.20883013e+02
268             	3.20886885e+02
269             	3.20890804e+02
270             	3.20895074e+02
271             	3.20899125e+02
272             	3.20903292e+02
273             	3.20907413e+02
274             	3.20911386e+02
275             	3.20915037e+02
276             	3.20918354e+02
277             	3.20921351e+02
278             	3.20924172e+02
279             	3.20926701e+02
280             	3.20928886e+02
281             	3.20931032e+02
282             	3.20933129e+02
283             	3.20935183e+02
284             	3.20937325e+02
285             	3.20939275e+02
286             	3.20941210e+02
287             	3.20943082e+02
288             	3.20944740e+02
289             	3.20946467e+02
290             	3.20948326e+02
291             	3.20950232e+02
292             	3.20952095e+02
293             	3.20953986e+02
294             	3.20955949e+02
295             	3.20958248e+02
296             	3.20961353e+02
297             	3.20964323e+02
298             	3.20967162e+02
299             	3.20969611e+02
300             	3.20971987e+02
301             	3.20974686e+02
302             	3.20977280e+02
303             	3.20979399e+02
304             	3.20981093e+02
305             	3.20982562e+02
306             	3.20983782e+02
307             	3.20984787e+02
308             	3.20985890e+02
309             	3.20987203e+02
310             	3.20988516e+02
311             	3.20989899e+02
312             	3.20991387e+02
313             	3.20992880e+02
314             	3.20994002e+02
315             	3.20995186e+02
316             	3.20996510e+02
317             	3.20997770e+02
318             	3.20998249e+02
319             	3.20998714e+02
320             	3.20999420e+02
321             	3.21000161e+02
322             	3.21001094e+02
323             	3.21002056e+02
324             	3.21003018e+02
325             	3.21004129e+02
326             	3.21006333e+02
327             	3.21008481e+02
328             	3.21010269e+02
329             	3.21011561e+02
330             	3.21012486e+02
331             	3.21013319e+02
332             	3.21013814e+02
333             	3.21013302e+02
334             	3.21012816e+02
335             	3.21012328e+02
336             	3.21011706e+02
337             	3.21011086e+02
338             	3.21010875e+02
339             	3.21010729e+02
340             	3.21011312e+02
341             	3.21012077e+02
342             	3.21013118e+02
343             	3.21014429e+02
344             	3.21016116e+02
345             	3.21018110e+02
346             	3.21020048e+02
347             	3.21021945e+02
348             	3.21023787e+02
349             	3.21025522e+02
350             	3.21027217e+02
351             	3.21028668e+02
352             	3.21029530e+02
353             	3.21030520e+02
354             	3.21031591e+02
355             	3.21032709e+02
356             	3.21033810e+02
357             	3.21034811e+02
358             	3.21035608e+02
359             	3.21036424e+02
360             	3.21037352e+02
361             	3.21038358e+02
362             	3.21039421e+02
363             	3.21040446e+02
364             	3.21041487e+02
365             	3.21042528e+02
366             	3.21043565e+02
367             	3.21044715e+02
368             	3.21045747e+02
369             	3.21046640e+02
370             	3.21047328e+02
371             	3.21048053e+02
372             	3.21048624e+02
373             	3.21048971e+02
374             	3.21049163e+02
375             	3.21049317e+02
376             	3.21049334e+02
377             	3.21048932e+02
378             	3.21048458e+02
379             	3.21048036e+02
380             	3.21047571e+02
381             	3.21047063e+02
382             	3.21046600e+02
383             	3.21046214e+02
384             	3.21045972e+02
385             	3.21045918e+02
386             	3.21045981e+02
387             	3.21046212e+02
388             	3.21046574e+02
389             	3.21047148e+02
390             	3.21047701e+02
391             	3.21048174e+02
392             	3.21048638e+02
393             	3.21049129e+02
394             	3.21049640e+02
395             	3.21050321e+02
396             	3.21050974e+02
397             	3.21051567e+02
398             	3.21052129e+02
399             	3.21052674e+02
400             	3.21053192e+02
401             	3.21053678e+02
402             	3.21054142e+02
403             	3.21054575e+02
404             	3.21054982e+02
405             	3.21055364e+02
406             	3.21055732e+02
407             	3.21056091e+02
408             	3.21056456e+02
409             	3.21056829e+02
410             	3.21057209e+02
411             	3.21057594e+02
412             	3.21057983e+02
413             	3.21058376e+02
414             	3.21058768e+02
415             	3.21059152e+02
416             	3.21059530e+02
417             	3.21059894e+02
418             	3.21060249e+02
419             	3.21060592e+02
420             	3.21060923e+02
421             	3.21061242e+02
422             	3.21061540e+02
423             	3.21061819e+02
424             	3.21062087e+02
425             	3.21062348e+02
426             	3.21062605e+02
427             	3.21062857e+02
428             	3.21063111e+02
429             	3.21063368e+02
430             	3.21063631e+02
431             	3.21063899e+02
432             	3.21064170e+02
433             	3.21064441e+02
434             	3.21064717e+02
435             	3.21064993e+02
436             	3.21065272e+02
437             	3.21065549e+02
438             	3.21065828e+02
439             	3.21066106e+02
440             	3.21066381e+02
441             	3.21066644e+02
442             	3.21066893e+02
443             	3.21067132e+02
444             	3.21067360e+02
445             	3.21067577e+02
446             	3.21067792e+02
447             	3.21068006e+02
448             	3.21068217e+02
449             	3.21068431e+02
450             	3.21068647e+02
451             	3.21068865e+02
452             	3.21069080e+02
453             	3.21069289e+02
454             	3.21069496e+02
455             	3.21069696e+02
456             	3.21069891e+02
457             	3.21070081e+02
458             	3.21070267e+02
459             	3.21070451e+02
460             	3.21070633e+02
461             	3.21070812e+02
462             	3.21070989e+02
463             	3.21071160e+02
464             	3.21071327e+02
465             	3.21071492e+02
466             	3.21071656e+02
467             	3.21071817e+02
468             	3.21071978e+02
469             	3.21072138e+02
470             	3.21072297e+02
471             	3.21072455e+02
472             	3.21072613e+02
473             	3.21072770e+02
474             	3.21072926e+02
475             	3.21073080e+02
476             	3.21073231e+02
477             	3.21073378e+02
478             	3.21073523e+02
479             	3.21073672e+02
480             	3.21073821e+02
481             	3.21073966e+02
482             	3.21074108e+02
483             	3.21074240e+02
484             	3.21074359e+02
485             	3.21074470e+02
486             	3.21074573e+02
487             	3.21074671e+02
488             	3.21074769e+02
489             	3.21074869e+02
490             	3.21074746e+02
491             	3.21074507e+02
492             	3.21074333e+02
493             	3.21074254e+02
494             	3.21074210e+02
495             	3.21074188e+02
496             	3.21074195e+02
497             	3.21074236e+02
498             	3.21074310e+02
499             	3.21074423e+02
500             	3.21074571e+02
501             	3.21074764e+02
502             	3.21074958e+02
503             	3.21075149e+02
504             	3.21075328e+02
505             	3.21075592e+02
506             	3.21075833e+02
507             	3.21076006e+02
508             	3.21076221e+02
509             	3.21076469e+02
510             	3.21076746e+02
511             	3.21077057e+02
512             	3.21077384e+02
513             	3.21077745e+02
514             	3.21078149e+02
515             	3.21078593e+02
516             	3.21079056e+02
517             	3.21079537e+02
518             	3.21080004e+02
519             	3.21080487e+02
520             	3.21080993e+02
521             	3.21081505e+02
522             	3.21082002e+02
523             	3.21082511e+02
524             	3.21083014e+02
525             	3.21083487e+02
526             	3.21083949e+02
527             	3.21084366e+02
528             	3.21084742e+02
529             	3.21085103e+02
530             	3.21085425e+02
531             	3.21085700e+02
532             	3.21085897e+02
533             	3.21086052e+02
534             	3.21086202e+02
535             	3.21086340e+02
536             	3.21086474e+02
537             	3.21086600e+02
538             	3.21086726e+02
539             	3.21086863e+02
540             	3.21086993e+02
541             	3.21087127e+02
542             	3.21087276e+02
543             	3.21087432e+02
544             	3.21087599e+02
545             	3.21087797e+02
546             	3.21088060e+02
547             	3.21088398e+02
548             	3.21088732e+02
549             	3.21089057e+02
550             	3.21089376e+02
551             	3.21089688e+02
552             	3.21089991e+02
553             	3.21090281e+02
554             	3.21090561e+02
555             	3.21090828e+02
556             	3.21091081e+02
557             	3.21091323e+02
558             	3.21091550e+02
559             	3.21091759e+02
560             	3.21091934e+02
561             	3.21092078e+02
562             	3.21092204e+02
563             	3.21092311e+02
564             	3.21092414e+02
565             	3.21092525e+02
566             	3.21092645e+02
567             	3.21092781e+02
568             	3.21092938e+02
569             	3.21093113e+02
570             	3.21093301e+02
571             	3.21093496e+02
572             	3.21093695e+02
573             	3.21093893e+02
574             	3.21094091e+02
575             	3.21094286e+02
576             	3.21094478e+02
577             	3.21094665e+02
578             	3.21094847e+02
579             	3.21095026e+02
580             	3.21095213e+02
581             	3.21095406e+02
582             	3.21095593e+02
583             	3.21095776e+02
584             	3.21095958e+02
585             	3.21096125e+02
586             	3.21096267e+02
587             	3.21096376e+02
588             	3.21096460e+02
589             	3.21096521e+02
590             	3.21096565e+02
591             	3.21096605e+02
592             	3.21096653e+02
593             	3.21096713e+02
594             	3.21096795e+02
595             	3.21096895e+02
596             	3.21097005e+02
597             	3.21097115e+02
598             	3.21097220e+02
599             	3.21097318e+02
600             	3.21097404e+02
601             	3.21097476e+02
602             	3.21097538e+02
603             	3.21097600e+02
604             	3.21097665e+02
605             	3.21097742e+02
606             	3.21097828e+02
607             	3.21097918e+02
608             	3.21098017e+02
609             	3.21098122e+02
610             	3.21098227e+02
611             	3.21098331e+02
612             	3.21098433e+02
613             	3.21098537e+02
614             	3.21098646e+02
615             	3.21098756e+02
616             	3.21098870e+02
617             	3.21098984e+02
618             	3.21099094e+02
619             	3.21099200e+02
620             	3.21099302e+02
621             	3.21099395e+02
