# Region        : cellZone pcb
# Cells         : 577
# Volume        : 1.06859030e+00
# Time          	volAverage(T)
1               	3.00004248e+02
2               	3.00012385e+02
3               	3.00023789e+02
4               	3.00038345e+02
5               	3.00055260e+02
6               	3.00074835e+02
7               	3.00096869e+02
8               	3.00121253e+02
9               	3.00147892e+02
10              	3.00176579e+02
11              	3.00207120e+02
12              	3.00239403e+02
13              	3.00273677e+02
14              	3.00309546e+02
15              	3.00347113e+02
16              	3.00385827e+02
17              	3.00426132e+02
18              	3.00467521e+02
19              	3.00510033e+02
20              	3.00553507e+02
21              	3.00598167e+02
22              	3.00644323e+02
23              	3.00691863e+02
24              	3.00740418e+02
25              	3.00789438e+02
26              	3.00839073e+02
27              	3.00889005e+02
28              	3.00939895e+02
29              	3.00991833e+02
30              	3.01044805e+02
31              	3.01098630e+02
32              	3.01153620e+02
33              	3.01208601e+02
34              	3.01263957e+02
35              	3.01319758e+02
36              	3.01374608e+02
37              	3.01429495e+02
38              	3.01484226e+02
39              	3.01540178e+02
40              	3.01597456e+02
41              	3.01654859e+02
42              	3.01712119e+02
43              	3.01769971e+02
44              	3.01828455e+02
45              	3.01886457e+02
46              	3.01942589e+02
47              	3.02000509e+02
48              	3.02058508e+02
49              	3.02116104e+02
50              	3.02173596e+02
51              	3.02230678e+02
52              	3.02287833e+02
53              	3.02345000e+02
54              	3.02401848e+02
55              	3.02457292e+02
56              	3.02514934e+02
57              	3.02572978e+02
58              	3.02630434e+02
59              	3.02687639e+02
60              	3.02745093e+02
61              	3.02800078e+02
62              	3.02854879e+02
63              	3.02909020e+02
64              	3.02963742e+02
65              	3.03017419e+02
66              	3.03069964e+02
67              	3.03121284e+02
68              	3.03172752e+02
69              	3.03224595e+02
70              	3.03276898e+02
71              	3.03328729e+02
72              	3.03379966e+02
73              	3.03430215e+02
74              	3.03480713e+02
75              	3.03530538e+02
76              	3.03579731e+02
77              	3.03628517e+02
78              	3.03678728e+02
79              	3.03730646e+02
80              	3.03780095e+02
81              	3.03828094e+02
82              	3.03874588e+02
83              	3.03920447e+02
84              	3.03965482e+02
85              	3.04009650e+02
86              	3.04053471e+02
87              	3.04097870e+02
88              	3.04142571e+02
89              	3.04188025e+02
90              	3.04234324e+02
91              	3.04281711e+02
92              	3.04326496e+02
93              	3.04370922e+02
94              	3.04414822e+02
95              	3.04457583e+02
96              	3.04499870e+02
97              	3.04541535e+02
98              	3.04583157e+02
99              	3.04625090e+02
100             	3.04667741e+02
101             	3.04710485e+02
102             	3.04753324e+02
103             	3.04794512e+02
104             	3.04834510e+02
105             	3.04874585e+02
106             	3.04914460e+02
107             	3.04954554e+02
108             	3.04994646e+02
109             	3.05033560e+02
110             	3.05073431e+02
111             	3.05114579e+02
112             	3.05155608e+02
113             	3.05195935e+02
114             	3.05235517e+02
115             	3.05274108e+02
116             	3.05311924e+02
117             	3.05349031e+02
118             	3.05385807e+02
119             	3.05423226e+02
120             	3.05459879e+02
121             	3.05495579e+02
122             	3.05531603e+02
123             	3.05567589e+02
124             	3.05603521e+02
125             	3.05639086e+02
126             	3.05674833e+02
127             	3.05710724e+02
128             	3.05746365e+02
129             	3.05781377e+02
130             	3.05815583e+02
131             	3.05849901e+02
132             	3.05884286e+02
133             	3.05917953e+02
134             	3.05951826e+02
135             	3.05987121e+02
136             	3.06022722e+02
137             	3.06055263e+02
138             	3.06087273e+02
139             	3.06118777e+02
140             	3.06151299e+02
141             	3.06183711e+02
142             	3.06215646e+02
143             	3.06247008e+02
144             	3.06279072e+02
145             	3.06311197e+02
146             	3.06342771e+02
147             	3.06374160e+02
148             	3.06405440e+02
149             	3.06435896e+02
150             	3.06466193e+02
151             	3.06496124e+02
152             	3.06525704e+02
153             	3.06554101e+02
154             	3.06583302e+02
155             	3.06611440e+02
156             	3.06640094e+02
157             	3.06669094e+02
158             	3.06696992e+02
159             	3.06724755e+02
160             	3.06753107e+02
161             	3.06781160e+02
162             	3.06809588e+02
163             	3.06838003e+02
164             	3.06866104e+02
165             	3.06894006e+02
166             	3.06921247e+02
167             	3.06947054e+02
168             	3.06972222e+02
169             	3.06996896e+02
170             	3.07021739e+02
171             	3.07045855e+02
172             	3.07069511e+02
173             	3.07093032e+02
174             	3.07116222e+02
175             	3.07139376e+02
176             	3.07162606e+02
177             	3.07186374e+02
178             	3.07209744e+02
179             	3.07233293e+02
180             	3.07257680e+02
181             	3.07281679e+02
182             	3.07304906e+02
183             	3.07328316e+02
184             	3.07351690e+02
185             	3.07375488e+02
186             	3.07400011e+02
187             	3.07424730e+02
188             	3.07448202e+02
189             	3.07471062e+02
190             	3.07493352e+02
191             	3.07515531e+02
192             	3.07537922e+02
193             	3.07559836e+02
194             	3.07580759e+02
195             	3.07601393e+02
196             	3.07621920e+02
197             	3.07641665e+02
198             	3.07661403e+02
199             	3.07680791e+02
200             	3.07699640e+02
201             	3.07717888e+02
202             	3.07735935e+02
203             	3.07755056e+02
204             	3.07773250e+02
205             	3.07791249e+02
206             	3.07808926e+02
207             	3.07826673e+02
208             	3.07844366e+02
209             	3.07862083e+02
210             	3.07880032e+02
211             	3.07898949e+02
212             	3.07918201e+02
213             	3.07937661e+02
214             	3.07957041e+02
215             	3.07975693e+02
216             	3.07993948e+02
217             	3.08012500e+02
218             	3.08030472e+02
219             	3.08047630e+02
220             	3.08064428e+02
221             	3.08080963e+02
222             	3.08097537e+02
223             	3.08113646e+02
224             	3.08129179e+02
225             	3.08144729e+02
226             	3.08160177e+02
227             	3.08175567e+02
228             	3.08191003e+02
229             	3.08206389e+02
230             	3.08221604e+02
231             	3.08236697e+02
232             	3.08251760e+02
233             	3.08266660e+02
234             	3.08281443e+02
235             	3.08296096e+02
236             	3.08310881e+02
237             	3.08325589e+02
238             	3.08340233e+02
239             	3.08354928e+02
240             	3.08369393e+02
241             	3.08383674e+02
242             	3.08397862e+02
243             	3.08412007e+02
244             	3.08425948e+02
245             	3.08439614e+02
246             	3.08453165e+02
247             	3.08466338e+02
248             	3.08479236e+02
249             	3.08492008e+02
250             	3.08504806e+02
251             	3.08517324e+02
252             	3.08529843e+02
253             	3.08542080e+02
254             	3.08553922e+02
255             	3.08565848e+02
256             	3.08577554e+02
257             	3.08589171e+02
258             	3.08600910e+02
259             	3.08612550e+02
260             	3.08624166e+02
261             	3.08635905e+02
262             	3.08647552e+02
263             	3.08659303e+02
264             	3.08670918e+02
265             	3.08682525e+02
266             	3.08694128e+02
267             	3.08705585e+02
268             	3.08717054e+02
269             	3.08728449e+02
270             	3.08739627e+02
271             	3.08750584e+02
272             	3.08761386e+02
273             	3.08771831e+02
274             	3.08782189e+02
275             	3.08792461e+02
276             	3.08802789e+02
277             	3.08813141e+02
278             	3.08823203e+02
279             	3.08832941e+02
280             	3.08842548e+02
281             	3.08852152e+02
282             	3.08861827e+02
283             	3.08871424e+02
284             	3.08880977e+02
285             	3.08890453e+02
286             	3.08899802e+02
287             	3.08909143e+02
288             	3.08918237e+02
289             	3.08927401e+02
290             	3.08936534e+02
291             	3.08945658e+02
292             	3.08954480e+02
293             	3.08963177e+02
294             	3.08971754e+02
295             	3.08980078e+02
296             	3.08988303e+02
297             	3.08996493e+02
298             	3.09004472e+02
299             	3.09012404e+02
300             	3.09020348e+02
301             	3.09028281e+02
302             	3.09036102e+02
303             	3.09043854e+02
304             	3.09051606e+02
305             	3.09059419e+02
306             	3.09067131e+02
307             	3.09074876e+02
308             	3.09082539e+02
309             	3.09090165e+02
310             	3.09097708e+02
311             	3.09105224e+02
312             	3.09112634e+02
313             	3.09119947e+02
314             	3.09127227e+02
315             	3.09134487e+02
316             	3.09141545e+02
317             	3.09148536e+02
318             	3.09155511e+02
319             	3.09162391e+02
320             	3.09169036e+02
321             	3.09175652e+02
322             	3.09182160e+02
323             	3.09188562e+02
324             	3.09194906e+02
325             	3.09201205e+02
326             	3.09207525e+02
327             	3.09213628e+02
328             	3.09219687e+02
329             	3.09225698e+02
330             	3.09231675e+02
331             	3.09237630e+02
332             	3.09243587e+02
333             	3.09249352e+02
334             	3.09255078e+02
335             	3.09260819e+02
336             	3.09266584e+02
337             	3.09272253e+02
338             	3.09277928e+02
339             	3.09283612e+02
340             	3.09289284e+02
341             	3.09294809e+02
342             	3.09300291e+02
343             	3.09305733e+02
344             	3.09311244e+02
345             	3.09316655e+02
346             	3.09321943e+02
347             	3.09327156e+02
348             	3.09332276e+02
349             	3.09337299e+02
350             	3.09342263e+02
351             	3.09347176e+02
352             	3.09352024e+02
353             	3.09356727e+02
354             	3.09361450e+02
355             	3.09366088e+02
356             	3.09370781e+02
357             	3.09375385e+02
358             	3.09379973e+02
359             	3.09384473e+02
360             	3.09388978e+02
361             	3.09393428e+02
362             	3.09397876e+02
363             	3.09402261e+02
364             	3.09406600e+02
365             	3.09410891e+02
366             	3.09415238e+02
367             	3.09419531e+02
368             	3.09423793e+02
369             	3.09427983e+02
370             	3.09432148e+02
371             	3.09436302e+02
372             	3.09440439e+02
373             	3.09444467e+02
374             	3.09448446e+02
375             	3.09452389e+02
376             	3.09456248e+02
377             	3.09460043e+02
378             	3.09463786e+02
379             	3.09467477e+02
380             	3.09471097e+02
381             	3.09474628e+02
382             	3.09478143e+02
383             	3.09481638e+02
384             	3.09485090e+02
385             	3.09488477e+02
386             	3.09491854e+02
387             	3.09495168e+02
388             	3.09498535e+02
389             	3.09501827e+02
390             	3.09505132e+02
391             	3.09508399e+02
392             	3.09511649e+02
393             	3.09514921e+02
394             	3.09518190e+02
395             	3.09521409e+02
396             	3.09524640e+02
397             	3.09527802e+02
398             	3.09530956e+02
399             	3.09534120e+02
400             	3.09537287e+02
401             	3.09540393e+02
402             	3.09543480e+02
403             	3.09546528e+02
404             	3.09549528e+02
405             	3.09552458e+02
406             	3.09555364e+02
407             	3.09558220e+02
408             	3.09561013e+02
409             	3.09563751e+02
410             	3.09566458e+02
411             	3.09569134e+02
412             	3.09571810e+02
413             	3.09574390e+02
414             	3.09576965e+02
415             	3.09579519e+02
416             	3.09582061e+02
417             	3.09584592e+02
418             	3.09587113e+02
419             	3.09589609e+02
420             	3.09592121e+02
421             	3.09594563e+02
422             	3.09596992e+02
423             	3.09599384e+02
424             	3.09601732e+02
425             	3.09604035e+02
426             	3.09606329e+02
427             	3.09608529e+02
428             	3.09610760e+02
429             	3.09612953e+02
430             	3.09615122e+02
431             	3.09617265e+02
432             	3.09619402e+02
433             	3.09621522e+02
434             	3.09623634e+02
435             	3.09625733e+02
436             	3.09627848e+02
437             	3.09629921e+02
438             	3.09632043e+02
439             	3.09634124e+02
440             	3.09636210e+02
441             	3.09638245e+02
442             	3.09640268e+02
443             	3.09642253e+02
444             	3.09644261e+02
445             	3.09646208e+02
446             	3.09648161e+02
447             	3.09650030e+02
448             	3.09651919e+02
449             	3.09653751e+02
450             	3.09655588e+02
451             	3.09657354e+02
452             	3.09659129e+02
453             	3.09660857e+02
454             	3.09662608e+02
455             	3.09664289e+02
456             	3.09665986e+02
457             	3.09667637e+02
458             	3.09669309e+02
459             	3.09670916e+02
460             	3.09672540e+02
461             	3.09674121e+02
462             	3.09675727e+02
463             	3.09677278e+02
464             	3.09678857e+02
465             	3.09680401e+02
466             	3.09681935e+02
467             	3.09683457e+02
468             	3.09684996e+02
469             	3.09686486e+02
470             	3.09687978e+02
471             	3.09689436e+02
472             	3.09690882e+02
473             	3.09692297e+02
474             	3.09693712e+02
475             	3.09695105e+02
476             	3.09696491e+02
477             	3.09697844e+02
478             	3.09699206e+02
479             	3.09700537e+02
480             	3.09701869e+02
481             	3.09703171e+02
482             	3.09704473e+02
483             	3.09705710e+02
484             	3.09706991e+02
485             	3.09708245e+02
486             	3.09709500e+02
487             	3.09710708e+02
488             	3.09711917e+02
489             	3.09713103e+02
490             	3.09714306e+02
491             	3.09715478e+02
492             	3.09716679e+02
493             	3.09717859e+02
494             	3.09719050e+02
495             	3.09720224e+02
496             	3.09721417e+02
497             	3.09722573e+02
498             	3.09723722e+02
499             	3.09724849e+02
500             	3.09725995e+02
501             	3.09727101e+02
502             	3.09728193e+02
503             	3.09729248e+02
504             	3.09730303e+02
505             	3.09731318e+02
506             	3.09732326e+02
507             	3.09733303e+02
508             	3.09734285e+02
509             	3.09735231e+02
510             	3.09736169e+02
511             	3.09737067e+02
512             	3.09737980e+02
513             	3.09738858e+02
514             	3.09739739e+02
515             	3.09740601e+02
516             	3.09741492e+02
517             	3.09742352e+02
518             	3.09743217e+02
519             	3.09744064e+02
520             	3.09744935e+02
521             	3.09745785e+02
522             	3.09746645e+02
523             	3.09747493e+02
524             	3.09748368e+02
525             	3.09749218e+02
526             	3.09750077e+02
527             	3.09750917e+02
528             	3.09751778e+02
529             	3.09752611e+02
530             	3.09753448e+02
531             	3.09754259e+02
532             	3.09755096e+02
533             	3.09755904e+02
534             	3.09756719e+02
535             	3.09757504e+02
536             	3.09758306e+02
537             	3.09759073e+02
538             	3.09759845e+02
539             	3.09760582e+02
540             	3.09761322e+02
541             	3.09762014e+02
542             	3.09762711e+02
543             	3.09763384e+02
544             	3.09764072e+02
545             	3.09764720e+02
546             	3.09765370e+02
547             	3.09765988e+02
548             	3.09766621e+02
549             	3.09767222e+02
550             	3.09767837e+02
551             	3.09768419e+02
552             	3.09769014e+02
553             	3.09769581e+02
554             	3.09770173e+02
555             	3.09770733e+02
556             	3.09771309e+02
557             	3.09771861e+02
558             	3.09772439e+02
559             	3.09773009e+02
560             	3.09773611e+02
561             	3.09774186e+02
562             	3.09774779e+02
563             	3.09775346e+02
564             	3.09775935e+02
565             	3.09776497e+02
566             	3.09777081e+02
567             	3.09777644e+02
568             	3.09778235e+02
569             	3.09778793e+02
570             	3.09779373e+02
571             	3.09779918e+02
572             	3.09780482e+02
573             	3.09781019e+02
574             	3.09781570e+02
575             	3.09782086e+02
576             	3.09782615e+02
577             	3.09783110e+02
578             	3.09783619e+02
579             	3.09784093e+02
580             	3.09784582e+02
581             	3.09785042e+02
582             	3.09785522e+02
583             	3.09785972e+02
584             	3.09786437e+02
585             	3.09786869e+02
586             	3.09787315e+02
587             	3.09787734e+02
588             	3.09788168e+02
589             	3.09788569e+02
590             	3.09788989e+02
591             	3.09789388e+02
592             	3.09789811e+02
593             	3.09790196e+02
594             	3.09790592e+02
595             	3.09790962e+02
596             	3.09791354e+02
597             	3.09791718e+02
598             	3.09792102e+02
599             	3.09792464e+02
600             	3.09792859e+02
601             	3.09793239e+02
602             	3.09793643e+02
603             	3.09794020e+02
604             	3.09794420e+02
605             	3.09794790e+02
606             	3.09795169e+02
607             	3.09795525e+02
608             	3.09795910e+02
609             	3.09796269e+02
610             	3.09796647e+02
611             	3.09796998e+02
612             	3.09797374e+02
613             	3.09797717e+02
614             	3.09798073e+02
615             	3.09798397e+02
616             	3.09798747e+02
617             	3.09799071e+02
618             	3.09799421e+02
619             	3.09799743e+02
620             	3.09800091e+02
621             	3.09800407e+02
