# Region        : cellZone component_1
# Cells         : 296
# Volume        : 5.54508389e-01
# Time          	volAverage(T)
1               	3.00797139e+02
2               	3.01585946e+02
3               	3.02326224e+02
4               	3.03030188e+02
5               	3.03712486e+02
6               	3.04379037e+02
7               	3.05031481e+02
8               	3.05671432e+02
9               	3.06300755e+02
10              	3.06920545e+02
11              	3.07528925e+02
12              	3.08130680e+02
13              	3.08722786e+02
14              	3.09305030e+02
15              	3.09884167e+02
16              	3.10450860e+02
17              	3.11010234e+02
18              	3.11564177e+02
19              	3.12120742e+02
20              	3.12677035e+02
21              	3.13216824e+02
22              	3.13754330e+02
23              	3.14275862e+02
24              	3.14788110e+02
25              	3.15299162e+02
26              	3.15805193e+02
27              	3.16300714e+02
28              	3.16778574e+02
29              	3.17247251e+02
30              	3.17707633e+02
31              	3.18155324e+02
32              	3.18599245e+02
33              	3.19050402e+02
34              	3.19499952e+02
35              	3.19930974e+02
36              	3.20318414e+02
37              	3.20684392e+02
38              	3.21027952e+02
39              	3.21392426e+02
40              	3.21758294e+02
41              	3.22117812e+02
42              	3.22483752e+02
43              	3.22834162e+02
44              	3.23172804e+02
45              	3.23504583e+02
46              	3.23836189e+02
47              	3.24185001e+02
48              	3.24512405e+02
49              	3.24781887e+02
50              	3.25028111e+02
51              	3.25298447e+02
52              	3.25586611e+02
53              	3.25868469e+02
54              	3.26160829e+02
55              	3.26449889e+02
56              	3.26732329e+02
57              	3.27002409e+02
58              	3.27252793e+02
59              	3.27515617e+02
60              	3.27765966e+02
61              	3.28023038e+02
62              	3.28283368e+02
63              	3.28554890e+02
64              	3.28826545e+02
65              	3.29105806e+02
66              	3.29402161e+02
67              	3.29667543e+02
68              	3.29887248e+02
69              	3.30079856e+02
70              	3.30288100e+02
71              	3.30487365e+02
72              	3.30680459e+02
73              	3.30869054e+02
74              	3.31040164e+02
75              	3.31220780e+02
76              	3.31405685e+02
77              	3.31603877e+02
78              	3.31819741e+02
79              	3.32045183e+02
80              	3.32213815e+02
81              	3.32329448e+02
82              	3.32478702e+02
83              	3.32631131e+02
84              	3.32780500e+02
85              	3.32913762e+02
86              	3.33028378e+02
87              	3.33144224e+02
88              	3.33269202e+02
89              	3.33405795e+02
90              	3.33549740e+02
91              	3.33719658e+02
92              	3.33896949e+02
93              	3.34036183e+02
94              	3.34157137e+02
95              	3.34273137e+02
96              	3.34407765e+02
97              	3.34542048e+02
98              	3.34663351e+02
99              	3.34769495e+02
100             	3.34863964e+02
101             	3.34972795e+02
102             	3.35090156e+02
103             	3.35220270e+02
104             	3.35367186e+02
105             	3.35539556e+02
106             	3.35726372e+02
107             	3.35933374e+02
108             	3.36120723e+02
109             	3.36278722e+02
110             	3.36424936e+02
111             	3.36562636e+02
112             	3.36701921e+02
113             	3.36848411e+02
114             	3.36999626e+02
115             	3.37144318e+02
116             	3.37282955e+02
117             	3.37413632e+02
118             	3.37546845e+02
119             	3.37683779e+02
120             	3.37838825e+02
121             	3.37994430e+02
122             	3.38153074e+02
123             	3.38310856e+02
124             	3.38466492e+02
125             	3.38620606e+02
126             	3.38774199e+02
127             	3.38922242e+02
128             	3.39067035e+02
129             	3.39204571e+02
130             	3.39333681e+02
131             	3.39459358e+02
132             	3.39582543e+02
133             	3.39707926e+02
134             	3.39832058e+02
135             	3.39955864e+02
136             	3.40082208e+02
137             	3.40210702e+02
138             	3.40340471e+02
139             	3.40465518e+02
140             	3.40594930e+02
141             	3.40719912e+02
142             	3.40847766e+02
143             	3.40972210e+02
144             	3.41091978e+02
145             	3.41208953e+02
146             	3.41327268e+02
147             	3.41451508e+02
148             	3.41568808e+02
149             	3.41688336e+02
150             	3.41811357e+02
151             	3.41940005e+02
152             	3.42070309e+02
153             	3.42197885e+02
154             	3.42324307e+02
155             	3.42450433e+02
156             	3.42569372e+02
157             	3.42691101e+02
158             	3.42817422e+02
159             	3.42948560e+02
160             	3.43083966e+02
161             	3.43219211e+02
162             	3.43350041e+02
163             	3.43468366e+02
164             	3.43574297e+02
165             	3.43670510e+02
166             	3.43752295e+02
167             	3.43829240e+02
168             	3.43905282e+02
169             	3.43989979e+02
170             	3.44081872e+02
171             	3.44181770e+02
172             	3.44293086e+02
173             	3.44406722e+02
174             	3.44512062e+02
175             	3.44616501e+02
176             	3.44721229e+02
177             	3.44812506e+02
178             	3.44900377e+02
179             	3.44984666e+02
180             	3.45068779e+02
181             	3.45154019e+02
182             	3.45239601e+02
183             	3.45324860e+02
184             	3.45409551e+02
185             	3.45494215e+02
186             	3.45579560e+02
187             	3.45660414e+02
188             	3.45740082e+02
189             	3.45815996e+02
190             	3.45890150e+02
191             	3.45961411e+02
192             	3.46032156e+02
193             	3.46104846e+02
194             	3.46177992e+02
195             	3.46251767e+02
196             	3.46328085e+02
197             	3.46403484e+02
198             	3.46479300e+02
199             	3.46555627e+02
200             	3.46632397e+02
201             	3.46706679e+02
202             	3.46775561e+02
203             	3.46845164e+02
204             	3.46911341e+02
205             	3.46977013e+02
206             	3.47041617e+02
207             	3.47109003e+02
208             	3.47170197e+02
209             	3.47227144e+02
210             	3.47281627e+02
211             	3.47337430e+02
212             	3.47395931e+02
213             	3.47456470e+02
214             	3.47516788e+02
215             	3.47576105e+02
216             	3.47632695e+02
217             	3.47687743e+02
218             	3.47739705e+02
219             	3.47793448e+02
220             	3.47850337e+02
221             	3.47906793e+02
222             	3.47963463e+02
223             	3.48019761e+02
224             	3.48074295e+02
225             	3.48125649e+02
226             	3.48174950e+02
227             	3.48225016e+02
228             	3.48274937e+02
229             	3.48323747e+02
230             	3.48373704e+02
231             	3.48424199e+02
232             	3.48477468e+02
233             	3.48533782e+02
234             	3.48588913e+02
235             	3.48645300e+02
236             	3.48700443e+02
237             	3.48752492e+02
238             	3.48801370e+02
239             	3.48849418e+02
240             	3.48896479e+02
241             	3.48940564e+02
242             	3.48981975e+02
243             	3.49024525e+02
244             	3.49067788e+02
245             	3.49112018e+02
246             	3.49156307e+02
247             	3.49199262e+02
248             	3.49242335e+02
249             	3.49283426e+02
250             	3.49322501e+02
251             	3.49359355e+02
252             	3.49396067e+02
253             	3.49433038e+02
254             	3.49470712e+02
255             	3.49509715e+02
256             	3.49552149e+02
257             	3.49596669e+02
258             	3.49641119e+02
259             	3.49685800e+02
260             	3.49729278e+02
261             	3.49769910e+02
262             	3.49810361e+02
263             	3.49850667e+02
264             	3.49885317e+02
265             	3.49920055e+02
266             	3.49956588e+02
267             	3.49994549e+02
268             	3.50029867e+02
269             	3.50065243e+02
270             	3.50101031e+02
271             	3.50134177e+02
272             	3.50166766e+02
273             	3.50199164e+02
274             	3.50231941e+02
275             	3.50263380e+02
276             	3.50294712e+02
277             	3.50325411e+02
278             	3.50355626e+02
279             	3.50385120e+02
280             	3.50417005e+02
281             	3.50450319e+02
282             	3.50484705e+02
283             	3.50518145e+02
284             	3.50550213e+02
285             	3.50578869e+02
286             	3.50605546e+02
287             	3.50631353e+02
288             	3.50655451e+02
289             	3.50681283e+02
290             	3.50707632e+02
291             	3.50735275e+02
292             	3.50764410e+02
293             	3.50793099e+02
294             	3.50821180e+02
295             	3.50848687e+02
296             	3.50877432e+02
297             	3.50906657e+02
298             	3.50937443e+02
299             	3.50961640e+02
300             	3.50988745e+02
301             	3.51018412e+02
302             	3.51049409e+02
303             	3.51079275e+02
304             	3.51106609e+02
305             	3.51131253e+02
306             	3.51155579e+02
307             	3.51176564e+02
308             	3.51195646e+02
309             	3.51213180e+02
310             	3.51230083e+02
311             	3.51247790e+02
312             	3.51267568e+02
313             	3.51287200e+02
314             	3.51304474e+02
315             	3.51324598e+02
316             	3.51344967e+02
317             	3.51365911e+02
318             	3.51388587e+02
319             	3.51412902e+02
320             	3.51438305e+02
321             	3.51464718e+02
322             	3.51492150e+02
323             	3.51519553e+02
324             	3.51541570e+02
325             	3.51563715e+02
326             	3.51586506e+02
327             	3.51608784e+02
328             	3.51627197e+02
329             	3.51645425e+02
330             	3.51665023e+02
331             	3.51684344e+02
332             	3.51703594e+02
333             	3.51722163e+02
334             	3.51740141e+02
335             	3.51757429e+02
336             	3.51774299e+02
337             	3.51792486e+02
338             	3.51811298e+02
339             	3.51830876e+02
340             	3.51852684e+02
341             	3.51871289e+02
342             	3.51891422e+02
343             	3.51913337e+02
344             	3.51936685e+02
345             	3.51959388e+02
346             	3.51980765e+02
347             	3.52001432e+02
348             	3.52017784e+02
349             	3.52032383e+02
350             	3.52045072e+02
351             	3.52055701e+02
352             	3.52064423e+02
353             	3.52072301e+02
354             	3.52080584e+02
355             	3.52090996e+02
356             	3.52103330e+02
357             	3.52118694e+02
358             	3.52135380e+02
359             	3.52155036e+02
360             	3.52176399e+02
361             	3.52197444e+02
362             	3.52217610e+02
363             	3.52235419e+02
364             	3.52250418e+02
365             	3.52264657e+02
366             	3.52278879e+02
367             	3.52292138e+02
368             	3.52304106e+02
369             	3.52313497e+02
370             	3.52324208e+02
371             	3.52335158e+02
372             	3.52346229e+02
373             	3.52356856e+02
374             	3.52366704e+02
375             	3.52375834e+02
376             	3.52384319e+02
377             	3.52393574e+02
378             	3.52403221e+02
379             	3.52413330e+02
380             	3.52423865e+02
381             	3.52434491e+02
382             	3.52446032e+02
383             	3.52458381e+02
384             	3.52469055e+02
385             	3.52479225e+02
386             	3.52488961e+02
387             	3.52500168e+02
388             	3.52512574e+02
389             	3.52525824e+02
390             	3.52540072e+02
391             	3.52555098e+02
392             	3.52569175e+02
393             	3.52581900e+02
394             	3.52593860e+02
395             	3.52605302e+02
396             	3.52615225e+02
397             	3.52624066e+02
398             	3.52632013e+02
399             	3.52639841e+02
400             	3.52647852e+02
401             	3.52656102e+02
402             	3.52664802e+02
403             	3.52673834e+02
404             	3.52684238e+02
405             	3.52694041e+02
406             	3.52704014e+02
407             	3.52714179e+02
408             	3.52724684e+02
409             	3.52735821e+02
410             	3.52747425e+02
411             	3.52759327e+02
412             	3.52771702e+02
413             	3.52783916e+02
414             	3.52795768e+02
415             	3.52807280e+02
416             	3.52818537e+02
417             	3.52828974e+02
418             	3.52838987e+02
419             	3.52848533e+02
420             	3.52857899e+02
421             	3.52867288e+02
422             	3.52876084e+02
423             	3.52885802e+02
424             	3.52894093e+02
425             	3.52902463e+02
426             	3.52911436e+02
427             	3.52921231e+02
428             	3.52929927e+02
429             	3.52938166e+02
430             	3.52946226e+02
431             	3.52954051e+02
432             	3.52961143e+02
433             	3.52967492e+02
434             	3.52972817e+02
435             	3.52977355e+02
436             	3.52981162e+02
437             	3.52984544e+02
438             	3.52987851e+02
439             	3.52991797e+02
440             	3.52997357e+02
441             	3.53004304e+02
442             	3.53009217e+02
443             	3.53014480e+02
444             	3.53020822e+02
445             	3.53027461e+02
446             	3.53033273e+02
447             	3.53039333e+02
448             	3.53045876e+02
449             	3.53051660e+02
450             	3.53056701e+02
451             	3.53061333e+02
452             	3.53065451e+02
453             	3.53068691e+02
454             	3.53071933e+02
455             	3.53075630e+02
456             	3.53079595e+02
457             	3.53083585e+02
458             	3.53087733e+02
459             	3.53092251e+02
460             	3.53096262e+02
461             	3.53099795e+02
462             	3.53102645e+02
463             	3.53105385e+02
464             	3.53108380e+02
465             	3.53111304e+02
466             	3.53114062e+02
467             	3.53116997e+02
468             	3.53120029e+02
469             	3.53122864e+02
470             	3.53125719e+02
471             	3.53129525e+02
472             	3.53134075e+02
473             	3.53139279e+02
474             	3.53144714e+02
475             	3.53150282e+02
476             	3.53155566e+02
477             	3.53160958e+02
478             	3.53165985e+02
479             	3.53170041e+02
480             	3.53173699e+02
481             	3.53177434e+02
482             	3.53180700e+02
483             	3.53184302e+02
484             	3.53188478e+02
485             	3.53192899e+02
486             	3.53197743e+02
487             	3.53202995e+02
488             	3.53208156e+02
489             	3.53213398e+02
490             	3.53218080e+02
491             	3.53222349e+02
492             	3.53226393e+02
493             	3.53229923e+02
494             	3.53233178e+02
495             	3.53236046e+02
496             	3.53238228e+02
497             	3.53239996e+02
498             	3.53241559e+02
499             	3.53243250e+02
500             	3.53244989e+02
501             	3.53246883e+02
502             	3.53249038e+02
503             	3.53251804e+02
504             	3.53255154e+02
505             	3.53258916e+02
506             	3.53262831e+02
507             	3.53266437e+02
508             	3.53269706e+02
509             	3.53272190e+02
510             	3.53274368e+02
511             	3.53276904e+02
512             	3.53279399e+02
513             	3.53282270e+02
514             	3.53285388e+02
515             	3.53288362e+02
516             	3.53290748e+02
517             	3.53292419e+02
518             	3.53294306e+02
519             	3.53296260e+02
520             	3.53297851e+02
521             	3.53299567e+02
522             	3.53300427e+02
523             	3.53301532e+02
524             	3.53302822e+02
525             	3.53304124e+02
526             	3.53305509e+02
527             	3.53307273e+02
528             	3.53309536e+02
529             	3.53312086e+02
530             	3.53314328e+02
531             	3.53316345e+02
532             	3.53318699e+02
533             	3.53320633e+02
534             	3.53322574e+02
535             	3.53324699e+02
536             	3.53327036e+02
537             	3.53329465e+02
538             	3.53331931e+02
539             	3.53334154e+02
540             	3.53336206e+02
541             	3.53338097e+02
542             	3.53339837e+02
543             	3.53341565e+02
544             	3.53343411e+02
545             	3.53345464e+02
546             	3.53347306e+02
547             	3.53349109e+02
548             	3.53350601e+02
549             	3.53351490e+02
550             	3.53352631e+02
551             	3.53353789e+02
552             	3.53354765e+02
553             	3.53355766e+02
554             	3.53357397e+02
555             	3.53359329e+02
556             	3.53361147e+02
557             	3.53362545e+02
558             	3.53363890e+02
559             	3.53365252e+02
560             	3.53366666e+02
561             	3.53368196e+02
562             	3.53369859e+02
563             	3.53371445e+02
564             	3.53373154e+02
565             	3.53375754e+02
566             	3.53378763e+02
567             	3.53381276e+02
568             	3.53383698e+02
569             	3.53385711e+02
570             	3.53387695e+02
571             	3.53389642e+02
572             	3.53391849e+02
573             	3.53394229e+02
574             	3.53396660e+02
575             	3.53398776e+02
576             	3.53400518e+02
577             	3.53402183e+02
578             	3.53403616e+02
579             	3.53404760e+02
580             	3.53405734e+02
581             	3.53406546e+02
582             	3.53407086e+02
583             	3.53407743e+02
584             	3.53408544e+02
585             	3.53409552e+02
586             	3.53410763e+02
587             	3.53411817e+02
588             	3.53412741e+02
589             	3.53413809e+02
590             	3.53414959e+02
591             	3.53416135e+02
592             	3.53417418e+02
593             	3.53418932e+02
594             	3.53420606e+02
595             	3.53422287e+02
596             	3.53424092e+02
597             	3.53426017e+02
598             	3.53427913e+02
599             	3.53429668e+02
600             	3.53430966e+02
601             	3.53432128e+02
602             	3.53433203e+02
603             	3.53434233e+02
604             	3.53435148e+02
605             	3.53436166e+02
606             	3.53437112e+02
607             	3.53438335e+02
608             	3.53439725e+02
609             	3.53441113e+02
610             	3.53442371e+02
611             	3.53443845e+02
612             	3.53445491e+02
613             	3.53447109e+02
614             	3.53448426e+02
615             	3.53449530e+02
616             	3.53450482e+02
617             	3.53451334e+02
618             	3.53452124e+02
619             	3.53453167e+02
620             	3.53454260e+02
621             	3.53455386e+02
