# Region        : cellZone pcb
# Cells         : 681
# Volume        : 1.27208145e+00
# Time          	volAverage(T)
1               	3.00003730e+02
2               	3.00010923e+02
3               	3.00020982e+02
4               	3.00034047e+02
5               	3.00048692e+02
6               	3.00065661e+02
7               	3.00084327e+02
8               	3.00106057e+02
9               	3.00129606e+02
10              	3.00154821e+02
11              	3.00183225e+02
12              	3.00212300e+02
13              	3.00243128e+02
14              	3.00276513e+02
15              	3.00311424e+02
16              	3.00346803e+02
17              	3.00382150e+02
18              	3.00417812e+02
19              	3.00454421e+02
20              	3.00494243e+02
21              	3.00537446e+02
22              	3.00581622e+02
23              	3.00627155e+02
24              	3.00674518e+02
25              	3.00723270e+02
26              	3.00772866e+02
27              	3.00822457e+02
28              	3.00871665e+02
29              	3.00921663e+02
30              	3.00970415e+02
31              	3.01019761e+02
32              	3.01071465e+02
33              	3.01125310e+02
34              	3.01179304e+02
35              	3.01232047e+02
36              	3.01285461e+02
37              	3.01340016e+02
38              	3.01395399e+02
39              	3.01451135e+02
40              	3.01507508e+02
41              	3.01565953e+02
42              	3.01624440e+02
43              	3.01684750e+02
44              	3.01741465e+02
45              	3.01796695e+02
46              	3.01851144e+02
47              	3.01904679e+02
48              	3.01957942e+02
49              	3.02013588e+02
50              	3.02070522e+02
51              	3.02123915e+02
52              	3.02181389e+02
53              	3.02241371e+02
54              	3.02305944e+02
55              	3.02366989e+02
56              	3.02423946e+02
57              	3.02484419e+02
58              	3.02548418e+02
59              	3.02609787e+02
60              	3.02668904e+02
61              	3.02725435e+02
62              	3.02783023e+02
63              	3.02841248e+02
64              	3.02897661e+02
65              	3.02953449e+02
66              	3.03016260e+02
67              	3.03079145e+02
68              	3.03139980e+02
69              	3.03199387e+02
70              	3.03257116e+02
71              	3.03315512e+02
72              	3.03375302e+02
73              	3.03435923e+02
74              	3.03496646e+02
75              	3.03555565e+02
76              	3.03611665e+02
77              	3.03662847e+02
78              	3.03717254e+02
79              	3.03771195e+02
80              	3.03826393e+02
81              	3.03882325e+02
82              	3.03938214e+02
83              	3.03994934e+02
84              	3.04052148e+02
85              	3.04110891e+02
86              	3.04171336e+02
87              	3.04231622e+02
88              	3.04289878e+02
89              	3.04347017e+02
90              	3.04404253e+02
91              	3.04459396e+02
92              	3.04513139e+02
93              	3.04567085e+02
94              	3.04620433e+02
95              	3.04674765e+02
96              	3.04728933e+02
97              	3.04784468e+02
98              	3.04840616e+02
99              	3.04894138e+02
100             	3.04943895e+02
101             	3.04988575e+02
102             	3.05038577e+02
103             	3.05089773e+02
104             	3.05139356e+02
105             	3.05190685e+02
106             	3.05240830e+02
107             	3.05291040e+02
108             	3.05342804e+02
109             	3.05395528e+02
110             	3.05448609e+02
111             	3.05498935e+02
112             	3.05552524e+02
113             	3.05603594e+02
114             	3.05651589e+02
115             	3.05698620e+02
116             	3.05743119e+02
117             	3.05789756e+02
118             	3.05837283e+02
119             	3.05882883e+02
120             	3.05931804e+02
121             	3.05986317e+02
122             	3.06034389e+02
123             	3.06078438e+02
124             	3.06124328e+02
125             	3.06167922e+02
126             	3.06211045e+02
127             	3.06254110e+02
128             	3.06297908e+02
129             	3.06339904e+02
130             	3.06381991e+02
131             	3.06425837e+02
132             	3.06471376e+02
133             	3.06517986e+02
134             	3.06562867e+02
135             	3.06607269e+02
136             	3.06650974e+02
137             	3.06692775e+02
138             	3.06730060e+02
139             	3.06766474e+02
140             	3.06802350e+02
141             	3.06840132e+02
142             	3.06878768e+02
143             	3.06916946e+02
144             	3.06955879e+02
145             	3.06997094e+02
146             	3.07038855e+02
147             	3.07081051e+02
148             	3.07122548e+02
149             	3.07160168e+02
150             	3.07197008e+02
151             	3.07234266e+02
152             	3.07271101e+02
153             	3.07307593e+02
154             	3.07342833e+02
155             	3.07378455e+02
156             	3.07414948e+02
157             	3.07450986e+02
158             	3.07488305e+02
159             	3.07528544e+02
160             	3.07569875e+02
161             	3.07609505e+02
162             	3.07641439e+02
163             	3.07673137e+02
164             	3.07703654e+02
165             	3.07733902e+02
166             	3.07764251e+02
167             	3.07794943e+02
168             	3.07827619e+02
169             	3.07861633e+02
170             	3.07896301e+02
171             	3.07931392e+02
172             	3.07967253e+02
173             	3.08001732e+02
174             	3.08030662e+02
175             	3.08058528e+02
176             	3.08086672e+02
177             	3.08114807e+02
178             	3.08142544e+02
179             	3.08169651e+02
180             	3.08197008e+02
181             	3.08224788e+02
182             	3.08252626e+02
183             	3.08280691e+02
184             	3.08309453e+02
185             	3.08338959e+02
186             	3.08367247e+02
187             	3.08395098e+02
188             	3.08423465e+02
189             	3.08451148e+02
190             	3.08477909e+02
191             	3.08504311e+02
192             	3.08531060e+02
193             	3.08559496e+02
194             	3.08588351e+02
195             	3.08615568e+02
196             	3.08642123e+02
197             	3.08667406e+02
198             	3.08691506e+02
199             	3.08714787e+02
200             	3.08738056e+02
201             	3.08761688e+02
202             	3.08785548e+02
203             	3.08808977e+02
204             	3.08831585e+02
205             	3.08854960e+02
206             	3.08879330e+02
207             	3.08904063e+02
208             	3.08928644e+02
209             	3.08953870e+02
210             	3.08980262e+02
211             	3.09004010e+02
212             	3.09026074e+02
213             	3.09048891e+02
214             	3.09071875e+02
215             	3.09094227e+02
216             	3.09115896e+02
217             	3.09137462e+02
218             	3.09159237e+02
219             	3.09181228e+02
220             	3.09203049e+02
221             	3.09224770e+02
222             	3.09245895e+02
223             	3.09266484e+02
224             	3.09286821e+02
225             	3.09306674e+02
226             	3.09326184e+02
227             	3.09345676e+02
228             	3.09364932e+02
229             	3.09384274e+02
230             	3.09403793e+02
231             	3.09422885e+02
232             	3.09442079e+02
233             	3.09461412e+02
234             	3.09480639e+02
235             	3.09499811e+02
236             	3.09519239e+02
237             	3.09538792e+02
238             	3.09558230e+02
239             	3.09577181e+02
240             	3.09595722e+02
241             	3.09614079e+02
242             	3.09632075e+02
243             	3.09649559e+02
244             	3.09666729e+02
245             	3.09683985e+02
246             	3.09701142e+02
247             	3.09717892e+02
248             	3.09734413e+02
249             	3.09751852e+02
250             	3.09768580e+02
251             	3.09784483e+02
252             	3.09800377e+02
253             	3.09816469e+02
254             	3.09832437e+02
255             	3.09848141e+02
256             	3.09863672e+02
257             	3.09879133e+02
258             	3.09894740e+02
259             	3.09910211e+02
260             	3.09925902e+02
261             	3.09941650e+02
262             	3.09956600e+02
263             	3.09971053e+02
264             	3.09985219e+02
265             	3.09999246e+02
266             	3.10013122e+02
267             	3.10027238e+02
268             	3.10041075e+02
269             	3.10054600e+02
270             	3.10068181e+02
271             	3.10082012e+02
272             	3.10095874e+02
273             	3.10109688e+02
274             	3.10123511e+02
275             	3.10137405e+02
276             	3.10151198e+02
277             	3.10164737e+02
278             	3.10177819e+02
279             	3.10190705e+02
280             	3.10203470e+02
281             	3.10216156e+02
282             	3.10228763e+02
283             	3.10241326e+02
284             	3.10253740e+02
285             	3.10265896e+02
286             	3.10277987e+02
287             	3.10289975e+02
288             	3.10301793e+02
289             	3.10313436e+02
290             	3.10324947e+02
291             	3.10336284e+02
292             	3.10347511e+02
293             	3.10358637e+02
294             	3.10369764e+02
295             	3.10380885e+02
296             	3.10392213e+02
297             	3.10403492e+02
298             	3.10414899e+02
299             	3.10426061e+02
300             	3.10437302e+02
301             	3.10448588e+02
302             	3.10459649e+02
303             	3.10470581e+02
304             	3.10481310e+02
305             	3.10491910e+02
306             	3.10502290e+02
307             	3.10512488e+02
308             	3.10522526e+02
309             	3.10532455e+02
310             	3.10542145e+02
311             	3.10551604e+02
312             	3.10560966e+02
313             	3.10570253e+02
314             	3.10579447e+02
315             	3.10588661e+02
316             	3.10597873e+02
317             	3.10607117e+02
318             	3.10616392e+02
319             	3.10625715e+02
320             	3.10634749e+02
321             	3.10643785e+02
322             	3.10652902e+02
323             	3.10661835e+02
324             	3.10670693e+02
325             	3.10679354e+02
326             	3.10687918e+02
327             	3.10696354e+02
328             	3.10704714e+02
329             	3.10713102e+02
330             	3.10721244e+02
331             	3.10729276e+02
332             	3.10737286e+02
333             	3.10745302e+02
334             	3.10753245e+02
335             	3.10760979e+02
336             	3.10768627e+02
337             	3.10776245e+02
338             	3.10783771e+02
339             	3.10791305e+02
340             	3.10798678e+02
341             	3.10805784e+02
342             	3.10812879e+02
343             	3.10820088e+02
344             	3.10827410e+02
345             	3.10834673e+02
346             	3.10841696e+02
347             	3.10848772e+02
348             	3.10855790e+02
349             	3.10862736e+02
350             	3.10869631e+02
351             	3.10876506e+02
352             	3.10883331e+02
353             	3.10890158e+02
354             	3.10896900e+02
355             	3.10903628e+02
356             	3.10910315e+02
357             	3.10916973e+02
358             	3.10923558e+02
359             	3.10930084e+02
360             	3.10936665e+02
361             	3.10943194e+02
362             	3.10949590e+02
363             	3.10955862e+02
364             	3.10962107e+02
365             	3.10968256e+02
366             	3.10974353e+02
367             	3.10980320e+02
368             	3.10986118e+02
369             	3.10991808e+02
370             	3.10997489e+02
371             	3.11003111e+02
372             	3.11008650e+02
373             	3.11014152e+02
374             	3.11019628e+02
375             	3.11025000e+02
376             	3.11030380e+02
377             	3.11035773e+02
378             	3.11041177e+02
379             	3.11046577e+02
380             	3.11051955e+02
381             	3.11057242e+02
382             	3.11062517e+02
383             	3.11067722e+02
384             	3.11072779e+02
385             	3.11077769e+02
386             	3.11082732e+02
387             	3.11087648e+02
388             	3.11092500e+02
389             	3.11097456e+02
390             	3.11102349e+02
391             	3.11107129e+02
392             	3.11111887e+02
393             	3.11116588e+02
394             	3.11121169e+02
395             	3.11125698e+02
396             	3.11130283e+02
397             	3.11134835e+02
398             	3.11139370e+02
399             	3.11143803e+02
400             	3.11148224e+02
401             	3.11152569e+02
402             	3.11156829e+02
403             	3.11161034e+02
404             	3.11165242e+02
405             	3.11169442e+02
406             	3.11173618e+02
407             	3.11177757e+02
408             	3.11181837e+02
409             	3.11185902e+02
410             	3.11189928e+02
411             	3.11193934e+02
412             	3.11197912e+02
413             	3.11201811e+02
414             	3.11205713e+02
415             	3.11209602e+02
416             	3.11213468e+02
417             	3.11217316e+02
418             	3.11221127e+02
419             	3.11224871e+02
420             	3.11228558e+02
421             	3.11232195e+02
422             	3.11235819e+02
423             	3.11239370e+02
424             	3.11242862e+02
425             	3.11246308e+02
426             	3.11249715e+02
427             	3.11253081e+02
428             	3.11256433e+02
429             	3.11259772e+02
430             	3.11263095e+02
431             	3.11266383e+02
432             	3.11269663e+02
433             	3.11272939e+02
434             	3.11276191e+02
435             	3.11279427e+02
436             	3.11282644e+02
437             	3.11285863e+02
438             	3.11289070e+02
439             	3.11292246e+02
440             	3.11295385e+02
441             	3.11298448e+02
442             	3.11301487e+02
443             	3.11304514e+02
444             	3.11307463e+02
445             	3.11310344e+02
446             	3.11313193e+02
447             	3.11316010e+02
448             	3.11318846e+02
449             	3.11321611e+02
450             	3.11324303e+02
451             	3.11326978e+02
452             	3.11329648e+02
453             	3.11332316e+02
454             	3.11334960e+02
455             	3.11337553e+02
456             	3.11340139e+02
457             	3.11342726e+02
458             	3.11345295e+02
459             	3.11347843e+02
460             	3.11350366e+02
461             	3.11352862e+02
462             	3.11355323e+02
463             	3.11357765e+02
464             	3.11360184e+02
465             	3.11362566e+02
466             	3.11364927e+02
467             	3.11367308e+02
468             	3.11369620e+02
469             	3.11371889e+02
470             	3.11374148e+02
471             	3.11376394e+02
472             	3.11378625e+02
473             	3.11380836e+02
474             	3.11383007e+02
475             	3.11385170e+02
476             	3.11387344e+02
477             	3.11389500e+02
478             	3.11391630e+02
479             	3.11393745e+02
480             	3.11395819e+02
481             	3.11397871e+02
482             	3.11399898e+02
483             	3.11401903e+02
484             	3.11403880e+02
485             	3.11405836e+02
486             	3.11407761e+02
487             	3.11409656e+02
488             	3.11411528e+02
489             	3.11413396e+02
490             	3.11415216e+02
491             	3.11417026e+02
492             	3.11418817e+02
493             	3.11420606e+02
494             	3.11422394e+02
495             	3.11424173e+02
496             	3.11425929e+02
497             	3.11427682e+02
498             	3.11429440e+02
499             	3.11431190e+02
500             	3.11432926e+02
501             	3.11434635e+02
502             	3.11436333e+02
503             	3.11438011e+02
504             	3.11439663e+02
505             	3.11441291e+02
506             	3.11442890e+02
507             	3.11444485e+02
508             	3.11446044e+02
509             	3.11447601e+02
510             	3.11449155e+02
511             	3.11450691e+02
512             	3.11452213e+02
513             	3.11453718e+02
514             	3.11455209e+02
515             	3.11456663e+02
516             	3.11458096e+02
517             	3.11459527e+02
518             	3.11460948e+02
519             	3.11462349e+02
520             	3.11463739e+02
521             	3.11465116e+02
522             	3.11466471e+02
523             	3.11467812e+02
524             	3.11469150e+02
525             	3.11470484e+02
526             	3.11471795e+02
527             	3.11473112e+02
528             	3.11474418e+02
529             	3.11475713e+02
530             	3.11477006e+02
531             	3.11478279e+02
532             	3.11479539e+02
533             	3.11480801e+02
534             	3.11482054e+02
535             	3.11483288e+02
536             	3.11484508e+02
537             	3.11485710e+02
538             	3.11486882e+02
539             	3.11488046e+02
540             	3.11489206e+02
541             	3.11490352e+02
542             	3.11491484e+02
543             	3.11492596e+02
544             	3.11493696e+02
545             	3.11494788e+02
546             	3.11495858e+02
547             	3.11496919e+02
548             	3.11497977e+02
549             	3.11499027e+02
550             	3.11500065e+02
551             	3.11501093e+02
552             	3.11502118e+02
553             	3.11503123e+02
554             	3.11504131e+02
555             	3.11505139e+02
556             	3.11506144e+02
557             	3.11507135e+02
558             	3.11508119e+02
559             	3.11509091e+02
560             	3.11510043e+02
561             	3.11510982e+02
562             	3.11511906e+02
563             	3.11512833e+02
564             	3.11513741e+02
565             	3.11514644e+02
566             	3.11515538e+02
567             	3.11516423e+02
568             	3.11517312e+02
569             	3.11518195e+02
570             	3.11519061e+02
571             	3.11519919e+02
572             	3.11520777e+02
573             	3.11521624e+02
574             	3.11522464e+02
575             	3.11523301e+02
576             	3.11524133e+02
577             	3.11524953e+02
578             	3.11525756e+02
579             	3.11526550e+02
580             	3.11527333e+02
581             	3.11528101e+02
582             	3.11528862e+02
583             	3.11529617e+02
584             	3.11530373e+02
585             	3.11531115e+02
586             	3.11531841e+02
587             	3.11532563e+02
588             	3.11533281e+02
589             	3.11533988e+02
590             	3.11534692e+02
591             	3.11535395e+02
592             	3.11536097e+02
593             	3.11536787e+02
594             	3.11537471e+02
595             	3.11538163e+02
596             	3.11538847e+02
597             	3.11539525e+02
598             	3.11540190e+02
599             	3.11540846e+02
600             	3.11541493e+02
601             	3.11542139e+02
602             	3.11542776e+02
603             	3.11543408e+02
604             	3.11544031e+02
605             	3.11544653e+02
606             	3.11545272e+02
607             	3.11545883e+02
608             	3.11546482e+02
609             	3.11547074e+02
610             	3.11547667e+02
611             	3.11548244e+02
612             	3.11548813e+02
613             	3.11549386e+02
614             	3.11549949e+02
615             	3.11550507e+02
616             	3.11551052e+02
617             	3.11551591e+02
618             	3.11552129e+02
619             	3.11552667e+02
620             	3.11553198e+02
621             	3.11553723e+02
