# Region        : cellZone component_2
# Cells         : 74
# Volume        : 1.37550095e-01
# Time          	volAverage(T)
1               	3.00462277e+02
2               	3.00919355e+02
3               	3.01347619e+02
4               	3.01759276e+02
5               	3.02164558e+02
6               	3.02565272e+02
7               	3.02962620e+02
8               	3.03357123e+02
9               	3.03748770e+02
10              	3.04137426e+02
11              	3.04523271e+02
12              	3.04905482e+02
13              	3.05286418e+02
14              	3.05664248e+02
15              	3.06038061e+02
16              	3.06406892e+02
17              	3.06770273e+02
18              	3.07132988e+02
19              	3.07490704e+02
20              	3.07843408e+02
21              	3.08184789e+02
22              	3.08510167e+02
23              	3.08830113e+02
24              	3.09145467e+02
25              	3.09455407e+02
26              	3.09760552e+02
27              	3.10059676e+02
28              	3.10350540e+02
29              	3.10640516e+02
30              	3.10923519e+02
31              	3.11207896e+02
32              	3.11484782e+02
33              	3.11748721e+02
34              	3.12013660e+02
35              	3.12268545e+02
36              	3.12511210e+02
37              	3.12739988e+02
38              	3.12967587e+02
39              	3.13181786e+02
40              	3.13391116e+02
41              	3.13595364e+02
42              	3.13799133e+02
43              	3.14000761e+02
44              	3.14202357e+02
45              	3.14402377e+02
46              	3.14601823e+02
47              	3.14798208e+02
48              	3.14991554e+02
49              	3.15181476e+02
50              	3.15367958e+02
51              	3.15549813e+02
52              	3.15728453e+02
53              	3.15900735e+02
54              	3.16062793e+02
55              	3.16223593e+02
56              	3.16383631e+02
57              	3.16541121e+02
58              	3.16697861e+02
59              	3.16849126e+02
60              	3.16998474e+02
61              	3.17144739e+02
62              	3.17283105e+02
63              	3.17420515e+02
64              	3.17554672e+02
65              	3.17684805e+02
66              	3.17813938e+02
67              	3.17938553e+02
68              	3.18058560e+02
69              	3.18179249e+02
70              	3.18300563e+02
71              	3.18420626e+02
72              	3.18538051e+02
73              	3.18649865e+02
74              	3.18761966e+02
75              	3.18870953e+02
76              	3.18977062e+02
77              	3.19079134e+02
78              	3.19179709e+02
79              	3.19279532e+02
80              	3.19381587e+02
81              	3.19473040e+02
82              	3.19571183e+02
83              	3.19671625e+02
84              	3.19771378e+02
85              	3.19868480e+02
86              	3.19956012e+02
87              	3.20041410e+02
88              	3.20122640e+02
89              	3.20200161e+02
90              	3.20273880e+02
91              	3.20344970e+02
92              	3.20420101e+02
93              	3.20495252e+02
94              	3.20575483e+02
95              	3.20655039e+02
96              	3.20727329e+02
97              	3.20807123e+02
98              	3.20887714e+02
99              	3.20966391e+02
100             	3.21041764e+02
101             	3.21115764e+02
102             	3.21185988e+02
103             	3.21256693e+02
104             	3.21328525e+02
105             	3.21392316e+02
106             	3.21458937e+02
107             	3.21525065e+02
108             	3.21591517e+02
109             	3.21656824e+02
110             	3.21722008e+02
111             	3.21787671e+02
112             	3.21852574e+02
113             	3.21915803e+02
114             	3.21979924e+02
115             	3.22040108e+02
116             	3.22099305e+02
117             	3.22156974e+02
118             	3.22215537e+02
119             	3.22274039e+02
120             	3.22333561e+02
121             	3.22391519e+02
122             	3.22449584e+02
123             	3.22507609e+02
124             	3.22563761e+02
125             	3.22618644e+02
126             	3.22671968e+02
127             	3.22725627e+02
128             	3.22778396e+02
129             	3.22830116e+02
130             	3.22881361e+02
131             	3.22930631e+02
132             	3.22978890e+02
133             	3.23027612e+02
134             	3.23075181e+02
135             	3.23122324e+02
136             	3.23169969e+02
137             	3.23216919e+02
138             	3.23264110e+02
139             	3.23311919e+02
140             	3.23356853e+02
141             	3.23400224e+02
142             	3.23443938e+02
143             	3.23485594e+02
144             	3.23527111e+02
145             	3.23568451e+02
146             	3.23609762e+02
147             	3.23650171e+02
148             	3.23688786e+02
149             	3.23726331e+02
150             	3.23764276e+02
151             	3.23800632e+02
152             	3.23836576e+02
153             	3.23873052e+02
154             	3.23908982e+02
155             	3.23944831e+02
156             	3.23981252e+02
157             	3.24017331e+02
158             	3.24053018e+02
159             	3.24088192e+02
160             	3.24122338e+02
161             	3.24155956e+02
162             	3.24187788e+02
163             	3.24217414e+02
164             	3.24247104e+02
165             	3.24276467e+02
166             	3.24305691e+02
167             	3.24334704e+02
168             	3.24363563e+02
169             	3.24392994e+02
170             	3.24421871e+02
171             	3.24449456e+02
172             	3.24477641e+02
173             	3.24506381e+02
174             	3.24534762e+02
175             	3.24562124e+02
176             	3.24586448e+02
177             	3.24609365e+02
178             	3.24633401e+02
179             	3.24656442e+02
180             	3.24679451e+02
181             	3.24702168e+02
182             	3.24724679e+02
183             	3.24748614e+02
184             	3.24772866e+02
185             	3.24794472e+02
186             	3.24817329e+02
187             	3.24841452e+02
188             	3.24864018e+02
189             	3.24886542e+02
190             	3.24908989e+02
191             	3.24930180e+02
192             	3.24951074e+02
193             	3.24971276e+02
194             	3.24991181e+02
195             	3.25010295e+02
196             	3.25029248e+02
197             	3.25047489e+02
198             	3.25065342e+02
199             	3.25083833e+02
200             	3.25102990e+02
201             	3.25122212e+02
202             	3.25140506e+02
203             	3.25158932e+02
204             	3.25177207e+02
205             	3.25195381e+02
206             	3.25213262e+02
207             	3.25230427e+02
208             	3.25247722e+02
209             	3.25263737e+02
210             	3.25279355e+02
211             	3.25295228e+02
212             	3.25310847e+02
213             	3.25326602e+02
214             	3.25341654e+02
215             	3.25356924e+02
216             	3.25372036e+02
217             	3.25387100e+02
218             	3.25401530e+02
219             	3.25415199e+02
220             	3.25428967e+02
221             	3.25442372e+02
222             	3.25455323e+02
223             	3.25467963e+02
224             	3.25480587e+02
225             	3.25493055e+02
226             	3.25505455e+02
227             	3.25518348e+02
228             	3.25531324e+02
229             	3.25543582e+02
230             	3.25555986e+02
231             	3.25568751e+02
232             	3.25581440e+02
233             	3.25593477e+02
234             	3.25605230e+02
235             	3.25617145e+02
236             	3.25628671e+02
237             	3.25639677e+02
238             	3.25650006e+02
239             	3.25659831e+02
240             	3.25669891e+02
241             	3.25679605e+02
242             	3.25689426e+02
243             	3.25699297e+02
244             	3.25709085e+02
245             	3.25719134e+02
246             	3.25729653e+02
247             	3.25739905e+02
248             	3.25749858e+02
249             	3.25759875e+02
250             	3.25769720e+02
251             	3.25778985e+02
252             	3.25787935e+02
253             	3.25796441e+02
254             	3.25804607e+02
255             	3.25812795e+02
256             	3.25821195e+02
257             	3.25829494e+02
258             	3.25837638e+02
259             	3.25845595e+02
260             	3.25853458e+02
261             	3.25861390e+02
262             	3.25869217e+02
263             	3.25876938e+02
264             	3.25884585e+02
265             	3.25892069e+02
266             	3.25899511e+02
267             	3.25906961e+02
268             	3.25914088e+02
269             	3.25921367e+02
270             	3.25928541e+02
271             	3.25935610e+02
272             	3.25942699e+02
273             	3.25949685e+02
274             	3.25956605e+02
275             	3.25963510e+02
276             	3.25970337e+02
277             	3.25976989e+02
278             	3.25983675e+02
279             	3.25990319e+02
280             	3.25996944e+02
281             	3.26003480e+02
282             	3.26009884e+02
283             	3.26016161e+02
284             	3.26022314e+02
285             	3.26028334e+02
286             	3.26034151e+02
287             	3.26039732e+02
288             	3.26045270e+02
289             	3.26050829e+02
290             	3.26056225e+02
291             	3.26061544e+02
292             	3.26066871e+02
293             	3.26072189e+02
294             	3.26077427e+02
295             	3.26082677e+02
296             	3.26087868e+02
297             	3.26093040e+02
298             	3.26098168e+02
299             	3.26103264e+02
300             	3.26108228e+02
301             	3.26113092e+02
302             	3.26117872e+02
303             	3.26122566e+02
304             	3.26127169e+02
305             	3.26131710e+02
306             	3.26136077e+02
307             	3.26140459e+02
308             	3.26144792e+02
309             	3.26149011e+02
310             	3.26153125e+02
311             	3.26157169e+02
312             	3.26161259e+02
313             	3.26165241e+02
314             	3.26169134e+02
315             	3.26173028e+02
316             	3.26176892e+02
317             	3.26180763e+02
318             	3.26184585e+02
319             	3.26188310e+02
320             	3.26192013e+02
321             	3.26195605e+02
322             	3.26199128e+02
323             	3.26202625e+02
324             	3.26205984e+02
325             	3.26209268e+02
326             	3.26212483e+02
327             	3.26215658e+02
328             	3.26218842e+02
329             	3.26221921e+02
330             	3.26224930e+02
331             	3.26227933e+02
332             	3.26230830e+02
333             	3.26233750e+02
334             	3.26236617e+02
335             	3.26239393e+02
336             	3.26242131e+02
337             	3.26244768e+02
338             	3.26247356e+02
339             	3.26249921e+02
340             	3.26252424e+02
341             	3.26254887e+02
342             	3.26257291e+02
343             	3.26259645e+02
344             	3.26261943e+02
345             	3.26264212e+02
346             	3.26266503e+02
347             	3.26268726e+02
348             	3.26270894e+02
349             	3.26273054e+02
350             	3.26275152e+02
351             	3.26277221e+02
352             	3.26279258e+02
353             	3.26281228e+02
354             	3.26283153e+02
355             	3.26285010e+02
356             	3.26286801e+02
357             	3.26288491e+02
358             	3.26290123e+02
359             	3.26291717e+02
360             	3.26293311e+02
361             	3.26294896e+02
362             	3.26296418e+02
363             	3.26297918e+02
364             	3.26299419e+02
365             	3.26300893e+02
366             	3.26302300e+02
367             	3.26303712e+02
368             	3.26305099e+02
369             	3.26306403e+02
370             	3.26307633e+02
371             	3.26308861e+02
372             	3.26310056e+02
373             	3.26311211e+02
374             	3.26312338e+02
375             	3.26313443e+02
376             	3.26314530e+02
377             	3.26315616e+02
378             	3.26316690e+02
379             	3.26317734e+02
380             	3.26318762e+02
381             	3.26319765e+02
382             	3.26320756e+02
383             	3.26321696e+02
384             	3.26322606e+02
385             	3.26323500e+02
386             	3.26324362e+02
387             	3.26325204e+02
388             	3.26326028e+02
389             	3.26326833e+02
390             	3.26327639e+02
391             	3.26328431e+02
392             	3.26329197e+02
393             	3.26329952e+02
394             	3.26330699e+02
395             	3.26331418e+02
396             	3.26332115e+02
397             	3.26332796e+02
398             	3.26333466e+02
399             	3.26334123e+02
400             	3.26334765e+02
401             	3.26335377e+02
402             	3.26335998e+02
403             	3.26336593e+02
404             	3.26337180e+02
405             	3.26337770e+02
406             	3.26338377e+02
407             	3.26338958e+02
408             	3.26339515e+02
409             	3.26340084e+02
410             	3.26340651e+02
411             	3.26341222e+02
412             	3.26341796e+02
413             	3.26342370e+02
414             	3.26342946e+02
415             	3.26343524e+02
416             	3.26344089e+02
417             	3.26344631e+02
418             	3.26345189e+02
419             	3.26345755e+02
420             	3.26346303e+02
421             	3.26346848e+02
422             	3.26347396e+02
423             	3.26347965e+02
424             	3.26348541e+02
425             	3.26349112e+02
426             	3.26349692e+02
427             	3.26350289e+02
428             	3.26350889e+02
429             	3.26351489e+02
430             	3.26352086e+02
431             	3.26352698e+02
432             	3.26353304e+02
433             	3.26353902e+02
434             	3.26354499e+02
435             	3.26355097e+02
436             	3.26355686e+02
437             	3.26356275e+02
438             	3.26356864e+02
439             	3.26357449e+02
440             	3.26358017e+02
441             	3.26358588e+02
442             	3.26359170e+02
443             	3.26359754e+02
444             	3.26360324e+02
445             	3.26360887e+02
446             	3.26361463e+02
447             	3.26362046e+02
448             	3.26362635e+02
449             	3.26363230e+02
450             	3.26363841e+02
451             	3.26364452e+02
452             	3.26365063e+02
453             	3.26365694e+02
454             	3.26366321e+02
455             	3.26366930e+02
456             	3.26367532e+02
457             	3.26368128e+02
458             	3.26368714e+02
459             	3.26369289e+02
460             	3.26369851e+02
461             	3.26370379e+02
462             	3.26370902e+02
463             	3.26371436e+02
464             	3.26371995e+02
465             	3.26372534e+02
466             	3.26373080e+02
467             	3.26373644e+02
468             	3.26374204e+02
469             	3.26374749e+02
470             	3.26375281e+02
471             	3.26375799e+02
472             	3.26376299e+02
473             	3.26376773e+02
474             	3.26377230e+02
475             	3.26377667e+02
476             	3.26378093e+02
477             	3.26378507e+02
478             	3.26378931e+02
479             	3.26379358e+02
480             	3.26379780e+02
481             	3.26380186e+02
482             	3.26380590e+02
483             	3.26380989e+02
484             	3.26381395e+02
485             	3.26381771e+02
486             	3.26382132e+02
487             	3.26382486e+02
488             	3.26382837e+02
489             	3.26383171e+02
490             	3.26383507e+02
491             	3.26383836e+02
492             	3.26384157e+02
493             	3.26384469e+02
494             	3.26384751e+02
495             	3.26385015e+02
496             	3.26385267e+02
497             	3.26385532e+02
498             	3.26385826e+02
499             	3.26386103e+02
500             	3.26386365e+02
501             	3.26386643e+02
502             	3.26386906e+02
503             	3.26387177e+02
504             	3.26387442e+02
505             	3.26387705e+02
506             	3.26387964e+02
507             	3.26388193e+02
508             	3.26388409e+02
509             	3.26388622e+02
510             	3.26388811e+02
511             	3.26388984e+02
512             	3.26389181e+02
513             	3.26389342e+02
514             	3.26389487e+02
515             	3.26389636e+02
516             	3.26389768e+02
517             	3.26389908e+02
518             	3.26390036e+02
519             	3.26390158e+02
520             	3.26390264e+02
521             	3.26390380e+02
522             	3.26390478e+02
523             	3.26390577e+02
524             	3.26390668e+02
525             	3.26390738e+02
526             	3.26390803e+02
527             	3.26390867e+02
528             	3.26390937e+02
529             	3.26391019e+02
530             	3.26391127e+02
531             	3.26391243e+02
532             	3.26391345e+02
533             	3.26391447e+02
534             	3.26391550e+02
535             	3.26391625e+02
536             	3.26391673e+02
537             	3.26391712e+02
538             	3.26391730e+02
539             	3.26391716e+02
540             	3.26391688e+02
541             	3.26391670e+02
542             	3.26391688e+02
543             	3.26391704e+02
544             	3.26391712e+02
545             	3.26391727e+02
546             	3.26391743e+02
547             	3.26391784e+02
548             	3.26391808e+02
549             	3.26391793e+02
550             	3.26391733e+02
551             	3.26391679e+02
552             	3.26391619e+02
553             	3.26391536e+02
554             	3.26391460e+02
555             	3.26391414e+02
556             	3.26391358e+02
557             	3.26391308e+02
558             	3.26391297e+02
559             	3.26391301e+02
560             	3.26391326e+02
561             	3.26391364e+02
562             	3.26391388e+02
563             	3.26391435e+02
564             	3.26391526e+02
565             	3.26391604e+02
566             	3.26391661e+02
567             	3.26391743e+02
568             	3.26391841e+02
569             	3.26391980e+02
570             	3.26392124e+02
571             	3.26392270e+02
572             	3.26392357e+02
573             	3.26392481e+02
574             	3.26392644e+02
575             	3.26392796e+02
576             	3.26392960e+02
577             	3.26393165e+02
578             	3.26393376e+02
579             	3.26393575e+02
580             	3.26393813e+02
581             	3.26394080e+02
582             	3.26394364e+02
583             	3.26394671e+02
584             	3.26394985e+02
585             	3.26395264e+02
586             	3.26395589e+02
587             	3.26395928e+02
588             	3.26396248e+02
589             	3.26396555e+02
590             	3.26396850e+02
591             	3.26397160e+02
592             	3.26397471e+02
593             	3.26397801e+02
594             	3.26398150e+02
595             	3.26398468e+02
596             	3.26398790e+02
597             	3.26399120e+02
598             	3.26399450e+02
599             	3.26399797e+02
600             	3.26400130e+02
601             	3.26400440e+02
602             	3.26400773e+02
603             	3.26401101e+02
604             	3.26401420e+02
605             	3.26401691e+02
606             	3.26401965e+02
607             	3.26402211e+02
608             	3.26402428e+02
609             	3.26402628e+02
610             	3.26402818e+02
611             	3.26402974e+02
612             	3.26403123e+02
613             	3.26403262e+02
614             	3.26403386e+02
615             	3.26403517e+02
616             	3.26403637e+02
617             	3.26403746e+02
618             	3.26403845e+02
619             	3.26403938e+02
620             	3.26404014e+02
621             	3.26404089e+02
