# Region        : cellZone component_1
# Cells         : 153
# Volume        : 2.70173420e-01
# Time          	volAverage(T)
1               	3.00658408e+02
2               	3.01303484e+02
3               	3.01849855e+02
4               	3.02340148e+02
5               	3.02821500e+02
6               	3.03301982e+02
7               	3.03777925e+02
8               	3.04251197e+02
9               	3.04716497e+02
10              	3.05166077e+02
11              	3.05588180e+02
12              	3.06013010e+02
13              	3.06429499e+02
14              	3.06842597e+02
15              	3.07231951e+02
16              	3.07588766e+02
17              	3.07930702e+02
18              	3.08267269e+02
19              	3.08610251e+02
20              	3.08954921e+02
21              	3.09300897e+02
22              	3.09645972e+02
23              	3.09985631e+02
24              	3.10321040e+02
25              	3.10649825e+02
26              	3.10964040e+02
27              	3.11252336e+02
28              	3.11512043e+02
29              	3.11774764e+02
30              	3.12045437e+02
31              	3.12323089e+02
32              	3.12593255e+02
33              	3.12848784e+02
34              	3.13093025e+02
35              	3.13327392e+02
36              	3.13553924e+02
37              	3.13783236e+02
38              	3.14008796e+02
39              	3.14224003e+02
40              	3.14427359e+02
41              	3.14632425e+02
42              	3.14836289e+02
43              	3.15045496e+02
44              	3.15254465e+02
45              	3.15452488e+02
46              	3.15646637e+02
47              	3.15842926e+02
48              	3.16046682e+02
49              	3.16254998e+02
50              	3.16462157e+02
51              	3.16658107e+02
52              	3.16860111e+02
53              	3.17067115e+02
54              	3.17273577e+02
55              	3.17471802e+02
56              	3.17658765e+02
57              	3.17834464e+02
58              	3.18003087e+02
59              	3.18169008e+02
60              	3.18330727e+02
61              	3.18485940e+02
62              	3.18634475e+02
63              	3.18778421e+02
64              	3.18917337e+02
65              	3.19051446e+02
66              	3.19183270e+02
67              	3.19311227e+02
68              	3.19434844e+02
69              	3.19555783e+02
70              	3.19678802e+02
71              	3.19803184e+02
72              	3.19927344e+02
73              	3.20048545e+02
74              	3.20160995e+02
75              	3.20266026e+02
76              	3.20363423e+02
77              	3.20455828e+02
78              	3.20549132e+02
79              	3.20641297e+02
80              	3.20731015e+02
81              	3.20814005e+02
82              	3.20895708e+02
83              	3.20978004e+02
84              	3.21052954e+02
85              	3.21132833e+02
86              	3.21205754e+02
87              	3.21270936e+02
88              	3.21335836e+02
89              	3.21398986e+02
90              	3.21460253e+02
91              	3.21515579e+02
92              	3.21568450e+02
93              	3.21619220e+02
94              	3.21667867e+02
95              	3.21714713e+02
96              	3.21763298e+02
97              	3.21813004e+02
98              	3.21863131e+02
99              	3.21909590e+02
100             	3.21956178e+02
101             	3.21998175e+02
102             	3.22039136e+02
103             	3.22080182e+02
104             	3.22122075e+02
105             	3.22164920e+02
106             	3.22209856e+02
107             	3.22252812e+02
108             	3.22295268e+02
109             	3.22333445e+02
110             	3.22372128e+02
111             	3.22408842e+02
112             	3.22446469e+02
113             	3.22482826e+02
114             	3.22517393e+02
115             	3.22551765e+02
116             	3.22584341e+02
117             	3.22616682e+02
118             	3.22648942e+02
119             	3.22678352e+02
120             	3.22708310e+02
121             	3.22740915e+02
122             	3.22773031e+02
123             	3.22803725e+02
124             	3.22834673e+02
125             	3.22864558e+02
126             	3.22892891e+02
127             	3.22919543e+02
128             	3.22943931e+02
129             	3.22966131e+02
130             	3.22989052e+02
131             	3.23006365e+02
132             	3.23022640e+02
133             	3.23041495e+02
134             	3.23062221e+02
135             	3.23083630e+02
136             	3.23104806e+02
137             	3.23125260e+02
138             	3.23145272e+02
139             	3.23165308e+02
140             	3.23184245e+02
141             	3.23202350e+02
142             	3.23221183e+02
143             	3.23238997e+02
144             	3.23255896e+02
145             	3.23272459e+02
146             	3.23288258e+02
147             	3.23301394e+02
148             	3.23313124e+02
149             	3.23322309e+02
150             	3.23333057e+02
151             	3.23343636e+02
152             	3.23352994e+02
153             	3.23361668e+02
154             	3.23369905e+02
155             	3.23377803e+02
156             	3.23385112e+02
157             	3.23391750e+02
158             	3.23399205e+02
159             	3.23408506e+02
160             	3.23416322e+02
161             	3.23423688e+02
162             	3.23431133e+02
163             	3.23439555e+02
164             	3.23448104e+02
165             	3.23454653e+02
166             	3.23462885e+02
167             	3.23472297e+02
168             	3.23481783e+02
169             	3.23490289e+02
170             	3.23498522e+02
171             	3.23507101e+02
172             	3.23516152e+02
173             	3.23525095e+02
174             	3.23533150e+02
175             	3.23540782e+02
176             	3.23548855e+02
177             	3.23555531e+02
178             	3.23562312e+02
179             	3.23568722e+02
180             	3.23574145e+02
181             	3.23576510e+02
182             	3.23580118e+02
183             	3.23583668e+02
184             	3.23586942e+02
185             	3.23589676e+02
186             	3.23592150e+02
187             	3.23595393e+02
188             	3.23598502e+02
189             	3.23601390e+02
190             	3.23604237e+02
191             	3.23607309e+02
192             	3.23610750e+02
193             	3.23614609e+02
194             	3.23618600e+02
195             	3.23623042e+02
196             	3.23627498e+02
197             	3.23631721e+02
198             	3.23635937e+02
199             	3.23638908e+02
200             	3.23642943e+02
201             	3.23648228e+02
202             	3.23651486e+02
203             	3.23654318e+02
204             	3.23657541e+02
205             	3.23662325e+02
206             	3.23667066e+02
207             	3.23670720e+02
208             	3.23674092e+02
209             	3.23677780e+02
210             	3.23681419e+02
211             	3.23684981e+02
212             	3.23688489e+02
213             	3.23691607e+02
214             	3.23694346e+02
215             	3.23696885e+02
216             	3.23699108e+02
217             	3.23700000e+02
218             	3.23701205e+02
219             	3.23702886e+02
220             	3.23704445e+02
221             	3.23705825e+02
222             	3.23707211e+02
223             	3.23708609e+02
224             	3.23710039e+02
225             	3.23711664e+02
226             	3.23713396e+02
227             	3.23715238e+02
228             	3.23717217e+02
229             	3.23719392e+02
230             	3.23721741e+02
231             	3.23724296e+02
232             	3.23726877e+02
233             	3.23729523e+02
234             	3.23732278e+02
235             	3.23735051e+02
236             	3.23737826e+02
237             	3.23740612e+02
238             	3.23743341e+02
239             	3.23746049e+02
240             	3.23748236e+02
241             	3.23750086e+02
242             	3.23751973e+02
243             	3.23753914e+02
244             	3.23755701e+02
245             	3.23757493e+02
246             	3.23759177e+02
247             	3.23760712e+02
248             	3.23762272e+02
249             	3.23763542e+02
250             	3.23764535e+02
251             	3.23765476e+02
252             	3.23766402e+02
253             	3.23767447e+02
254             	3.23768506e+02
255             	3.23769473e+02
256             	3.23770424e+02
257             	3.23771590e+02
258             	3.23772847e+02
259             	3.23774211e+02
260             	3.23775658e+02
261             	3.23777270e+02
262             	3.23779008e+02
263             	3.23780736e+02
264             	3.23782519e+02
265             	3.23784379e+02
266             	3.23786179e+02
267             	3.23788442e+02
268             	3.23789975e+02
269             	3.23791352e+02
270             	3.23792557e+02
271             	3.23793828e+02
272             	3.23795122e+02
273             	3.23796420e+02
274             	3.23797433e+02
275             	3.23798481e+02
276             	3.23799590e+02
277             	3.23800732e+02
278             	3.23801536e+02
279             	3.23802397e+02
280             	3.23803358e+02
281             	3.23804403e+02
282             	3.23805498e+02
283             	3.23806617e+02
284             	3.23807764e+02
285             	3.23808948e+02
286             	3.23810162e+02
287             	3.23811394e+02
288             	3.23812641e+02
289             	3.23813909e+02
290             	3.23815194e+02
291             	3.23816479e+02
292             	3.23817755e+02
293             	3.23819022e+02
294             	3.23820279e+02
295             	3.23821526e+02
296             	3.23822755e+02
297             	3.23823965e+02
298             	3.23825152e+02
299             	3.23826323e+02
300             	3.23827474e+02
301             	3.23828614e+02
302             	3.23829740e+02
303             	3.23830856e+02
304             	3.23831965e+02
305             	3.23833073e+02
306             	3.23834179e+02
307             	3.23835289e+02
308             	3.23836402e+02
309             	3.23837520e+02
310             	3.23838640e+02
311             	3.23839767e+02
312             	3.23840892e+02
313             	3.23842015e+02
314             	3.23843127e+02
315             	3.23844244e+02
316             	3.23845365e+02
317             	3.23846487e+02
318             	3.23847605e+02
319             	3.23848726e+02
320             	3.23849797e+02
321             	3.23850912e+02
322             	3.23852049e+02
323             	3.23853184e+02
324             	3.23854313e+02
325             	3.23855407e+02
326             	3.23856512e+02
327             	3.23857633e+02
328             	3.23858750e+02
329             	3.23859850e+02
330             	3.23860921e+02
331             	3.23861968e+02
332             	3.23862985e+02
333             	3.23863972e+02
334             	3.23864924e+02
335             	3.23865843e+02
336             	3.23866732e+02
337             	3.23867595e+02
338             	3.23868431e+02
339             	3.23869245e+02
340             	3.23870046e+02
341             	3.23870833e+02
342             	3.23871610e+02
343             	3.23872385e+02
344             	3.23873161e+02
345             	3.23873939e+02
346             	3.23874716e+02
347             	3.23875488e+02
348             	3.23876272e+02
349             	3.23877067e+02
350             	3.23877864e+02
351             	3.23878662e+02
352             	3.23879457e+02
353             	3.23880227e+02
354             	3.23881003e+02
355             	3.23881780e+02
356             	3.23882542e+02
357             	3.23883281e+02
358             	3.23883998e+02
359             	3.23884698e+02
360             	3.23885379e+02
361             	3.23886041e+02
362             	3.23886693e+02
363             	3.23887340e+02
364             	3.23887979e+02
365             	3.23888621e+02
366             	3.23889268e+02
367             	3.23889921e+02
368             	3.23890578e+02
369             	3.23891254e+02
370             	3.23891950e+02
371             	3.23892659e+02
372             	3.23893378e+02
373             	3.23894108e+02
374             	3.23894846e+02
375             	3.23895594e+02
376             	3.23896343e+02
377             	3.23897092e+02
378             	3.23897837e+02
379             	3.23898571e+02
380             	3.23899299e+02
381             	3.23900005e+02
382             	3.23900705e+02
383             	3.23901396e+02
384             	3.23902066e+02
385             	3.23902711e+02
386             	3.23903328e+02
387             	3.23903917e+02
388             	3.23904482e+02
389             	3.23905022e+02
390             	3.23905539e+02
391             	3.23906038e+02
392             	3.23906521e+02
393             	3.23906993e+02
394             	3.23907456e+02
395             	3.23907921e+02
396             	3.23908388e+02
397             	3.23908865e+02
398             	3.23909349e+02
399             	3.23909844e+02
400             	3.23910348e+02
401             	3.23910861e+02
402             	3.23911379e+02
403             	3.23911902e+02
404             	3.23912426e+02
405             	3.23912948e+02
406             	3.23913466e+02
407             	3.23913979e+02
408             	3.23914482e+02
409             	3.23914977e+02
410             	3.23915461e+02
411             	3.23915934e+02
412             	3.23916393e+02
413             	3.23916842e+02
414             	3.23917277e+02
415             	3.23917702e+02
416             	3.23918115e+02
417             	3.23918520e+02
418             	3.23918914e+02
419             	3.23919301e+02
420             	3.23919678e+02
421             	3.23920051e+02
422             	3.23920417e+02
423             	3.23920779e+02
424             	3.23921136e+02
425             	3.23921491e+02
426             	3.23921842e+02
427             	3.23922194e+02
428             	3.23922543e+02
429             	3.23922894e+02
430             	3.23923244e+02
431             	3.23923595e+02
432             	3.23923947e+02
433             	3.23924301e+02
434             	3.23924657e+02
435             	3.23925015e+02
436             	3.23925374e+02
437             	3.23925736e+02
438             	3.23926099e+02
439             	3.23926462e+02
440             	3.23926827e+02
441             	3.23927195e+02
442             	3.23927562e+02
443             	3.23927930e+02
444             	3.23928294e+02
445             	3.23928658e+02
446             	3.23929019e+02
447             	3.23929378e+02
448             	3.23929734e+02
449             	3.23930087e+02
450             	3.23930437e+02
451             	3.23930785e+02
452             	3.23931129e+02
453             	3.23931472e+02
454             	3.23931812e+02
455             	3.23932151e+02
456             	3.23932486e+02
457             	3.23932822e+02
458             	3.23933156e+02
459             	3.23933489e+02
460             	3.23933818e+02
461             	3.23934147e+02
462             	3.23934471e+02
463             	3.23934792e+02
464             	3.23935107e+02
465             	3.23935417e+02
466             	3.23935718e+02
467             	3.23936012e+02
468             	3.23936295e+02
469             	3.23936569e+02
470             	3.23936833e+02
471             	3.23937086e+02
472             	3.23937327e+02
473             	3.23937559e+02
474             	3.23937779e+02
475             	3.23937990e+02
476             	3.23938192e+02
477             	3.23938387e+02
478             	3.23938578e+02
479             	3.23938764e+02
480             	3.23938942e+02
481             	3.23939117e+02
482             	3.23939290e+02
483             	3.23939461e+02
484             	3.23939631e+02
485             	3.23939804e+02
486             	3.23939976e+02
487             	3.23940151e+02
488             	3.23940325e+02
489             	3.23940504e+02
490             	3.23940686e+02
491             	3.23940875e+02
492             	3.23941068e+02
493             	3.23941258e+02
494             	3.23941464e+02
495             	3.23941680e+02
496             	3.23941898e+02
497             	3.23942123e+02
498             	3.23942349e+02
499             	3.23942568e+02
500             	3.23942782e+02
501             	3.23943007e+02
502             	3.23943224e+02
503             	3.23943424e+02
504             	3.23943601e+02
505             	3.23943764e+02
506             	3.23943902e+02
507             	3.23944031e+02
508             	3.23944149e+02
509             	3.23944253e+02
510             	3.23944340e+02
511             	3.23944424e+02
512             	3.23944507e+02
513             	3.23944594e+02
514             	3.23944680e+02
515             	3.23944775e+02
516             	3.23944879e+02
517             	3.23944990e+02
518             	3.23945110e+02
519             	3.23945243e+02
520             	3.23945384e+02
521             	3.23945533e+02
522             	3.23945682e+02
523             	3.23945840e+02
524             	3.23946006e+02
525             	3.23946176e+02
526             	3.23946343e+02
527             	3.23946506e+02
528             	3.23946662e+02
529             	3.23946817e+02
530             	3.23946966e+02
531             	3.23947096e+02
532             	3.23947229e+02
533             	3.23947367e+02
534             	3.23947497e+02
535             	3.23947618e+02
536             	3.23947734e+02
537             	3.23947846e+02
538             	3.23947957e+02
539             	3.23948069e+02
540             	3.23948179e+02
541             	3.23948278e+02
542             	3.23948384e+02
543             	3.23948501e+02
544             	3.23948629e+02
545             	3.23948766e+02
546             	3.23948899e+02
547             	3.23949034e+02
548             	3.23949169e+02
549             	3.23949307e+02
550             	3.23949440e+02
551             	3.23949572e+02
552             	3.23949699e+02
553             	3.23949828e+02
554             	3.23949954e+02
555             	3.23950075e+02
556             	3.23950190e+02
557             	3.23950298e+02
558             	3.23950396e+02
559             	3.23950485e+02
560             	3.23950570e+02
561             	3.23950650e+02
562             	3.23950719e+02
563             	3.23950784e+02
564             	3.23950845e+02
565             	3.23950907e+02
566             	3.23950966e+02
567             	3.23951025e+02
568             	3.23951084e+02
569             	3.23951147e+02
570             	3.23951212e+02
571             	3.23951282e+02
572             	3.23951353e+02
573             	3.23951428e+02
574             	3.23951503e+02
575             	3.23951579e+02
576             	3.23951655e+02
577             	3.23951734e+02
578             	3.23951814e+02
579             	3.23951895e+02
580             	3.23951975e+02
581             	3.23952055e+02
582             	3.23952131e+02
583             	3.23952206e+02
584             	3.23952274e+02
585             	3.23952342e+02
586             	3.23952413e+02
587             	3.23952485e+02
588             	3.23952551e+02
589             	3.23952621e+02
590             	3.23952685e+02
591             	3.23952747e+02
592             	3.23952806e+02
593             	3.23952866e+02
594             	3.23952927e+02
595             	3.23952988e+02
596             	3.23953048e+02
597             	3.23953111e+02
598             	3.23953174e+02
599             	3.23953239e+02
600             	3.23953300e+02
601             	3.23953355e+02
602             	3.23953413e+02
603             	3.23953475e+02
604             	3.23953537e+02
605             	3.23953600e+02
606             	3.23953661e+02
607             	3.23953721e+02
608             	3.23953778e+02
609             	3.23953838e+02
610             	3.23953893e+02
611             	3.23953944e+02
612             	3.23953990e+02
613             	3.23954036e+02
614             	3.23954083e+02
615             	3.23954134e+02
616             	3.23954182e+02
617             	3.23954228e+02
618             	3.23954270e+02
619             	3.23954312e+02
620             	3.23954353e+02
621             	3.23954397e+02
