# Region        : cellZone pcb
# Cells         : 750
# Volume        : 1.47421117e+00
# Time          	volAverage(T)
1               	3.00005766e+02
2               	3.00016800e+02
3               	3.00032270e+02
4               	3.00052160e+02
5               	3.00074660e+02
6               	3.00099871e+02
7               	3.00127954e+02
8               	3.00159921e+02
9               	3.00194209e+02
10              	3.00232263e+02
11              	3.00274342e+02
12              	3.00316732e+02
13              	3.00361454e+02
14              	3.00409453e+02
15              	3.00460059e+02
16              	3.00512397e+02
17              	3.00564459e+02
18              	3.00620439e+02
19              	3.00677709e+02
20              	3.00734864e+02
21              	3.00795464e+02
22              	3.00855832e+02
23              	3.00916295e+02
24              	3.00976870e+02
25              	3.01038063e+02
26              	3.01101331e+02
27              	3.01165513e+02
28              	3.01232597e+02
29              	3.01300672e+02
30              	3.01367755e+02
31              	3.01436216e+02
32              	3.01504073e+02
33              	3.01567731e+02
34              	3.01633843e+02
35              	3.01698608e+02
36              	3.01762860e+02
37              	3.01832705e+02
38              	3.01904043e+02
39              	3.01972894e+02
40              	3.02041092e+02
41              	3.02109836e+02
42              	3.02176587e+02
43              	3.02244503e+02
44              	3.02316757e+02
45              	3.02387143e+02
46              	3.02456369e+02
47              	3.02522897e+02
48              	3.02587245e+02
49              	3.02648839e+02
50              	3.02713501e+02
51              	3.02780522e+02
52              	3.02846672e+02
53              	3.02911769e+02
54              	3.02977195e+02
55              	3.03043870e+02
56              	3.03107883e+02
57              	3.03170655e+02
58              	3.03235808e+02
59              	3.03302023e+02
60              	3.03366580e+02
61              	3.03430147e+02
62              	3.03492783e+02
63              	3.03554453e+02
64              	3.03614873e+02
65              	3.03672674e+02
66              	3.03733275e+02
67              	3.03796028e+02
68              	3.03858184e+02
69              	3.03924370e+02
70              	3.03988694e+02
71              	3.04047760e+02
72              	3.04109845e+02
73              	3.04175496e+02
74              	3.04239484e+02
75              	3.04298725e+02
76              	3.04358412e+02
77              	3.04416253e+02
78              	3.04473641e+02
79              	3.04531579e+02
80              	3.04591136e+02
81              	3.04651944e+02
82              	3.04711059e+02
83              	3.04768585e+02
84              	3.04823048e+02
85              	3.04878632e+02
86              	3.04935518e+02
87              	3.04992316e+02
88              	3.05051265e+02
89              	3.05106025e+02
90              	3.05156593e+02
91              	3.05209508e+02
92              	3.05264554e+02
93              	3.05320672e+02
94              	3.05377971e+02
95              	3.05432739e+02
96              	3.05485460e+02
97              	3.05536078e+02
98              	3.05591957e+02
99              	3.05648032e+02
100             	3.05706214e+02
101             	3.05767890e+02
102             	3.05822946e+02
103             	3.05873264e+02
104             	3.05922146e+02
105             	3.05970671e+02
106             	3.06016405e+02
107             	3.06060126e+02
108             	3.06106031e+02
109             	3.06153342e+02
110             	3.06197072e+02
111             	3.06240085e+02
112             	3.06288549e+02
113             	3.06338013e+02
114             	3.06392381e+02
115             	3.06445058e+02
116             	3.06491909e+02
117             	3.06536146e+02
118             	3.06582209e+02
119             	3.06630508e+02
120             	3.06678599e+02
121             	3.06724728e+02
122             	3.06769648e+02
123             	3.06811873e+02
124             	3.06856337e+02
125             	3.06899699e+02
126             	3.06948932e+02
127             	3.06999647e+02
128             	3.07046333e+02
129             	3.07088697e+02
130             	3.07130684e+02
131             	3.07177099e+02
132             	3.07220075e+02
133             	3.07259029e+02
134             	3.07296018e+02
135             	3.07333570e+02
136             	3.07373687e+02
137             	3.07414702e+02
138             	3.07452858e+02
139             	3.07489480e+02
140             	3.07529070e+02
141             	3.07572227e+02
142             	3.07613613e+02
143             	3.07649410e+02
144             	3.07685970e+02
145             	3.07725482e+02
146             	3.07761518e+02
147             	3.07797447e+02
148             	3.07833555e+02
149             	3.07873289e+02
150             	3.07911162e+02
151             	3.07948085e+02
152             	3.07988766e+02
153             	3.08032236e+02
154             	3.08076540e+02
155             	3.08115259e+02
156             	3.08148530e+02
157             	3.08181381e+02
158             	3.08213464e+02
159             	3.08249747e+02
160             	3.08281156e+02
161             	3.08311942e+02
162             	3.08348849e+02
163             	3.08383767e+02
164             	3.08415049e+02
165             	3.08445276e+02
166             	3.08478871e+02
167             	3.08515489e+02
168             	3.08552942e+02
169             	3.08589816e+02
170             	3.08625524e+02
171             	3.08660308e+02
172             	3.08691113e+02
173             	3.08720026e+02
174             	3.08752465e+02
175             	3.08783839e+02
176             	3.08815643e+02
177             	3.08845446e+02
178             	3.08880945e+02
179             	3.08914645e+02
180             	3.08942013e+02
181             	3.08973342e+02
182             	3.09010936e+02
183             	3.09046772e+02
184             	3.09078456e+02
185             	3.09106626e+02
186             	3.09138645e+02
187             	3.09167149e+02
188             	3.09193277e+02
189             	3.09220489e+02
190             	3.09246322e+02
191             	3.09274253e+02
192             	3.09304470e+02
193             	3.09337063e+02
194             	3.09371795e+02
195             	3.09407050e+02
196             	3.09440978e+02
197             	3.09474976e+02
198             	3.09508622e+02
199             	3.09538625e+02
200             	3.09568020e+02
201             	3.09596615e+02
202             	3.09624998e+02
203             	3.09653692e+02
204             	3.09682975e+02
205             	3.09713978e+02
206             	3.09745335e+02
207             	3.09777389e+02
208             	3.09810612e+02
209             	3.09843629e+02
210             	3.09876527e+02
211             	3.09905385e+02
212             	3.09934851e+02
213             	3.09967516e+02
214             	3.10001701e+02
215             	3.10036521e+02
216             	3.10071931e+02
217             	3.10107053e+02
218             	3.10142405e+02
219             	3.10177242e+02
220             	3.10212460e+02
221             	3.10248599e+02
222             	3.10283188e+02
223             	3.10316485e+02
224             	3.10349848e+02
225             	3.10386206e+02
226             	3.10423615e+02
227             	3.10461859e+02
228             	3.10499033e+02
229             	3.10535792e+02
230             	3.10568907e+02
231             	3.10601764e+02
232             	3.10634893e+02
233             	3.10667702e+02
234             	3.10700660e+02
235             	3.10733817e+02
236             	3.10767516e+02
237             	3.10801997e+02
238             	3.10837299e+02
239             	3.10874077e+02
240             	3.10910858e+02
241             	3.10947595e+02
242             	3.10982281e+02
243             	3.11016055e+02
244             	3.11049587e+02
245             	3.11083176e+02
246             	3.11117094e+02
247             	3.11151424e+02
248             	3.11186084e+02
249             	3.11221435e+02
250             	3.11257615e+02
251             	3.11294720e+02
252             	3.11331397e+02
253             	3.11368800e+02
254             	3.11405186e+02
255             	3.11441381e+02
256             	3.11476851e+02
257             	3.11511460e+02
258             	3.11546009e+02
259             	3.11580614e+02
260             	3.11615295e+02
261             	3.11649896e+02
262             	3.11684504e+02
263             	3.11719053e+02
264             	3.11753465e+02
265             	3.11788109e+02
266             	3.11823169e+02
267             	3.11858576e+02
268             	3.11893215e+02
269             	3.11927759e+02
270             	3.11962696e+02
271             	3.11997463e+02
272             	3.12032002e+02
273             	3.12065703e+02
274             	3.12101792e+02
275             	3.12138975e+02
276             	3.12174449e+02
277             	3.12209278e+02
278             	3.12245377e+02
279             	3.12283582e+02
280             	3.12323729e+02
281             	3.12358297e+02
282             	3.12393487e+02
283             	3.12426859e+02
284             	3.12459461e+02
285             	3.12492549e+02
286             	3.12525760e+02
287             	3.12559084e+02
288             	3.12593217e+02
289             	3.12628459e+02
290             	3.12662056e+02
291             	3.12694073e+02
292             	3.12725265e+02
293             	3.12756607e+02
294             	3.12787429e+02
295             	3.12818558e+02
296             	3.12850099e+02
297             	3.12881957e+02
298             	3.12913548e+02
299             	3.12945197e+02
300             	3.12976832e+02
301             	3.13007787e+02
302             	3.13038237e+02
303             	3.13068521e+02
304             	3.13099109e+02
305             	3.13132331e+02
306             	3.13165188e+02
307             	3.13197392e+02
308             	3.13227776e+02
309             	3.13257477e+02
310             	3.13286948e+02
311             	3.13314839e+02
312             	3.13342150e+02
313             	3.13369429e+02
314             	3.13396548e+02
315             	3.13423654e+02
316             	3.13451249e+02
317             	3.13479358e+02
318             	3.13508227e+02
319             	3.13538630e+02
320             	3.13569096e+02
321             	3.13599931e+02
322             	3.13627753e+02
323             	3.13654503e+02
324             	3.13680125e+02
325             	3.13705244e+02
326             	3.13729983e+02
327             	3.13754418e+02
328             	3.13778869e+02
329             	3.13804099e+02
330             	3.13830609e+02
331             	3.13856006e+02
332             	3.13880396e+02
333             	3.13904828e+02
334             	3.13930730e+02
335             	3.13955156e+02
336             	3.13979664e+02
337             	3.14004225e+02
338             	3.14028246e+02
339             	3.14051916e+02
340             	3.14075837e+02
341             	3.14099333e+02
342             	3.14123096e+02
343             	3.14147054e+02
344             	3.14172750e+02
345             	3.14198988e+02
346             	3.14224601e+02
347             	3.14248244e+02
348             	3.14270639e+02
349             	3.14293040e+02
350             	3.14315619e+02
351             	3.14338276e+02
352             	3.14361311e+02
353             	3.14384675e+02
354             	3.14407770e+02
355             	3.14430880e+02
356             	3.14454260e+02
357             	3.14477454e+02
358             	3.14500869e+02
359             	3.14523873e+02
360             	3.14545779e+02
361             	3.14566960e+02
362             	3.14587907e+02
363             	3.14608761e+02
364             	3.14629772e+02
365             	3.14651097e+02
366             	3.14671479e+02
367             	3.14694275e+02
368             	3.14714910e+02
369             	3.14734931e+02
370             	3.14753847e+02
371             	3.14773926e+02
372             	3.14792563e+02
373             	3.14811200e+02
374             	3.14830006e+02
375             	3.14849055e+02
376             	3.14870610e+02
377             	3.14891996e+02
378             	3.14913240e+02
379             	3.14933458e+02
380             	3.14951826e+02
381             	3.14968388e+02
382             	3.14984214e+02
383             	3.15000303e+02
384             	3.15016890e+02
385             	3.15034190e+02
386             	3.15052498e+02
387             	3.15070086e+02
388             	3.15087103e+02
389             	3.15103943e+02
390             	3.15120580e+02
391             	3.15137094e+02
392             	3.15153350e+02
393             	3.15169921e+02
394             	3.15186543e+02
395             	3.15203291e+02
396             	3.15221019e+02
397             	3.15240269e+02
398             	3.15259689e+02
399             	3.15277382e+02
400             	3.15293561e+02
401             	3.15309294e+02
402             	3.15324770e+02
403             	3.15340003e+02
404             	3.15355242e+02
405             	3.15370789e+02
406             	3.15386572e+02
407             	3.15402586e+02
408             	3.15418856e+02
409             	3.15434777e+02
410             	3.15449871e+02
411             	3.15465230e+02
412             	3.15479366e+02
413             	3.15492807e+02
414             	3.15505992e+02
415             	3.15519024e+02
416             	3.15532061e+02
417             	3.15545123e+02
418             	3.15558208e+02
419             	3.15571317e+02
420             	3.15584536e+02
421             	3.15597909e+02
422             	3.15611281e+02
423             	3.15624753e+02
424             	3.15638278e+02
425             	3.15651803e+02
426             	3.15664972e+02
427             	3.15678211e+02
428             	3.15691180e+02
429             	3.15704634e+02
430             	3.15718067e+02
431             	3.15731526e+02
432             	3.15745037e+02
433             	3.15758390e+02
434             	3.15771562e+02
435             	3.15784400e+02
436             	3.15797117e+02
437             	3.15809649e+02
438             	3.15822037e+02
439             	3.15834236e+02
440             	3.15845979e+02
441             	3.15857472e+02
442             	3.15868984e+02
443             	3.15880215e+02
444             	3.15891226e+02
445             	3.15902061e+02
446             	3.15912897e+02
447             	3.15923765e+02
448             	3.15934529e+02
449             	3.15945285e+02
450             	3.15956155e+02
451             	3.15966988e+02
452             	3.15977868e+02
453             	3.15988742e+02
454             	3.15999545e+02
455             	3.16010381e+02
456             	3.16021177e+02
457             	3.16032169e+02
458             	3.16043318e+02
459             	3.16054655e+02
460             	3.16066045e+02
461             	3.16077160e+02
462             	3.16087904e+02
463             	3.16098433e+02
464             	3.16108663e+02
465             	3.16118558e+02
466             	3.16128108e+02
467             	3.16137503e+02
468             	3.16146860e+02
469             	3.16156218e+02
470             	3.16165819e+02
471             	3.16175324e+02
472             	3.16184207e+02
473             	3.16192997e+02
474             	3.16201784e+02
475             	3.16210355e+02
476             	3.16218791e+02
477             	3.16227247e+02
478             	3.16235725e+02
479             	3.16244449e+02
480             	3.16253369e+02
481             	3.16262159e+02
482             	3.16271279e+02
483             	3.16280511e+02
484             	3.16289666e+02
485             	3.16298635e+02
486             	3.16307425e+02
487             	3.16316070e+02
488             	3.16324566e+02
489             	3.16332823e+02
490             	3.16340800e+02
491             	3.16348850e+02
492             	3.16356856e+02
493             	3.16364890e+02
494             	3.16372718e+02
495             	3.16380599e+02
496             	3.16388339e+02
497             	3.16395928e+02
498             	3.16403275e+02
499             	3.16410192e+02
500             	3.16416943e+02
501             	3.16423474e+02
502             	3.16430015e+02
503             	3.16436778e+02
504             	3.16443713e+02
505             	3.16450700e+02
506             	3.16458128e+02
507             	3.16465746e+02
508             	3.16473179e+02
509             	3.16480285e+02
510             	3.16487142e+02
511             	3.16493953e+02
512             	3.16500778e+02
513             	3.16507720e+02
514             	3.16514807e+02
515             	3.16522007e+02
516             	3.16529257e+02
517             	3.16536776e+02
518             	3.16544342e+02
519             	3.16551705e+02
520             	3.16558652e+02
521             	3.16565285e+02
522             	3.16571660e+02
523             	3.16577615e+02
524             	3.16583323e+02
525             	3.16588982e+02
526             	3.16594863e+02
527             	3.16600804e+02
528             	3.16606776e+02
529             	3.16612730e+02
530             	3.16618483e+02
531             	3.16623914e+02
532             	3.16629006e+02
533             	3.16633805e+02
534             	3.16638522e+02
535             	3.16643377e+02
536             	3.16648290e+02
537             	3.16653296e+02
538             	3.16658389e+02
539             	3.16663537e+02
540             	3.16668953e+02
541             	3.16674607e+02
542             	3.16680172e+02
543             	3.16685482e+02
544             	3.16690774e+02
545             	3.16696012e+02
546             	3.16701226e+02
547             	3.16706402e+02
548             	3.16711425e+02
549             	3.16716749e+02
550             	3.16722043e+02
551             	3.16727350e+02
552             	3.16732645e+02
553             	3.16737884e+02
554             	3.16743023e+02
555             	3.16748027e+02
556             	3.16753280e+02
557             	3.16758158e+02
558             	3.16762675e+02
559             	3.16767050e+02
560             	3.16771310e+02
561             	3.16775598e+02
562             	3.16779974e+02
563             	3.16784572e+02
564             	3.16789343e+02
565             	3.16794227e+02
566             	3.16798738e+02
567             	3.16802899e+02
568             	3.16807136e+02
569             	3.16811319e+02
570             	3.16815078e+02
571             	3.16818760e+02
572             	3.16822541e+02
573             	3.16826987e+02
574             	3.16830948e+02
575             	3.16834486e+02
576             	3.16838240e+02
577             	3.16842650e+02
578             	3.16846719e+02
579             	3.16851096e+02
580             	3.16855284e+02
581             	3.16859485e+02
582             	3.16863067e+02
583             	3.16866984e+02
584             	3.16870546e+02
585             	3.16874104e+02
586             	3.16877194e+02
587             	3.16880402e+02
588             	3.16884329e+02
589             	3.16888986e+02
590             	3.16893614e+02
591             	3.16896132e+02
592             	3.16898033e+02
593             	3.16900130e+02
594             	3.16902512e+02
595             	3.16905342e+02
596             	3.16908345e+02
597             	3.16911548e+02
598             	3.16914780e+02
599             	3.16918163e+02
600             	3.16922202e+02
601             	3.16926313e+02
602             	3.16929886e+02
603             	3.16933108e+02
604             	3.16936141e+02
605             	3.16939020e+02
606             	3.16941716e+02
607             	3.16944359e+02
608             	3.16946946e+02
609             	3.16949299e+02
610             	3.16951653e+02
611             	3.16954093e+02
612             	3.16956658e+02
613             	3.16959871e+02
614             	3.16962345e+02
615             	3.16964478e+02
616             	3.16966571e+02
617             	3.16968569e+02
618             	3.16970728e+02
619             	3.16973050e+02
620             	3.16975333e+02
621             	3.16977277e+02
