# Region        : cellZone component_4
# Cells         : 225
# Volume        : 3.95475462e-01
# Time          	volAverage(T)
1               	3.00570372e+02
2               	3.01136845e+02
3               	3.01683640e+02
4               	3.02218452e+02
5               	3.02746992e+02
6               	3.03270621e+02
7               	3.03789612e+02
8               	3.04306371e+02
9               	3.04821158e+02
10              	3.05334502e+02
11              	3.05845057e+02
12              	3.06352824e+02
13              	3.06857289e+02
14              	3.07357066e+02
15              	3.07853235e+02
16              	3.08345841e+02
17              	3.08834311e+02
18              	3.09318282e+02
19              	3.09798285e+02
20              	3.10276845e+02
21              	3.10748620e+02
22              	3.11223640e+02
23              	3.11695310e+02
24              	3.12164786e+02
25              	3.12630179e+02
26              	3.13091862e+02
27              	3.13551578e+02
28              	3.14005387e+02
29              	3.14455330e+02
30              	3.14899254e+02
31              	3.15336704e+02
32              	3.15772892e+02
33              	3.16205606e+02
34              	3.16624718e+02
35              	3.17022521e+02
36              	3.17417654e+02
37              	3.17824780e+02
38              	3.18228259e+02
39              	3.18628348e+02
40              	3.19024680e+02
41              	3.19419103e+02
42              	3.19809009e+02
43              	3.20196482e+02
44              	3.20581669e+02
45              	3.20961676e+02
46              	3.21342647e+02
47              	3.21726539e+02
48              	3.22109026e+02
49              	3.22488361e+02
50              	3.22860440e+02
51              	3.23230889e+02
52              	3.23596771e+02
53              	3.23959868e+02
54              	3.24319079e+02
55              	3.24674445e+02
56              	3.25026074e+02
57              	3.25371985e+02
58              	3.25713261e+02
59              	3.26044882e+02
60              	3.26376348e+02
61              	3.26707245e+02
62              	3.27039288e+02
63              	3.27373021e+02
64              	3.27694278e+02
65              	3.28001588e+02
66              	3.28302419e+02
67              	3.28609504e+02
68              	3.28918536e+02
69              	3.29224627e+02
70              	3.29524734e+02
71              	3.29832354e+02
72              	3.30146346e+02
73              	3.30464046e+02
74              	3.30784079e+02
75              	3.31105273e+02
76              	3.31427268e+02
77              	3.31749355e+02
78              	3.32072198e+02
79              	3.32395356e+02
80              	3.32717229e+02
81              	3.33034498e+02
82              	3.33347211e+02
83              	3.33654385e+02
84              	3.33959900e+02
85              	3.34263882e+02
86              	3.34566616e+02
87              	3.34871441e+02
88              	3.35179455e+02
89              	3.35487694e+02
90              	3.35795172e+02
91              	3.36101922e+02
92              	3.36403461e+02
93              	3.36699895e+02
94              	3.36997230e+02
95              	3.37289358e+02
96              	3.37580423e+02
97              	3.37873180e+02
98              	3.38164809e+02
99              	3.38455408e+02
100             	3.38744689e+02
101             	3.39034999e+02
102             	3.39324050e+02
103             	3.39612938e+02
104             	3.39901133e+02
105             	3.40188914e+02
106             	3.40473534e+02
107             	3.40756311e+02
108             	3.41035745e+02
109             	3.41311404e+02
110             	3.41585778e+02
111             	3.41859518e+02
112             	3.42133525e+02
113             	3.42406578e+02
114             	3.42683701e+02
115             	3.42957466e+02
116             	3.43236329e+02
117             	3.43513844e+02
118             	3.43788318e+02
119             	3.44059119e+02
120             	3.44327190e+02
121             	3.44593844e+02
122             	3.44859831e+02
123             	3.45124686e+02
124             	3.45387586e+02
125             	3.45647589e+02
126             	3.45903022e+02
127             	3.46157900e+02
128             	3.46411100e+02
129             	3.46660836e+02
130             	3.46909741e+02
131             	3.47157271e+02
132             	3.47404051e+02
133             	3.47649976e+02
134             	3.47895274e+02
135             	3.48139483e+02
136             	3.48382334e+02
137             	3.48622512e+02
138             	3.48863371e+02
139             	3.49103915e+02
140             	3.49344366e+02
141             	3.49584155e+02
142             	3.49823567e+02
143             	3.50063039e+02
144             	3.50303182e+02
145             	3.50543616e+02
146             	3.50784974e+02
147             	3.51026805e+02
148             	3.51268643e+02
149             	3.51508010e+02
150             	3.51745978e+02
151             	3.51982319e+02
152             	3.52215725e+02
153             	3.52446608e+02
154             	3.52676556e+02
155             	3.52905330e+02
156             	3.53133165e+02
157             	3.53359293e+02
158             	3.53584414e+02
159             	3.53805741e+02
160             	3.54027005e+02
161             	3.54247078e+02
162             	3.54463768e+02
163             	3.54679119e+02
164             	3.54891512e+02
165             	3.55100375e+02
166             	3.55308781e+02
167             	3.55515515e+02
168             	3.55719663e+02
169             	3.55924647e+02
170             	3.56129404e+02
171             	3.56334576e+02
172             	3.56540213e+02
173             	3.56745328e+02
174             	3.56949818e+02
175             	3.57153621e+02
176             	3.57355254e+02
177             	3.57554559e+02
178             	3.57751512e+02
179             	3.57946688e+02
180             	3.58140095e+02
181             	3.58331316e+02
182             	3.58520533e+02
183             	3.58709872e+02
184             	3.58897757e+02
185             	3.59082927e+02
186             	3.59265875e+02
187             	3.59446869e+02
188             	3.59626840e+02
189             	3.59805770e+02
190             	3.59984779e+02
191             	3.60165339e+02
192             	3.60347384e+02
193             	3.60531871e+02
194             	3.60714924e+02
195             	3.60900689e+02
196             	3.61087550e+02
197             	3.61273004e+02
198             	3.61457551e+02
199             	3.61639917e+02
200             	3.61821658e+02
201             	3.62003128e+02
202             	3.62182382e+02
203             	3.62361276e+02
204             	3.62539143e+02
205             	3.62716401e+02
206             	3.62893134e+02
207             	3.63068984e+02
208             	3.63242686e+02
209             	3.63416177e+02
210             	3.63586371e+02
211             	3.63756401e+02
212             	3.63926259e+02
213             	3.64096248e+02
214             	3.64266032e+02
215             	3.64435352e+02
216             	3.64604176e+02
217             	3.64774100e+02
218             	3.64943748e+02
219             	3.65110639e+02
220             	3.65279137e+02
221             	3.65447226e+02
222             	3.65614504e+02
223             	3.65781098e+02
224             	3.65946558e+02
225             	3.66110764e+02
226             	3.66270356e+02
227             	3.66426979e+02
228             	3.66584314e+02
229             	3.66741436e+02
230             	3.66898112e+02
231             	3.67054962e+02
232             	3.67210534e+02
233             	3.67366620e+02
234             	3.67522856e+02
235             	3.67678867e+02
236             	3.67834717e+02
237             	3.67990525e+02
238             	3.68146774e+02
239             	3.68303701e+02
240             	3.68456025e+02
241             	3.68610852e+02
242             	3.68760979e+02
243             	3.68912021e+02
244             	3.69062310e+02
245             	3.69210649e+02
246             	3.69353752e+02
247             	3.69497598e+02
248             	3.69641246e+02
249             	3.69782179e+02
250             	3.69924403e+02
251             	3.70065847e+02
252             	3.70207099e+02
253             	3.70348315e+02
254             	3.70489659e+02
255             	3.70631214e+02
256             	3.70773009e+02
257             	3.70915040e+02
258             	3.71057431e+02
259             	3.71197345e+02
260             	3.71338663e+02
261             	3.71480553e+02
262             	3.71622197e+02
263             	3.71760989e+02
264             	3.71900137e+02
265             	3.72039690e+02
266             	3.72179007e+02
267             	3.72317331e+02
268             	3.72454678e+02
269             	3.72591262e+02
270             	3.72727301e+02
271             	3.72862772e+02
272             	3.72996369e+02
273             	3.73129057e+02
274             	3.73261177e+02
275             	3.73392299e+02
276             	3.73522013e+02
277             	3.73650393e+02
278             	3.73776814e+02
279             	3.73901510e+02
280             	3.74025826e+02
281             	3.74149560e+02
282             	3.74272540e+02
283             	3.74394290e+02
284             	3.74513351e+02
285             	3.74632451e+02
286             	3.74751107e+02
287             	3.74868801e+02
288             	3.74986088e+02
289             	3.75103385e+02
290             	3.75220566e+02
291             	3.75337073e+02
292             	3.75452725e+02
293             	3.75567756e+02
294             	3.75683108e+02
295             	3.75798841e+02
296             	3.75915055e+02
297             	3.76031156e+02
298             	3.76146413e+02
299             	3.76262632e+02
300             	3.76379336e+02
301             	3.76496263e+02
302             	3.76613206e+02
303             	3.76729990e+02
304             	3.76846921e+02
305             	3.76962885e+02
306             	3.77077982e+02
307             	3.77189591e+02
308             	3.77300403e+02
309             	3.77410398e+02
310             	3.77519238e+02
311             	3.77627007e+02
312             	3.77732628e+02
313             	3.77838589e+02
314             	3.77943969e+02
315             	3.78048471e+02
316             	3.78152298e+02
317             	3.78256435e+02
318             	3.78360475e+02
319             	3.78464127e+02
320             	3.78567301e+02
321             	3.78669960e+02
322             	3.78771404e+02
323             	3.78872494e+02
324             	3.78973122e+02
325             	3.79073473e+02
326             	3.79173107e+02
327             	3.79271718e+02
328             	3.79368505e+02
329             	3.79468151e+02
330             	3.79568457e+02
331             	3.79668564e+02
332             	3.79768214e+02
333             	3.79867364e+02
334             	3.79966130e+02
335             	3.80064409e+02
336             	3.80162923e+02
337             	3.80255499e+02
338             	3.80347983e+02
339             	3.80440803e+02
340             	3.80533514e+02
341             	3.80626001e+02
342             	3.80717567e+02
343             	3.80806397e+02
344             	3.80897082e+02
345             	3.80988120e+02
346             	3.81078613e+02
347             	3.81167494e+02
348             	3.81256118e+02
349             	3.81344101e+02
350             	3.81432409e+02
351             	3.81520499e+02
352             	3.81608720e+02
353             	3.81696775e+02
354             	3.81785340e+02
355             	3.81873284e+02
356             	3.81961362e+02
357             	3.82048943e+02
358             	3.82135480e+02
359             	3.82220044e+02
360             	3.82304615e+02
361             	3.82389237e+02
362             	3.82474891e+02
363             	3.82560798e+02
364             	3.82646264e+02
365             	3.82731356e+02
366             	3.82816009e+02
367             	3.82899805e+02
368             	3.82983271e+02
369             	3.83066192e+02
370             	3.83148539e+02
371             	3.83229430e+02
372             	3.83308975e+02
373             	3.83387921e+02
374             	3.83466368e+02
375             	3.83544075e+02
376             	3.83621098e+02
377             	3.83697313e+02
378             	3.83773108e+02
379             	3.83848562e+02
380             	3.83923406e+02
381             	3.83997690e+02
382             	3.84071334e+02
383             	3.84144320e+02
384             	3.84216723e+02
385             	3.84288640e+02
386             	3.84360750e+02
387             	3.84432582e+02
388             	3.84503132e+02
389             	3.84573410e+02
390             	3.84644419e+02
391             	3.84715424e+02
392             	3.84786587e+02
393             	3.84857642e+02
394             	3.84928713e+02
395             	3.84999487e+02
396             	3.85069740e+02
397             	3.85139996e+02
398             	3.85210136e+02
399             	3.85280302e+02
400             	3.85350375e+02
401             	3.85420428e+02
402             	3.85490411e+02
403             	3.85560587e+02
404             	3.85630619e+02
405             	3.85700764e+02
406             	3.85770559e+02
407             	3.85839942e+02
408             	3.85908909e+02
409             	3.85977460e+02
410             	3.86045620e+02
411             	3.86113386e+02
412             	3.86180761e+02
413             	3.86247751e+02
414             	3.86314366e+02
415             	3.86380600e+02
416             	3.86444860e+02
417             	3.86509030e+02
418             	3.86573014e+02
419             	3.86636818e+02
420             	3.86700412e+02
421             	3.86763770e+02
422             	3.86826876e+02
423             	3.86889712e+02
424             	3.86952016e+02
425             	3.87014120e+02
426             	3.87076030e+02
427             	3.87137620e+02
428             	3.87198882e+02
429             	3.87259817e+02
430             	3.87320445e+02
431             	3.87380771e+02
432             	3.87440784e+02
433             	3.87500540e+02
434             	3.87559860e+02
435             	3.87618952e+02
436             	3.87677772e+02
437             	3.87736231e+02
438             	3.87794468e+02
439             	3.87852529e+02
440             	3.87910443e+02
441             	3.87968209e+02
442             	3.88025748e+02
443             	3.88083016e+02
444             	3.88139981e+02
445             	3.88196659e+02
446             	3.88253079e+02
447             	3.88309235e+02
448             	3.88365121e+02
449             	3.88420673e+02
450             	3.88475884e+02
451             	3.88530777e+02
452             	3.88585261e+02
453             	3.88639401e+02
454             	3.88693197e+02
455             	3.88746647e+02
456             	3.88799761e+02
457             	3.88852564e+02
458             	3.88905084e+02
459             	3.88957382e+02
460             	3.89009490e+02
461             	3.89061412e+02
462             	3.89113147e+02
463             	3.89164695e+02
464             	3.89216047e+02
465             	3.89267184e+02
466             	3.89318091e+02
467             	3.89368759e+02
468             	3.89419190e+02
469             	3.89469377e+02
470             	3.89519221e+02
471             	3.89568876e+02
472             	3.89618347e+02
473             	3.89667598e+02
474             	3.89716629e+02
475             	3.89765446e+02
476             	3.89814053e+02
477             	3.89862422e+02
478             	3.89910577e+02
479             	3.89958521e+02
480             	3.90006243e+02
481             	3.90053731e+02
482             	3.90100986e+02
483             	3.90148006e+02
484             	3.90194795e+02
485             	3.90241367e+02
486             	3.90287720e+02
487             	3.90333940e+02
488             	3.90379861e+02
489             	3.90425568e+02
490             	3.90470940e+02
491             	3.90516155e+02
492             	3.90561237e+02
493             	3.90606087e+02
494             	3.90650698e+02
495             	3.90695016e+02
496             	3.90739023e+02
497             	3.90782776e+02
498             	3.90826192e+02
499             	3.90869435e+02
500             	3.90912485e+02
501             	3.90955305e+02
502             	3.90997900e+02
503             	3.91040135e+02
504             	3.91082216e+02
505             	3.91124134e+02
506             	3.91165877e+02
507             	3.91207494e+02
508             	3.91248853e+02
509             	3.91290079e+02
510             	3.91331114e+02
511             	3.91371991e+02
512             	3.91412755e+02
513             	3.91453262e+02
514             	3.91493601e+02
515             	3.91533741e+02
516             	3.91573680e+02
517             	3.91613417e+02
518             	3.91652947e+02
519             	3.91692276e+02
520             	3.91731406e+02
521             	3.91770353e+02
522             	3.91809127e+02
523             	3.91847741e+02
524             	3.91886205e+02
525             	3.91924506e+02
526             	3.91962680e+02
527             	3.92000695e+02
528             	3.92038353e+02
529             	3.92075999e+02
530             	3.92113610e+02
531             	3.92151087e+02
532             	3.92188379e+02
533             	3.92225435e+02
534             	3.92262239e+02
535             	3.92298813e+02
536             	3.92335092e+02
537             	3.92371113e+02
538             	3.92406943e+02
539             	3.92442458e+02
540             	3.92477801e+02
541             	3.92513060e+02
542             	3.92548172e+02
543             	3.92582927e+02
544             	3.92617601e+02
545             	3.92652069e+02
546             	3.92686459e+02
547             	3.92720826e+02
548             	3.92755038e+02
549             	3.92789032e+02
550             	3.92822685e+02
551             	3.92856236e+02
552             	3.92889586e+02
553             	3.92922775e+02
554             	3.92955785e+02
555             	3.92988616e+02
556             	3.93021274e+02
557             	3.93053728e+02
558             	3.93086106e+02
559             	3.93118407e+02
560             	3.93150596e+02
561             	3.93182661e+02
562             	3.93214616e+02
563             	3.93246354e+02
564             	3.93277954e+02
565             	3.93309409e+02
566             	3.93340727e+02
567             	3.93371573e+02
568             	3.93402534e+02
569             	3.93433376e+02
570             	3.93464085e+02
571             	3.93494663e+02
572             	3.93525107e+02
573             	3.93555440e+02
574             	3.93585702e+02
575             	3.93615887e+02
576             	3.93645983e+02
577             	3.93675985e+02
578             	3.93705880e+02
579             	3.93735305e+02
580             	3.93764754e+02
581             	3.93794263e+02
582             	3.93823644e+02
583             	3.93852893e+02
584             	3.93881965e+02
585             	3.93910786e+02
586             	3.93939354e+02
587             	3.93967716e+02
588             	3.93995886e+02
589             	3.94023874e+02
590             	3.94051699e+02
591             	3.94079337e+02
592             	3.94106800e+02
593             	3.94134156e+02
594             	3.94161452e+02
595             	3.94188641e+02
596             	3.94215717e+02
597             	3.94242685e+02
598             	3.94269542e+02
599             	3.94296291e+02
600             	3.94322927e+02
601             	3.94349453e+02
602             	3.94375869e+02
603             	3.94402156e+02
604             	3.94428329e+02
605             	3.94454385e+02
606             	3.94480321e+02
607             	3.94506133e+02
608             	3.94531824e+02
609             	3.94557384e+02
610             	3.94582816e+02
611             	3.94608116e+02
612             	3.94633283e+02
613             	3.94658315e+02
614             	3.94683215e+02
615             	3.94707976e+02
616             	3.94732626e+02
617             	3.94757147e+02
618             	3.94781528e+02
619             	3.94805786e+02
620             	3.94829932e+02
621             	3.94853954e+02
