# Region        : cellZone component_2
# Cells         : 102
# Volume        : 1.88765875e-01
# Time          	volAverage(T)
1               	3.01214981e+02
2               	3.02394803e+02
3               	3.03408008e+02
4               	3.04323176e+02
5               	3.05210197e+02
6               	3.06090192e+02
7               	3.06956076e+02
8               	3.07808998e+02
9               	3.08659386e+02
10              	3.09490015e+02
11              	3.10290989e+02
12              	3.11062024e+02
13              	3.11797363e+02
14              	3.12512273e+02
15              	3.13223430e+02
16              	3.13899097e+02
17              	3.14549648e+02
18              	3.15179184e+02
19              	3.15794484e+02
20              	3.16368666e+02
21              	3.16916106e+02
22              	3.17477187e+02
23              	3.18056261e+02
24              	3.18616751e+02
25              	3.19168616e+02
26              	3.19676322e+02
27              	3.20136218e+02
28              	3.20561141e+02
29              	3.20956137e+02
30              	3.21349022e+02
31              	3.21742920e+02
32              	3.22116102e+02
33              	3.22508245e+02
34              	3.22883741e+02
35              	3.23235461e+02
36              	3.23575531e+02
37              	3.23911011e+02
38              	3.24255880e+02
39              	3.24620623e+02
40              	3.24952986e+02
41              	3.25250923e+02
42              	3.25525201e+02
43              	3.25779192e+02
44              	3.26064512e+02
45              	3.26372616e+02
46              	3.26670944e+02
47              	3.26944768e+02
48              	3.27189702e+02
49              	3.27427475e+02
50              	3.27661572e+02
51              	3.27897414e+02
52              	3.28122439e+02
53              	3.28337271e+02
54              	3.28573765e+02
55              	3.28782427e+02
56              	3.28901510e+02
57              	3.28948226e+02
58              	3.28946104e+02
59              	3.28905429e+02
60              	3.28892819e+02
61              	3.29032393e+02
62              	3.29221329e+02
63              	3.29407696e+02
64              	3.29570162e+02
65              	3.29716262e+02
66              	3.29837739e+02
67              	3.29971090e+02
68              	3.30097520e+02
69              	3.30262260e+02
70              	3.30478916e+02
71              	3.30564153e+02
72              	3.30496187e+02
73              	3.30370301e+02
74              	3.30295238e+02
75              	3.30394732e+02
76              	3.30553662e+02
77              	3.30715550e+02
78              	3.30857685e+02
79              	3.30995275e+02
80              	3.31138215e+02
81              	3.31305208e+02
82              	3.31471348e+02
83              	3.31617720e+02
84              	3.31770724e+02
85              	3.31933820e+02
86              	3.32082929e+02
87              	3.32151111e+02
88              	3.32215512e+02
89              	3.32306861e+02
90              	3.32414704e+02
91              	3.32518260e+02
92              	3.32613748e+02
93              	3.32699408e+02
94              	3.32765207e+02
95              	3.32835275e+02
96              	3.32905797e+02
97              	3.32988425e+02
98              	3.33081778e+02
99              	3.33194651e+02
100             	3.33315629e+02
101             	3.33453556e+02
102             	3.33588863e+02
103             	3.33707894e+02
104             	3.33812278e+02
105             	3.33920743e+02
106             	3.34031897e+02
107             	3.34129808e+02
108             	3.34212660e+02
109             	3.34295908e+02
110             	3.34373892e+02
111             	3.34450959e+02
112             	3.34527446e+02
113             	3.34607177e+02
114             	3.34694479e+02
115             	3.34793021e+02
116             	3.34913025e+02
117             	3.35049330e+02
118             	3.35193777e+02
119             	3.35297720e+02
120             	3.35410575e+02
121             	3.35527236e+02
122             	3.35620388e+02
123             	3.35698451e+02
124             	3.35766760e+02
125             	3.35823796e+02
126             	3.35871511e+02
127             	3.35917674e+02
128             	3.35966861e+02
129             	3.36019080e+02
130             	3.36074412e+02
131             	3.36137728e+02
132             	3.36207795e+02
133             	3.36284373e+02
134             	3.36362550e+02
135             	3.36442796e+02
136             	3.36521532e+02
137             	3.36577546e+02
138             	3.36636883e+02
139             	3.36697675e+02
140             	3.36752733e+02
141             	3.36807094e+02
142             	3.36858764e+02
143             	3.36905521e+02
144             	3.36947844e+02
145             	3.36987858e+02
146             	3.37026672e+02
147             	3.37067621e+02
148             	3.37109420e+02
149             	3.37154637e+02
150             	3.37201872e+02
151             	3.37247555e+02
152             	3.37297609e+02
153             	3.37344491e+02
154             	3.37388931e+02
155             	3.37435646e+02
156             	3.37467380e+02
157             	3.37506075e+02
158             	3.37548943e+02
159             	3.37577174e+02
160             	3.37599082e+02
161             	3.37629542e+02
162             	3.37658616e+02
163             	3.37684841e+02
164             	3.37704453e+02
165             	3.37722755e+02
166             	3.37740362e+02
167             	3.37763509e+02
168             	3.37778870e+02
169             	3.37799457e+02
170             	3.37828575e+02
171             	3.37864638e+02
172             	3.37895840e+02
173             	3.37918651e+02
174             	3.37938869e+02
175             	3.37963527e+02
176             	3.37985981e+02
177             	3.38000568e+02
178             	3.38013902e+02
179             	3.38026157e+02
180             	3.38038615e+02
181             	3.38050566e+02
182             	3.38066661e+02
183             	3.38087126e+02
184             	3.38110742e+02
185             	3.38128442e+02
186             	3.38148447e+02
187             	3.38172528e+02
188             	3.38199601e+02
189             	3.38228500e+02
190             	3.38251022e+02
191             	3.38266888e+02
192             	3.38281900e+02
193             	3.38300623e+02
194             	3.38318890e+02
195             	3.38331551e+02
196             	3.38343351e+02
197             	3.38357600e+02
198             	3.38373064e+02
199             	3.38392190e+02
200             	3.38409619e+02
201             	3.38433820e+02
202             	3.38461728e+02
203             	3.38486495e+02
204             	3.38510823e+02
205             	3.38536489e+02
206             	3.38561761e+02
207             	3.38582397e+02
208             	3.38598779e+02
209             	3.38613974e+02
210             	3.38631605e+02
211             	3.38649622e+02
212             	3.38666064e+02
213             	3.38680443e+02
214             	3.38694370e+02
215             	3.38707325e+02
216             	3.38720495e+02
217             	3.38739156e+02
218             	3.38761098e+02
219             	3.38780842e+02
220             	3.38800301e+02
221             	3.38820371e+02
222             	3.38841094e+02
223             	3.38860201e+02
224             	3.38875218e+02
225             	3.38883507e+02
226             	3.38894349e+02
227             	3.38907634e+02
228             	3.38918672e+02
229             	3.38927665e+02
230             	3.38935229e+02
231             	3.38942129e+02
232             	3.38951148e+02
233             	3.38962857e+02
234             	3.38973628e+02
235             	3.38982540e+02
236             	3.38987617e+02
237             	3.38995530e+02
238             	3.39009135e+02
239             	3.39022895e+02
240             	3.39036746e+02
241             	3.39050212e+02
242             	3.39063210e+02
243             	3.39073196e+02
244             	3.39080498e+02
245             	3.39078798e+02
246             	3.39082643e+02
247             	3.39091446e+02
248             	3.39099871e+02
249             	3.39105413e+02
250             	3.39111048e+02
251             	3.39114901e+02
252             	3.39120772e+02
253             	3.39128346e+02
254             	3.39135956e+02
255             	3.39141930e+02
256             	3.39148495e+02
257             	3.39158427e+02
258             	3.39172685e+02
259             	3.39182588e+02
260             	3.39190075e+02
261             	3.39198483e+02
262             	3.39206711e+02
263             	3.39214287e+02
264             	3.39218186e+02
265             	3.39217668e+02
266             	3.39222463e+02
267             	3.39230613e+02
268             	3.39238942e+02
269             	3.39245566e+02
270             	3.39250068e+02
271             	3.39253656e+02
272             	3.39257284e+02
273             	3.39260580e+02
274             	3.39267953e+02
275             	3.39274155e+02
276             	3.39278374e+02
277             	3.39282877e+02
278             	3.39288361e+02
279             	3.39294620e+02
280             	3.39301421e+02
281             	3.39308229e+02
282             	3.39313063e+02
283             	3.39310550e+02
284             	3.39312074e+02
285             	3.39313462e+02
286             	3.39313570e+02
287             	3.39313309e+02
288             	3.39312665e+02
289             	3.39313050e+02
290             	3.39313242e+02
291             	3.39315718e+02
292             	3.39319841e+02
293             	3.39325652e+02
294             	3.39331623e+02
295             	3.39331831e+02
296             	3.39333660e+02
297             	3.39338455e+02
298             	3.39343211e+02
299             	3.39344291e+02
300             	3.39343386e+02
301             	3.39340809e+02
302             	3.39339494e+02
303             	3.39337961e+02
304             	3.39336055e+02
305             	3.39334712e+02
306             	3.39333533e+02
307             	3.39329115e+02
308             	3.39326353e+02
309             	3.39327251e+02
310             	3.39329391e+02
311             	3.39332756e+02
312             	3.39335757e+02
313             	3.39338510e+02
314             	3.39339429e+02
315             	3.39343061e+02
316             	3.39346671e+02
317             	3.39350107e+02
318             	3.39354504e+02
319             	3.39355887e+02
320             	3.39355779e+02
321             	3.39356464e+02
322             	3.39358145e+02
323             	3.39359941e+02
324             	3.39362808e+02
325             	3.39366570e+02
326             	3.39368908e+02
327             	3.39370727e+02
328             	3.39373216e+02
329             	3.39377904e+02
330             	3.39381073e+02
331             	3.39382844e+02
332             	3.39385019e+02
333             	3.39384708e+02
334             	3.39385483e+02
335             	3.39387047e+02
336             	3.39388258e+02
337             	3.39390119e+02
338             	3.39392617e+02
339             	3.39395738e+02
340             	3.39398838e+02
341             	3.39401524e+02
342             	3.39404890e+02
343             	3.39408610e+02
344             	3.39412625e+02
345             	3.39416019e+02
346             	3.39419766e+02
347             	3.39421556e+02
348             	3.39422906e+02
349             	3.39424860e+02
350             	3.39427505e+02
351             	3.39430924e+02
352             	3.39434042e+02
353             	3.39437160e+02
354             	3.39439461e+02
355             	3.39440828e+02
356             	3.39442543e+02
357             	3.39445244e+02
358             	3.39447489e+02
359             	3.39448894e+02
360             	3.39449572e+02
361             	3.39452379e+02
362             	3.39454015e+02
363             	3.39454392e+02
364             	3.39456211e+02
365             	3.39458219e+02
366             	3.39460716e+02
367             	3.39463775e+02
368             	3.39467066e+02
369             	3.39469835e+02
370             	3.39472149e+02
371             	3.39474728e+02
372             	3.39475990e+02
373             	3.39477252e+02
374             	3.39478824e+02
375             	3.39480203e+02
376             	3.39481294e+02
377             	3.39482287e+02
378             	3.39483305e+02
379             	3.39484420e+02
380             	3.39485457e+02
381             	3.39486596e+02
382             	3.39488104e+02
383             	3.39490981e+02
384             	3.39492693e+02
385             	3.39494450e+02
386             	3.39495571e+02
387             	3.39496532e+02
388             	3.39497774e+02
389             	3.39499034e+02
390             	3.39500086e+02
391             	3.39500921e+02
392             	3.39501604e+02
393             	3.39501706e+02
394             	3.39502148e+02
395             	3.39502410e+02
396             	3.39502822e+02
397             	3.39503213e+02
398             	3.39503524e+02
399             	3.39503785e+02
400             	3.39504094e+02
401             	3.39504497e+02
402             	3.39504961e+02
403             	3.39505522e+02
404             	3.39506205e+02
405             	3.39506902e+02
406             	3.39507634e+02
407             	3.39508325e+02
408             	3.39509403e+02
409             	3.39510057e+02
410             	3.39511087e+02
411             	3.39511654e+02
412             	3.39511933e+02
413             	3.39512258e+02
414             	3.39512758e+02
415             	3.39513342e+02
416             	3.39513988e+02
417             	3.39514811e+02
418             	3.39515507e+02
419             	3.39516162e+02
420             	3.39516441e+02
421             	3.39516827e+02
422             	3.39517552e+02
423             	3.39518206e+02
424             	3.39518637e+02
425             	3.39519011e+02
426             	3.39519358e+02
427             	3.39519705e+02
428             	3.39520186e+02
429             	3.39520742e+02
430             	3.39521419e+02
431             	3.39522293e+02
432             	3.39522727e+02
433             	3.39523080e+02
434             	3.39523693e+02
435             	3.39524598e+02
436             	3.39525396e+02
437             	3.39526160e+02
438             	3.39526933e+02
439             	3.39527692e+02
440             	3.39528094e+02
441             	3.39528664e+02
442             	3.39529679e+02
443             	3.39530579e+02
444             	3.39531326e+02
445             	3.39531920e+02
446             	3.39532417e+02
447             	3.39532915e+02
448             	3.39533476e+02
449             	3.39534399e+02
450             	3.39534838e+02
451             	3.39535297e+02
452             	3.39535736e+02
453             	3.39536195e+02
454             	3.39536697e+02
455             	3.39537172e+02
456             	3.39537633e+02
457             	3.39538027e+02
458             	3.39538492e+02
459             	3.39538908e+02
460             	3.39538950e+02
461             	3.39539220e+02
462             	3.39539525e+02
463             	3.39539787e+02
464             	3.39539929e+02
465             	3.39540040e+02
466             	3.39540187e+02
467             	3.39540404e+02
468             	3.39540680e+02
469             	3.39540955e+02
470             	3.39541191e+02
471             	3.39541716e+02
472             	3.39542073e+02
473             	3.39542353e+02
474             	3.39542710e+02
475             	3.39543045e+02
476             	3.39543476e+02
477             	3.39543773e+02
478             	3.39544115e+02
479             	3.39544389e+02
480             	3.39544689e+02
481             	3.39544959e+02
482             	3.39545226e+02
483             	3.39545499e+02
484             	3.39545721e+02
485             	3.39546015e+02
486             	3.39546363e+02
487             	3.39546610e+02
488             	3.39546905e+02
489             	3.39547144e+02
490             	3.39547370e+02
491             	3.39547709e+02
492             	3.39547959e+02
493             	3.39548180e+02
494             	3.39548431e+02
495             	3.39548832e+02
496             	3.39549158e+02
497             	3.39549378e+02
498             	3.39549628e+02
499             	3.39549867e+02
500             	3.39550113e+02
501             	3.39550354e+02
502             	3.39550540e+02
503             	3.39550792e+02
504             	3.39551058e+02
505             	3.39551252e+02
506             	3.39551275e+02
507             	3.39551493e+02
508             	3.39551758e+02
509             	3.39552037e+02
510             	3.39552190e+02
511             	3.39552300e+02
512             	3.39552422e+02
513             	3.39552553e+02
514             	3.39552700e+02
515             	3.39552859e+02
516             	3.39553169e+02
517             	3.39553340e+02
518             	3.39553464e+02
519             	3.39553634e+02
520             	3.39553788e+02
521             	3.39553970e+02
522             	3.39554139e+02
523             	3.39554292e+02
524             	3.39554397e+02
525             	3.39554467e+02
526             	3.39554524e+02
527             	3.39554571e+02
528             	3.39554609e+02
529             	3.39554669e+02
530             	3.39554729e+02
531             	3.39554807e+02
532             	3.39554859e+02
533             	3.39554971e+02
534             	3.39555060e+02
535             	3.39555172e+02
536             	3.39555283e+02
537             	3.39555384e+02
538             	3.39555473e+02
539             	3.39555544e+02
540             	3.39555594e+02
541             	3.39555715e+02
542             	3.39555802e+02
543             	3.39555901e+02
544             	3.39555982e+02
545             	3.39556094e+02
546             	3.39556154e+02
547             	3.39556211e+02
548             	3.39556292e+02
549             	3.39556391e+02
550             	3.39556459e+02
551             	3.39556518e+02
552             	3.39556539e+02
553             	3.39556649e+02
554             	3.39556794e+02
555             	3.39556880e+02
556             	3.39556928e+02
557             	3.39557005e+02
558             	3.39557069e+02
559             	3.39557127e+02
560             	3.39557186e+02
561             	3.39557249e+02
562             	3.39557318e+02
563             	3.39557411e+02
564             	3.39557556e+02
565             	3.39557648e+02
566             	3.39557741e+02
567             	3.39557862e+02
568             	3.39558003e+02
569             	3.39558139e+02
570             	3.39558273e+02
571             	3.39558417e+02
572             	3.39558500e+02
573             	3.39558632e+02
574             	3.39558750e+02
575             	3.39558842e+02
576             	3.39558921e+02
577             	3.39559004e+02
578             	3.39559083e+02
579             	3.39559150e+02
580             	3.39559245e+02
581             	3.39559357e+02
582             	3.39559493e+02
583             	3.39559619e+02
584             	3.39559739e+02
585             	3.39559866e+02
586             	3.39559987e+02
587             	3.39560108e+02
588             	3.39560222e+02
589             	3.39560324e+02
590             	3.39560395e+02
591             	3.39560448e+02
592             	3.39560487e+02
593             	3.39560523e+02
594             	3.39560563e+02
595             	3.39560617e+02
596             	3.39560702e+02
597             	3.39560785e+02
598             	3.39560844e+02
599             	3.39560894e+02
600             	3.39560947e+02
601             	3.39560984e+02
602             	3.39561024e+02
603             	3.39561064e+02
604             	3.39561081e+02
605             	3.39561118e+02
606             	3.39561162e+02
607             	3.39561194e+02
608             	3.39561222e+02
609             	3.39561243e+02
610             	3.39561265e+02
611             	3.39561283e+02
612             	3.39561311e+02
613             	3.39561335e+02
614             	3.39561363e+02
615             	3.39561393e+02
616             	3.39561424e+02
617             	3.39561457e+02
618             	3.39561474e+02
619             	3.39561491e+02
620             	3.39561513e+02
621             	3.39561543e+02
