# Region        : cellZone component_4
# Cells         : 216
# Volume        : 3.82186413e-01
# Time          	volAverage(T)
1               	3.00542125e+02
2               	3.01076439e+02
3               	3.01544043e+02
4               	3.01965457e+02
5               	3.02371285e+02
6               	3.02768762e+02
7               	3.03159251e+02
8               	3.03542541e+02
9               	3.03919405e+02
10              	3.04284482e+02
11              	3.04645700e+02
12              	3.04987470e+02
13              	3.05324769e+02
14              	3.05648717e+02
15              	3.05969570e+02
16              	3.06285184e+02
17              	3.06597341e+02
18              	3.06906199e+02
19              	3.07218559e+02
20              	3.07529455e+02
21              	3.07838803e+02
22              	3.08137439e+02
23              	3.08419150e+02
24              	3.08691207e+02
25              	3.08953751e+02
26              	3.09204564e+02
27              	3.09444450e+02
28              	3.09674216e+02
29              	3.09894427e+02
30              	3.10100058e+02
31              	3.10322915e+02
32              	3.10527830e+02
33              	3.10694408e+02
34              	3.10840618e+02
35              	3.10993016e+02
36              	3.11148996e+02
37              	3.11308707e+02
38              	3.11453793e+02
39              	3.11585599e+02
40              	3.11715129e+02
41              	3.11855821e+02
42              	3.12004980e+02
43              	3.12156240e+02
44              	3.12298952e+02
45              	3.12434484e+02
46              	3.12566820e+02
47              	3.12687602e+02
48              	3.12816451e+02
49              	3.12945295e+02
50              	3.13066926e+02
51              	3.13185651e+02
52              	3.13266539e+02
53              	3.13317888e+02
54              	3.13341800e+02
55              	3.13380674e+02
56              	3.13452515e+02
57              	3.13544136e+02
58              	3.13630603e+02
59              	3.13711904e+02
60              	3.13790335e+02
61              	3.13866935e+02
62              	3.13947156e+02
63              	3.14032195e+02
64              	3.14119493e+02
65              	3.14212033e+02
66              	3.14308241e+02
67              	3.14408551e+02
68              	3.14503962e+02
69              	3.14591048e+02
70              	3.14663926e+02
71              	3.14735995e+02
72              	3.14802964e+02
73              	3.14868712e+02
74              	3.14932335e+02
75              	3.14995818e+02
76              	3.15054042e+02
77              	3.15109965e+02
78              	3.15165395e+02
79              	3.15220180e+02
80              	3.15274411e+02
81              	3.15328588e+02
82              	3.15382589e+02
83              	3.15436083e+02
84              	3.15488516e+02
85              	3.15539973e+02
86              	3.15593381e+02
87              	3.15646603e+02
88              	3.15697831e+02
89              	3.15744606e+02
90              	3.15789658e+02
91              	3.15832118e+02
92              	3.15871655e+02
93              	3.15909770e+02
94              	3.15946063e+02
95              	3.15981358e+02
96              	3.16016890e+02
97              	3.16051097e+02
98              	3.16082560e+02
99              	3.16110046e+02
100             	3.16135384e+02
101             	3.16159618e+02
102             	3.16183912e+02
103             	3.16208262e+02
104             	3.16234143e+02
105             	3.16261648e+02
106             	3.16289973e+02
107             	3.16319986e+02
108             	3.16349009e+02
109             	3.16378977e+02
110             	3.16409019e+02
111             	3.16438104e+02
112             	3.16465273e+02
113             	3.16491946e+02
114             	3.16517715e+02
115             	3.16541477e+02
116             	3.16564743e+02
117             	3.16587293e+02
118             	3.16608721e+02
119             	3.16629634e+02
120             	3.16649608e+02
121             	3.16669474e+02
122             	3.16689725e+02
123             	3.16710343e+02
124             	3.16732113e+02
125             	3.16753942e+02
126             	3.16775301e+02
127             	3.16796615e+02
128             	3.16816887e+02
129             	3.16835919e+02
130             	3.16853943e+02
131             	3.16871496e+02
132             	3.16887933e+02
133             	3.16903697e+02
134             	3.16918657e+02
135             	3.16933013e+02
136             	3.16946904e+02
137             	3.16960438e+02
138             	3.16973658e+02
139             	3.16985996e+02
140             	3.16997517e+02
141             	3.17008694e+02
142             	3.17019643e+02
143             	3.17030218e+02
144             	3.17040889e+02
145             	3.17051918e+02
146             	3.17063514e+02
147             	3.17075647e+02
148             	3.17087920e+02
149             	3.17100662e+02
150             	3.17113791e+02
151             	3.17127455e+02
152             	3.17141781e+02
153             	3.17155079e+02
154             	3.17167827e+02
155             	3.17179806e+02
156             	3.17191434e+02
157             	3.17202630e+02
158             	3.17213671e+02
159             	3.17225110e+02
160             	3.17237109e+02
161             	3.17248991e+02
162             	3.17261386e+02
163             	3.17273523e+02
164             	3.17284830e+02
165             	3.17295588e+02
166             	3.17305291e+02
167             	3.17314080e+02
168             	3.17322310e+02
169             	3.17330321e+02
170             	3.17338670e+02
171             	3.17346733e+02
172             	3.17354189e+02
173             	3.17361305e+02
174             	3.17368764e+02
175             	3.17376173e+02
176             	3.17383269e+02
177             	3.17390160e+02
178             	3.17396764e+02
179             	3.17403104e+02
180             	3.17409243e+02
181             	3.17415095e+02
182             	3.17421485e+02
183             	3.17427530e+02
184             	3.17433252e+02
185             	3.17438957e+02
186             	3.17444887e+02
187             	3.17450948e+02
188             	3.17457086e+02
189             	3.17463408e+02
190             	3.17469839e+02
191             	3.17476454e+02
192             	3.17482758e+02
193             	3.17488660e+02
194             	3.17494235e+02
195             	3.17499452e+02
196             	3.17504101e+02
197             	3.17508389e+02
198             	3.17512621e+02
199             	3.17516786e+02
200             	3.17520926e+02
201             	3.17525093e+02
202             	3.17529310e+02
203             	3.17533323e+02
204             	3.17537130e+02
205             	3.17540865e+02
206             	3.17544369e+02
207             	3.17547556e+02
208             	3.17550389e+02
209             	3.17552839e+02
210             	3.17555218e+02
211             	3.17557343e+02
212             	3.17559228e+02
213             	3.17560961e+02
214             	3.17562739e+02
215             	3.17564449e+02
216             	3.17565912e+02
217             	3.17567239e+02
218             	3.17568458e+02
219             	3.17569699e+02
220             	3.17570971e+02
221             	3.17572194e+02
222             	3.17573424e+02
223             	3.17574884e+02
224             	3.17576399e+02
225             	3.17578004e+02
226             	3.17579728e+02
227             	3.17581473e+02
228             	3.17583143e+02
229             	3.17584877e+02
230             	3.17586610e+02
231             	3.17588082e+02
232             	3.17589262e+02
233             	3.17590354e+02
234             	3.17591429e+02
235             	3.17592625e+02
236             	3.17593921e+02
237             	3.17595283e+02
238             	3.17596737e+02
239             	3.17598241e+02
240             	3.17599766e+02
241             	3.17601210e+02
242             	3.17602740e+02
243             	3.17604388e+02
244             	3.17606166e+02
245             	3.17608017e+02
246             	3.17609867e+02
247             	3.17611664e+02
248             	3.17613386e+02
249             	3.17615016e+02
250             	3.17616434e+02
251             	3.17617752e+02
252             	3.17618940e+02
253             	3.17619979e+02
254             	3.17620752e+02
255             	3.17621398e+02
256             	3.17622021e+02
257             	3.17622597e+02
258             	3.17623128e+02
259             	3.17623574e+02
260             	3.17624108e+02
261             	3.17624634e+02
262             	3.17625216e+02
263             	3.17625885e+02
264             	3.17626595e+02
265             	3.17627385e+02
266             	3.17628251e+02
267             	3.17629139e+02
268             	3.17629952e+02
269             	3.17630808e+02
270             	3.17631641e+02
271             	3.17632337e+02
272             	3.17632984e+02
273             	3.17633601e+02
274             	3.17634279e+02
275             	3.17634942e+02
276             	3.17635584e+02
277             	3.17636170e+02
278             	3.17636674e+02
279             	3.17637101e+02
280             	3.17637475e+02
281             	3.17637770e+02
282             	3.17638071e+02
283             	3.17638431e+02
284             	3.17638896e+02
285             	3.17639420e+02
286             	3.17640014e+02
287             	3.17640638e+02
288             	3.17641242e+02
289             	3.17641905e+02
290             	3.17642586e+02
291             	3.17643269e+02
292             	3.17643978e+02
293             	3.17644717e+02
294             	3.17645363e+02
295             	3.17645919e+02
296             	3.17646470e+02
297             	3.17646992e+02
298             	3.17647457e+02
299             	3.17647827e+02
300             	3.17648091e+02
301             	3.17648321e+02
302             	3.17648535e+02
303             	3.17648730e+02
304             	3.17648924e+02
305             	3.17649130e+02
306             	3.17649331e+02
307             	3.17649522e+02
308             	3.17649695e+02
309             	3.17649856e+02
310             	3.17649976e+02
311             	3.17650108e+02
312             	3.17650267e+02
313             	3.17650469e+02
314             	3.17650720e+02
315             	3.17650986e+02
316             	3.17651272e+02
317             	3.17651588e+02
318             	3.17651920e+02
319             	3.17652228e+02
320             	3.17652539e+02
321             	3.17652850e+02
322             	3.17653130e+02
323             	3.17653368e+02
324             	3.17653587e+02
325             	3.17653801e+02
326             	3.17654025e+02
327             	3.17654252e+02
328             	3.17654471e+02
329             	3.17654693e+02
330             	3.17654921e+02
331             	3.17655152e+02
332             	3.17655372e+02
333             	3.17655588e+02
334             	3.17655798e+02
335             	3.17656004e+02
336             	3.17656187e+02
337             	3.17656336e+02
338             	3.17656465e+02
339             	3.17656560e+02
340             	3.17656666e+02
341             	3.17656789e+02
342             	3.17656901e+02
343             	3.17656999e+02
344             	3.17657083e+02
345             	3.17657184e+02
346             	3.17657258e+02
347             	3.17657324e+02
348             	3.17657396e+02
349             	3.17657440e+02
350             	3.17657460e+02
351             	3.17657469e+02
352             	3.17657466e+02
353             	3.17657470e+02
354             	3.17657463e+02
355             	3.17657458e+02
356             	3.17657494e+02
357             	3.17657590e+02
358             	3.17657725e+02
359             	3.17657845e+02
360             	3.17657988e+02
361             	3.17658153e+02
362             	3.17658315e+02
363             	3.17658448e+02
364             	3.17658571e+02
365             	3.17658668e+02
366             	3.17658746e+02
367             	3.17658816e+02
368             	3.17658894e+02
369             	3.17659005e+02
370             	3.17659143e+02
371             	3.17659301e+02
372             	3.17659483e+02
373             	3.17659678e+02
374             	3.17659845e+02
375             	3.17659979e+02
376             	3.17660085e+02
377             	3.17660165e+02
378             	3.17660241e+02
379             	3.17660314e+02
380             	3.17660399e+02
381             	3.17660508e+02
382             	3.17660623e+02
383             	3.17660753e+02
384             	3.17660882e+02
385             	3.17660999e+02
386             	3.17661092e+02
387             	3.17661156e+02
388             	3.17661192e+02
389             	3.17661222e+02
390             	3.17661244e+02
391             	3.17661258e+02
392             	3.17661278e+02
393             	3.17661322e+02
394             	3.17661385e+02
395             	3.17661455e+02
396             	3.17661522e+02
397             	3.17661593e+02
398             	3.17661658e+02
399             	3.17661720e+02
400             	3.17661786e+02
401             	3.17661849e+02
402             	3.17661927e+02
403             	3.17662011e+02
404             	3.17662081e+02
405             	3.17662150e+02
406             	3.17662214e+02
407             	3.17662281e+02
408             	3.17662344e+02
409             	3.17662376e+02
410             	3.17662382e+02
411             	3.17662369e+02
412             	3.17662343e+02
413             	3.17662305e+02
414             	3.17662282e+02
415             	3.17662298e+02
416             	3.17662332e+02
417             	3.17662379e+02
418             	3.17662450e+02
419             	3.17662537e+02
420             	3.17662606e+02
421             	3.17662668e+02
422             	3.17662724e+02
423             	3.17662748e+02
424             	3.17662757e+02
425             	3.17662755e+02
426             	3.17662749e+02
427             	3.17662736e+02
428             	3.17662723e+02
429             	3.17662729e+02
430             	3.17662755e+02
431             	3.17662795e+02
432             	3.17662847e+02
433             	3.17662919e+02
434             	3.17662996e+02
435             	3.17663069e+02
436             	3.17663143e+02
437             	3.17663213e+02
438             	3.17663271e+02
439             	3.17663302e+02
440             	3.17663302e+02
441             	3.17663290e+02
442             	3.17663283e+02
443             	3.17663256e+02
444             	3.17663231e+02
445             	3.17663206e+02
446             	3.17663199e+02
447             	3.17663225e+02
448             	3.17663272e+02
449             	3.17663333e+02
450             	3.17663407e+02
451             	3.17663472e+02
452             	3.17663533e+02
453             	3.17663574e+02
454             	3.17663588e+02
455             	3.17663592e+02
456             	3.17663578e+02
457             	3.17663554e+02
458             	3.17663517e+02
459             	3.17663488e+02
460             	3.17663474e+02
461             	3.17663477e+02
462             	3.17663509e+02
463             	3.17663552e+02
464             	3.17663595e+02
465             	3.17663642e+02
466             	3.17663679e+02
467             	3.17663710e+02
468             	3.17663721e+02
469             	3.17663724e+02
470             	3.17663716e+02
471             	3.17663704e+02
472             	3.17663691e+02
473             	3.17663676e+02
474             	3.17663661e+02
475             	3.17663648e+02
476             	3.17663642e+02
477             	3.17663643e+02
478             	3.17663653e+02
479             	3.17663671e+02
480             	3.17663698e+02
481             	3.17663729e+02
482             	3.17663761e+02
483             	3.17663793e+02
484             	3.17663822e+02
485             	3.17663846e+02
486             	3.17663870e+02
487             	3.17663890e+02
488             	3.17663905e+02
489             	3.17663916e+02
490             	3.17663928e+02
491             	3.17663938e+02
492             	3.17663945e+02
493             	3.17663948e+02
494             	3.17663948e+02
495             	3.17663944e+02
496             	3.17663940e+02
497             	3.17663932e+02
498             	3.17663924e+02
499             	3.17663916e+02
500             	3.17663908e+02
501             	3.17663904e+02
502             	3.17663905e+02
503             	3.17663911e+02
504             	3.17663922e+02
505             	3.17663936e+02
506             	3.17663955e+02
507             	3.17663974e+02
508             	3.17663994e+02
509             	3.17664014e+02
510             	3.17664037e+02
511             	3.17664057e+02
512             	3.17664073e+02
513             	3.17664087e+02
514             	3.17664099e+02
515             	3.17664109e+02
516             	3.17664116e+02
517             	3.17664118e+02
518             	3.17664118e+02
519             	3.17664114e+02
520             	3.17664110e+02
521             	3.17664108e+02
522             	3.17664102e+02
523             	3.17664097e+02
524             	3.17664096e+02
525             	3.17664095e+02
526             	3.17664094e+02
527             	3.17664096e+02
528             	3.17664101e+02
529             	3.17664108e+02
530             	3.17664122e+02
531             	3.17664139e+02
532             	3.17664154e+02
533             	3.17664165e+02
534             	3.17664178e+02
535             	3.17664193e+02
536             	3.17664206e+02
537             	3.17664215e+02
538             	3.17664225e+02
539             	3.17664233e+02
540             	3.17664237e+02
541             	3.17664239e+02
542             	3.17664239e+02
543             	3.17664237e+02
544             	3.17664232e+02
545             	3.17664224e+02
546             	3.17664211e+02
547             	3.17664197e+02
548             	3.17664189e+02
549             	3.17664180e+02
550             	3.17664172e+02
551             	3.17664168e+02
552             	3.17664168e+02
553             	3.17664171e+02
554             	3.17664177e+02
555             	3.17664182e+02
556             	3.17664190e+02
557             	3.17664198e+02
558             	3.17664208e+02
559             	3.17664218e+02
560             	3.17664231e+02
561             	3.17664246e+02
562             	3.17664260e+02
563             	3.17664273e+02
564             	3.17664283e+02
565             	3.17664288e+02
566             	3.17664290e+02
567             	3.17664289e+02
568             	3.17664287e+02
569             	3.17664283e+02
570             	3.17664274e+02
571             	3.17664268e+02
572             	3.17664266e+02
573             	3.17664263e+02
574             	3.17664265e+02
575             	3.17664270e+02
576             	3.17664286e+02
577             	3.17664303e+02
578             	3.17664320e+02
579             	3.17664338e+02
580             	3.17664357e+02
581             	3.17664376e+02
582             	3.17664394e+02
583             	3.17664412e+02
584             	3.17664429e+02
585             	3.17664443e+02
586             	3.17664454e+02
587             	3.17664462e+02
588             	3.17664470e+02
589             	3.17664475e+02
590             	3.17664478e+02
591             	3.17664476e+02
592             	3.17664474e+02
593             	3.17664472e+02
594             	3.17664471e+02
595             	3.17664470e+02
596             	3.17664470e+02
597             	3.17664472e+02
598             	3.17664478e+02
599             	3.17664488e+02
600             	3.17664502e+02
601             	3.17664517e+02
602             	3.17664530e+02
603             	3.17664546e+02
604             	3.17664560e+02
605             	3.17664573e+02
606             	3.17664583e+02
607             	3.17664590e+02
608             	3.17664595e+02
609             	3.17664599e+02
610             	3.17664603e+02
611             	3.17664605e+02
612             	3.17664607e+02
613             	3.17664610e+02
614             	3.17664610e+02
615             	3.17664610e+02
616             	3.17664609e+02
617             	3.17664608e+02
618             	3.17664611e+02
619             	3.17664614e+02
620             	3.17664618e+02
621             	3.17664628e+02
