# Region        : cellZone component_3
# Cells         : 204
# Volume        : 4.14242499e-01
# Time          	volAverage(T)
1               	3.00193527e+02
2               	3.00385088e+02
3               	3.00567455e+02
4               	3.00744209e+02
5               	3.00918103e+02
6               	3.01089591e+02
7               	3.01259214e+02
8               	3.01427529e+02
9               	3.01595114e+02
10              	3.01761589e+02
11              	3.01927181e+02
12              	3.02091754e+02
13              	3.02255154e+02
14              	3.02417439e+02
15              	3.02579343e+02
16              	3.02740076e+02
17              	3.02899227e+02
18              	3.03057421e+02
19              	3.03214291e+02
20              	3.03370123e+02
21              	3.03525168e+02
22              	3.03679531e+02
23              	3.03832969e+02
24              	3.03984953e+02
25              	3.04135566e+02
26              	3.04283715e+02
27              	3.04430322e+02
28              	3.04575094e+02
29              	3.04718386e+02
30              	3.04859685e+02
31              	3.05000442e+02
32              	3.05141165e+02
33              	3.05280997e+02
34              	3.05418582e+02
35              	3.05553290e+02
36              	3.05685227e+02
37              	3.05814247e+02
38              	3.05941340e+02
39              	3.06067532e+02
40              	3.06190471e+02
41              	3.06313464e+02
42              	3.06434220e+02
43              	3.06552303e+02
44              	3.06669114e+02
45              	3.06782600e+02
46              	3.06895066e+02
47              	3.07006521e+02
48              	3.07116366e+02
49              	3.07225656e+02
50              	3.07335420e+02
51              	3.07447001e+02
52              	3.07555476e+02
53              	3.07663367e+02
54              	3.07770231e+02
55              	3.07874415e+02
56              	3.07975808e+02
57              	3.08073982e+02
58              	3.08169406e+02
59              	3.08260691e+02
60              	3.08351644e+02
61              	3.08440180e+02
62              	3.08526844e+02
63              	3.08612984e+02
64              	3.08699333e+02
65              	3.08786507e+02
66              	3.08872873e+02
67              	3.08957450e+02
68              	3.09039357e+02
69              	3.09119116e+02
70              	3.09195956e+02
71              	3.09270470e+02
72              	3.09341901e+02
73              	3.09409914e+02
74              	3.09475428e+02
75              	3.09540243e+02
76              	3.09605665e+02
77              	3.09672571e+02
78              	3.09741112e+02
79              	3.09809750e+02
80              	3.09878054e+02
81              	3.09944804e+02
82              	3.10008877e+02
83              	3.10071940e+02
84              	3.10132579e+02
85              	3.10190148e+02
86              	3.10246422e+02
87              	3.10301174e+02
88              	3.10355938e+02
89              	3.10411580e+02
90              	3.10467492e+02
91              	3.10523796e+02
92              	3.10580046e+02
93              	3.10635714e+02
94              	3.10691172e+02
95              	3.10745868e+02
96              	3.10799646e+02
97              	3.10852135e+02
98              	3.10903676e+02
99              	3.10954640e+02
100             	3.11005139e+02
101             	3.11055048e+02
102             	3.11104564e+02
103             	3.11153080e+02
104             	3.11201787e+02
105             	3.11250469e+02
106             	3.11298900e+02
107             	3.11346304e+02
108             	3.11393230e+02
109             	3.11439213e+02
110             	3.11483892e+02
111             	3.11527063e+02
112             	3.11568782e+02
113             	3.11609221e+02
114             	3.11648732e+02
115             	3.11687881e+02
116             	3.11726820e+02
117             	3.11766000e+02
118             	3.11805627e+02
119             	3.11845630e+02
120             	3.11885658e+02
121             	3.11924829e+02
122             	3.11963560e+02
123             	3.12001102e+02
124             	3.12037436e+02
125             	3.12072534e+02
126             	3.12106353e+02
127             	3.12139091e+02
128             	3.12170974e+02
129             	3.12202177e+02
130             	3.12232798e+02
131             	3.12262924e+02
132             	3.12292642e+02
133             	3.12322072e+02
134             	3.12351330e+02
135             	3.12380432e+02
136             	3.12409387e+02
137             	3.12437929e+02
138             	3.12466151e+02
139             	3.12493947e+02
140             	3.12521265e+02
141             	3.12548079e+02
142             	3.12574402e+02
143             	3.12600284e+02
144             	3.12625741e+02
145             	3.12650809e+02
146             	3.12675479e+02
147             	3.12699775e+02
148             	3.12723718e+02
149             	3.12747259e+02
150             	3.12770272e+02
151             	3.12792927e+02
152             	3.12815167e+02
153             	3.12836968e+02
154             	3.12858312e+02
155             	3.12879219e+02
156             	3.12899669e+02
157             	3.12919805e+02
158             	3.12939594e+02
159             	3.12959058e+02
160             	3.12978244e+02
161             	3.12997140e+02
162             	3.13015784e+02
163             	3.13034206e+02
164             	3.13052429e+02
165             	3.13070483e+02
166             	3.13088381e+02
167             	3.13106094e+02
168             	3.13123593e+02
169             	3.13140856e+02
170             	3.13157840e+02
171             	3.13174517e+02
172             	3.13190894e+02
173             	3.13207010e+02
174             	3.13222913e+02
175             	3.13238630e+02
176             	3.13254174e+02
177             	3.13269479e+02
178             	3.13284511e+02
179             	3.13299250e+02
180             	3.13313658e+02
181             	3.13327733e+02
182             	3.13341487e+02
183             	3.13354968e+02
184             	3.13368232e+02
185             	3.13381404e+02
186             	3.13394513e+02
187             	3.13407600e+02
188             	3.13420685e+02
189             	3.13433736e+02
190             	3.13446682e+02
191             	3.13459452e+02
192             	3.13471979e+02
193             	3.13484214e+02
194             	3.13496164e+02
195             	3.13507866e+02
196             	3.13519383e+02
197             	3.13530766e+02
198             	3.13542067e+02
199             	3.13553321e+02
200             	3.13564528e+02
201             	3.13575652e+02
202             	3.13586628e+02
203             	3.13597419e+02
204             	3.13608001e+02
205             	3.13618347e+02
206             	3.13628467e+02
207             	3.13638397e+02
208             	3.13648190e+02
209             	3.13657865e+02
210             	3.13667475e+02
211             	3.13677031e+02
212             	3.13686533e+02
213             	3.13695959e+02
214             	3.13705283e+02
215             	3.13714485e+02
216             	3.13723549e+02
217             	3.13732461e+02
218             	3.13741231e+02
219             	3.13749869e+02
220             	3.13758398e+02
221             	3.13766842e+02
222             	3.13775218e+02
223             	3.13783535e+02
224             	3.13791809e+02
225             	3.13800028e+02
226             	3.13808173e+02
227             	3.13816217e+02
228             	3.13824156e+02
229             	3.13831967e+02
230             	3.13839647e+02
231             	3.13847199e+02
232             	3.13854631e+02
233             	3.13861955e+02
234             	3.13869194e+02
235             	3.13876357e+02
236             	3.13883467e+02
237             	3.13890519e+02
238             	3.13897513e+02
239             	3.13904443e+02
240             	3.13911297e+02
241             	3.13918059e+02
242             	3.13924723e+02
243             	3.13931293e+02
244             	3.13937773e+02
245             	3.13944183e+02
246             	3.13950523e+02
247             	3.13956810e+02
248             	3.13963049e+02
249             	3.13969236e+02
250             	3.13975373e+02
251             	3.13981451e+02
252             	3.13987468e+02
253             	3.13993420e+02
254             	3.13999303e+02
255             	3.14005117e+02
256             	3.14010857e+02
257             	3.14016524e+02
258             	3.14022118e+02
259             	3.14027642e+02
260             	3.14033098e+02
261             	3.14038491e+02
262             	3.14043823e+02
263             	3.14049101e+02
264             	3.14054327e+02
265             	3.14059498e+02
266             	3.14064617e+02
267             	3.14069682e+02
268             	3.14074690e+02
269             	3.14079638e+02
270             	3.14084527e+02
271             	3.14089356e+02
272             	3.14094124e+02
273             	3.14098842e+02
274             	3.14103509e+02
275             	3.14108133e+02
276             	3.14112720e+02
277             	3.14117268e+02
278             	3.14121778e+02
279             	3.14126246e+02
280             	3.14130670e+02
281             	3.14135049e+02
282             	3.14139381e+02
283             	3.14143660e+02
284             	3.14147886e+02
285             	3.14152058e+02
286             	3.14156178e+02
287             	3.14160246e+02
288             	3.14164268e+02
289             	3.14168246e+02
290             	3.14172182e+02
291             	3.14176078e+02
292             	3.14179935e+02
293             	3.14183754e+02
294             	3.14187537e+02
295             	3.14191281e+02
296             	3.14194984e+02
297             	3.14198648e+02
298             	3.14202271e+02
299             	3.14205855e+02
300             	3.14209402e+02
301             	3.14212915e+02
302             	3.14216395e+02
303             	3.14219843e+02
304             	3.14223259e+02
305             	3.14226643e+02
306             	3.14229992e+02
307             	3.14233306e+02
308             	3.14236583e+02
309             	3.14239821e+02
310             	3.14243024e+02
311             	3.14246189e+02
312             	3.14249317e+02
313             	3.14252408e+02
314             	3.14255465e+02
315             	3.14258489e+02
316             	3.14261480e+02
317             	3.14264440e+02
318             	3.14267369e+02
319             	3.14270271e+02
320             	3.14273146e+02
321             	3.14275995e+02
322             	3.14278819e+02
323             	3.14281616e+02
324             	3.14284388e+02
325             	3.14287132e+02
326             	3.14289847e+02
327             	3.14292532e+02
328             	3.14295191e+02
329             	3.14297823e+02
330             	3.14300431e+02
331             	3.14303014e+02
332             	3.14305575e+02
333             	3.14308110e+02
334             	3.14310619e+02
335             	3.14313101e+02
336             	3.14315556e+02
337             	3.14317983e+02
338             	3.14320381e+02
339             	3.14322752e+02
340             	3.14325099e+02
341             	3.14327419e+02
342             	3.14329717e+02
343             	3.14331991e+02
344             	3.14334244e+02
345             	3.14336475e+02
346             	3.14338686e+02
347             	3.14340877e+02
348             	3.14343046e+02
349             	3.14345195e+02
350             	3.14347322e+02
351             	3.14349427e+02
352             	3.14351510e+02
353             	3.14353572e+02
354             	3.14355614e+02
355             	3.14357636e+02
356             	3.14359638e+02
357             	3.14361622e+02
358             	3.14363588e+02
359             	3.14365534e+02
360             	3.14367463e+02
361             	3.14369373e+02
362             	3.14371265e+02
363             	3.14373141e+02
364             	3.14374999e+02
365             	3.14376840e+02
366             	3.14378661e+02
367             	3.14380463e+02
368             	3.14382244e+02
369             	3.14384005e+02
370             	3.14385745e+02
371             	3.14387467e+02
372             	3.14389171e+02
373             	3.14390858e+02
374             	3.14392530e+02
375             	3.14394188e+02
376             	3.14395832e+02
377             	3.14397463e+02
378             	3.14399082e+02
379             	3.14400689e+02
380             	3.14402282e+02
381             	3.14403862e+02
382             	3.14405427e+02
383             	3.14406977e+02
384             	3.14408512e+02
385             	3.14410031e+02
386             	3.14411534e+02
387             	3.14413022e+02
388             	3.14414494e+02
389             	3.14415950e+02
390             	3.14417392e+02
391             	3.14418819e+02
392             	3.14420232e+02
393             	3.14421633e+02
394             	3.14423023e+02
395             	3.14424401e+02
396             	3.14425771e+02
397             	3.14427130e+02
398             	3.14428480e+02
399             	3.14429819e+02
400             	3.14431146e+02
401             	3.14432459e+02
402             	3.14433757e+02
403             	3.14435040e+02
404             	3.14436307e+02
405             	3.14437559e+02
406             	3.14438795e+02
407             	3.14440018e+02
408             	3.14441231e+02
409             	3.14442434e+02
410             	3.14443629e+02
411             	3.14444817e+02
412             	3.14445998e+02
413             	3.14447172e+02
414             	3.14448337e+02
415             	3.14449491e+02
416             	3.14450635e+02
417             	3.14451766e+02
418             	3.14452886e+02
419             	3.14453992e+02
420             	3.14455086e+02
421             	3.14456169e+02
422             	3.14457241e+02
423             	3.14458304e+02
424             	3.14459359e+02
425             	3.14460406e+02
426             	3.14461447e+02
427             	3.14462482e+02
428             	3.14463509e+02
429             	3.14464529e+02
430             	3.14465542e+02
431             	3.14466545e+02
432             	3.14467540e+02
433             	3.14468525e+02
434             	3.14469500e+02
435             	3.14470466e+02
436             	3.14471421e+02
437             	3.14472366e+02
438             	3.14473301e+02
439             	3.14474225e+02
440             	3.14475138e+02
441             	3.14476042e+02
442             	3.14476936e+02
443             	3.14477823e+02
444             	3.14478703e+02
445             	3.14479579e+02
446             	3.14480449e+02
447             	3.14481314e+02
448             	3.14482175e+02
449             	3.14483027e+02
450             	3.14483873e+02
451             	3.14484710e+02
452             	3.14485539e+02
453             	3.14486358e+02
454             	3.14487169e+02
455             	3.14487972e+02
456             	3.14488767e+02
457             	3.14489555e+02
458             	3.14490337e+02
459             	3.14491113e+02
460             	3.14491882e+02
461             	3.14492645e+02
462             	3.14493403e+02
463             	3.14494154e+02
464             	3.14494898e+02
465             	3.14495635e+02
466             	3.14496365e+02
467             	3.14497087e+02
468             	3.14497803e+02
469             	3.14498511e+02
470             	3.14499211e+02
471             	3.14499905e+02
472             	3.14500593e+02
473             	3.14501274e+02
474             	3.14501949e+02
475             	3.14502618e+02
476             	3.14503282e+02
477             	3.14503940e+02
478             	3.14504594e+02
479             	3.14505242e+02
480             	3.14505886e+02
481             	3.14506526e+02
482             	3.14507161e+02
483             	3.14507790e+02
484             	3.14508415e+02
485             	3.14509035e+02
486             	3.14509649e+02
487             	3.14510259e+02
488             	3.14510863e+02
489             	3.14511461e+02
490             	3.14512054e+02
491             	3.14512641e+02
492             	3.14513222e+02
493             	3.14513798e+02
494             	3.14514367e+02
495             	3.14514931e+02
496             	3.14515490e+02
497             	3.14516043e+02
498             	3.14516592e+02
499             	3.14517136e+02
500             	3.14517676e+02
501             	3.14518212e+02
502             	3.14518744e+02
503             	3.14519271e+02
504             	3.14519795e+02
505             	3.14520313e+02
506             	3.14520826e+02
507             	3.14521334e+02
508             	3.14521837e+02
509             	3.14522334e+02
510             	3.14522825e+02
511             	3.14523312e+02
512             	3.14523794e+02
513             	3.14524272e+02
514             	3.14524746e+02
515             	3.14525217e+02
516             	3.14525684e+02
517             	3.14526148e+02
518             	3.14526610e+02
519             	3.14527068e+02
520             	3.14527522e+02
521             	3.14527973e+02
522             	3.14528418e+02
523             	3.14528860e+02
524             	3.14529297e+02
525             	3.14529731e+02
526             	3.14530160e+02
527             	3.14530587e+02
528             	3.14531011e+02
529             	3.14531433e+02
530             	3.14531851e+02
531             	3.14532267e+02
532             	3.14532681e+02
533             	3.14533092e+02
534             	3.14533500e+02
535             	3.14533904e+02
536             	3.14534305e+02
537             	3.14534702e+02
538             	3.14535095e+02
539             	3.14535483e+02
540             	3.14535867e+02
541             	3.14536247e+02
542             	3.14536625e+02
543             	3.14536999e+02
544             	3.14537370e+02
545             	3.14537738e+02
546             	3.14538104e+02
547             	3.14538468e+02
548             	3.14538829e+02
549             	3.14539187e+02
550             	3.14539541e+02
551             	3.14539892e+02
552             	3.14540240e+02
553             	3.14540586e+02
554             	3.14540928e+02
555             	3.14541267e+02
556             	3.14541604e+02
557             	3.14541938e+02
558             	3.14542271e+02
559             	3.14542601e+02
560             	3.14542930e+02
561             	3.14543257e+02
562             	3.14543582e+02
563             	3.14543906e+02
564             	3.14544227e+02
565             	3.14544545e+02
566             	3.14544861e+02
567             	3.14545175e+02
568             	3.14545485e+02
569             	3.14545793e+02
570             	3.14546098e+02
571             	3.14546400e+02
572             	3.14546699e+02
573             	3.14546995e+02
574             	3.14547288e+02
575             	3.14547578e+02
576             	3.14547865e+02
577             	3.14548149e+02
578             	3.14548431e+02
579             	3.14548709e+02
580             	3.14548984e+02
581             	3.14549258e+02
582             	3.14549529e+02
583             	3.14549799e+02
584             	3.14550068e+02
585             	3.14550336e+02
586             	3.14550603e+02
587             	3.14550868e+02
588             	3.14551133e+02
589             	3.14551397e+02
590             	3.14551660e+02
591             	3.14551920e+02
592             	3.14552179e+02
593             	3.14552435e+02
594             	3.14552689e+02
595             	3.14552940e+02
596             	3.14553189e+02
597             	3.14553436e+02
598             	3.14553680e+02
599             	3.14553922e+02
600             	3.14554163e+02
601             	3.14554402e+02
602             	3.14554639e+02
603             	3.14554874e+02
604             	3.14555108e+02
605             	3.14555340e+02
606             	3.14555571e+02
607             	3.14555800e+02
608             	3.14556028e+02
609             	3.14556255e+02
610             	3.14556481e+02
611             	3.14556706e+02
612             	3.14556930e+02
613             	3.14557153e+02
614             	3.14557374e+02
615             	3.14557593e+02
616             	3.14557809e+02
617             	3.14558023e+02
618             	3.14558235e+02
619             	3.14558445e+02
620             	3.14558651e+02
621             	3.14558856e+02
