# Region        : cellZone component_1
# Cells         : 364
# Volume        : 7.30078924e-01
# Time          	volAverage(T)
1               	3.00151959e+02
2               	3.00300961e+02
3               	3.00435292e+02
4               	3.00558646e+02
5               	3.00675897e+02
6               	3.00789082e+02
7               	3.00898872e+02
8               	3.01005527e+02
9               	3.01108955e+02
10              	3.01209658e+02
11              	3.01308375e+02
12              	3.01404864e+02
13              	3.01498878e+02
14              	3.01590682e+02
15              	3.01679937e+02
16              	3.01768015e+02
17              	3.01854597e+02
18              	3.01939989e+02
19              	3.02023908e+02
20              	3.02107908e+02
21              	3.02190841e+02
22              	3.02274099e+02
23              	3.02355962e+02
24              	3.02435939e+02
25              	3.02514305e+02
26              	3.02590158e+02
27              	3.02664146e+02
28              	3.02734930e+02
29              	3.02802939e+02
30              	3.02867430e+02
31              	3.02928809e+02
32              	3.02987130e+02
33              	3.03042591e+02
34              	3.03095345e+02
35              	3.03146526e+02
36              	3.03196866e+02
37              	3.03247164e+02
38              	3.03296967e+02
39              	3.03346723e+02
40              	3.03396281e+02
41              	3.03445185e+02
42              	3.03492357e+02
43              	3.03538825e+02
44              	3.03585246e+02
45              	3.03632544e+02
46              	3.03677089e+02
47              	3.03717003e+02
48              	3.03756323e+02
49              	3.03794044e+02
50              	3.03829050e+02
51              	3.03860744e+02
52              	3.03890155e+02
53              	3.03917750e+02
54              	3.03943779e+02
55              	3.03968202e+02
56              	3.03991679e+02
57              	3.04015427e+02
58              	3.04039879e+02
59              	3.04066073e+02
60              	3.04093298e+02
61              	3.04121250e+02
62              	3.04148613e+02
63              	3.04175021e+02
64              	3.04200056e+02
65              	3.04225607e+02
66              	3.04248802e+02
67              	3.04268727e+02
68              	3.04288209e+02
69              	3.04307599e+02
70              	3.04326352e+02
71              	3.04344661e+02
72              	3.04362585e+02
73              	3.04380053e+02
74              	3.04397095e+02
75              	3.04413714e+02
76              	3.04430161e+02
77              	3.04446355e+02
78              	3.04462580e+02
79              	3.04478836e+02
80              	3.04495280e+02
81              	3.04511784e+02
82              	3.04528101e+02
83              	3.04544063e+02
84              	3.04559379e+02
85              	3.04574641e+02
86              	3.04589373e+02
87              	3.04603367e+02
88              	3.04616660e+02
89              	3.04629206e+02
90              	3.04641470e+02
91              	3.04653344e+02
92              	3.04664940e+02
93              	3.04676421e+02
94              	3.04687872e+02
95              	3.04699440e+02
96              	3.04710921e+02
97              	3.04722694e+02
98              	3.04733946e+02
99              	3.04745308e+02
100             	3.04756688e+02
101             	3.04767628e+02
102             	3.04777741e+02
103             	3.04787373e+02
104             	3.04796229e+02
105             	3.04804997e+02
106             	3.04813411e+02
107             	3.04821638e+02
108             	3.04829485e+02
109             	3.04837068e+02
110             	3.04844838e+02
111             	3.04852450e+02
112             	3.04859978e+02
113             	3.04867526e+02
114             	3.04875022e+02
115             	3.04882472e+02
116             	3.04889977e+02
117             	3.04897913e+02
118             	3.04906093e+02
119             	3.04914284e+02
120             	3.04922705e+02
121             	3.04931258e+02
122             	3.04939562e+02
123             	3.04948099e+02
124             	3.04956182e+02
125             	3.04964072e+02
126             	3.04971316e+02
127             	3.04978242e+02
128             	3.04984689e+02
129             	3.04990749e+02
130             	3.04996526e+02
131             	3.05001979e+02
132             	3.05007180e+02
133             	3.05012226e+02
134             	3.05017139e+02
135             	3.05022023e+02
136             	3.05026940e+02
137             	3.05031706e+02
138             	3.05036488e+02
139             	3.05041281e+02
140             	3.05046107e+02
141             	3.05051075e+02
142             	3.05056187e+02
143             	3.05061547e+02
144             	3.05067048e+02
145             	3.05072547e+02
146             	3.05077820e+02
147             	3.05083107e+02
148             	3.05088265e+02
149             	3.05093134e+02
150             	3.05097659e+02
151             	3.05101876e+02
152             	3.05105775e+02
153             	3.05109341e+02
154             	3.05112667e+02
155             	3.05115836e+02
156             	3.05118935e+02
157             	3.05121961e+02
158             	3.05125020e+02
159             	3.05128140e+02
160             	3.05131375e+02
161             	3.05134763e+02
162             	3.05138441e+02
163             	3.05142150e+02
164             	3.05145929e+02
165             	3.05149734e+02
166             	3.05153626e+02
167             	3.05157218e+02
168             	3.05160651e+02
169             	3.05163723e+02
170             	3.05166568e+02
171             	3.05169201e+02
172             	3.05171701e+02
173             	3.05174088e+02
174             	3.05176353e+02
175             	3.05178477e+02
176             	3.05180439e+02
177             	3.05182370e+02
178             	3.05184290e+02
179             	3.05186217e+02
180             	3.05188157e+02
181             	3.05190140e+02
182             	3.05192307e+02
183             	3.05194582e+02
184             	3.05197037e+02
185             	3.05199538e+02
186             	3.05202036e+02
187             	3.05204477e+02
188             	3.05206836e+02
189             	3.05209169e+02
190             	3.05211262e+02
191             	3.05213246e+02
192             	3.05215124e+02
193             	3.05216986e+02
194             	3.05218904e+02
195             	3.05220930e+02
196             	3.05222967e+02
197             	3.05225146e+02
198             	3.05227393e+02
199             	3.05229942e+02
200             	3.05232650e+02
201             	3.05235484e+02
202             	3.05238424e+02
203             	3.05241488e+02
204             	3.05244577e+02
205             	3.05247563e+02
206             	3.05250369e+02
207             	3.05252968e+02
208             	3.05255356e+02
209             	3.05257550e+02
210             	3.05259581e+02
211             	3.05261431e+02
212             	3.05263233e+02
213             	3.05265041e+02
214             	3.05266826e+02
215             	3.05268576e+02
216             	3.05270348e+02
217             	3.05272214e+02
218             	3.05274152e+02
219             	3.05276117e+02
220             	3.05278154e+02
221             	3.05280250e+02
222             	3.05282352e+02
223             	3.05284502e+02
224             	3.05286719e+02
225             	3.05288873e+02
226             	3.05290978e+02
227             	3.05293081e+02
228             	3.05295216e+02
229             	3.05297353e+02
230             	3.05299447e+02
231             	3.05301495e+02
232             	3.05303404e+02
233             	3.05305199e+02
234             	3.05306829e+02
235             	3.05308273e+02
236             	3.05309506e+02
237             	3.05310535e+02
238             	3.05311410e+02
239             	3.05312236e+02
240             	3.05312998e+02
241             	3.05313741e+02
242             	3.05314511e+02
243             	3.05315375e+02
244             	3.05316366e+02
245             	3.05317474e+02
246             	3.05318679e+02
247             	3.05319983e+02
248             	3.05321385e+02
249             	3.05322897e+02
250             	3.05324452e+02
251             	3.05326029e+02
252             	3.05327662e+02
253             	3.05329192e+02
254             	3.05330648e+02
255             	3.05332027e+02
256             	3.05333327e+02
257             	3.05334571e+02
258             	3.05335717e+02
259             	3.05336792e+02
260             	3.05337800e+02
261             	3.05338731e+02
262             	3.05333730e+02
263             	3.05325405e+02
264             	3.05316716e+02
265             	3.05309618e+02
266             	3.05303660e+02
267             	3.05298539e+02
268             	3.05293892e+02
269             	3.05289544e+02
270             	3.05285548e+02
271             	3.05281908e+02
272             	3.05278645e+02
273             	3.05275739e+02
274             	3.05273143e+02
275             	3.05270724e+02
276             	3.05268395e+02
277             	3.05266165e+02
278             	3.05264008e+02
279             	3.05261913e+02
280             	3.05259872e+02
281             	3.05257775e+02
282             	3.05255735e+02
283             	3.05253642e+02
284             	3.05251541e+02
285             	3.05249618e+02
286             	3.05247798e+02
287             	3.05246071e+02
288             	3.05244499e+02
289             	3.05243010e+02
290             	3.05241643e+02
291             	3.05240304e+02
292             	3.05239066e+02
293             	3.05237919e+02
294             	3.05236835e+02
295             	3.05235739e+02
296             	3.05234591e+02
297             	3.05233405e+02
298             	3.05232168e+02
299             	3.05230949e+02
300             	3.05229742e+02
301             	3.05228589e+02
302             	3.05227376e+02
303             	3.05226194e+02
304             	3.05224970e+02
305             	3.05223658e+02
306             	3.05222418e+02
307             	3.05221247e+02
308             	3.05220135e+02
309             	3.05219125e+02
310             	3.05218300e+02
311             	3.05217590e+02
312             	3.05217058e+02
313             	3.05216517e+02
314             	3.05216065e+02
315             	3.05215624e+02
316             	3.05215083e+02
317             	3.05214431e+02
318             	3.05213650e+02
319             	3.05212810e+02
320             	3.05212079e+02
321             	3.05211399e+02
322             	3.05210838e+02
323             	3.05210253e+02
324             	3.05209817e+02
325             	3.05209436e+02
326             	3.05209221e+02
327             	3.05209165e+02
328             	3.05209240e+02
329             	3.05209281e+02
330             	3.05209212e+02
331             	3.05209008e+02
332             	3.05208613e+02
333             	3.05208073e+02
334             	3.05207445e+02
335             	3.05206692e+02
336             	3.05205886e+02
337             	3.05205158e+02
338             	3.05204477e+02
339             	3.05203855e+02
340             	3.05203234e+02
341             	3.05202684e+02
342             	3.05202209e+02
343             	3.05201851e+02
344             	3.05201625e+02
345             	3.05201502e+02
346             	3.05201465e+02
347             	3.05201531e+02
348             	3.05201702e+02
349             	3.05202068e+02
350             	3.05202504e+02
351             	3.05202931e+02
352             	3.05203377e+02
353             	3.05203799e+02
354             	3.05204152e+02
355             	3.05204447e+02
356             	3.05204662e+02
357             	3.05204792e+02
358             	3.05204833e+02
359             	3.05204780e+02
360             	3.05204640e+02
361             	3.05204415e+02
362             	3.05204125e+02
363             	3.05203786e+02
364             	3.05203405e+02
365             	3.05202995e+02
366             	3.05202595e+02
367             	3.05202179e+02
368             	3.05201803e+02
369             	3.05201500e+02
370             	3.05201266e+02
371             	3.05201079e+02
372             	3.05200936e+02
373             	3.05200862e+02
374             	3.05200859e+02
375             	3.05200920e+02
376             	3.05201042e+02
377             	3.05201238e+02
378             	3.05201501e+02
379             	3.05201824e+02
380             	3.05202299e+02
381             	3.05202834e+02
382             	3.05203259e+02
383             	3.05203524e+02
384             	3.05203658e+02
385             	3.05203644e+02
386             	3.05203464e+02
387             	3.05203127e+02
388             	3.05202782e+02
389             	3.05202402e+02
390             	3.05201998e+02
391             	3.05201617e+02
392             	3.05201257e+02
393             	3.05200889e+02
394             	3.05200579e+02
395             	3.05200345e+02
396             	3.05200199e+02
397             	3.05200173e+02
398             	3.05200316e+02
399             	3.05200523e+02
400             	3.05200669e+02
401             	3.05200744e+02
402             	3.05200769e+02
403             	3.05200728e+02
404             	3.05200638e+02
405             	3.05200557e+02
406             	3.05200474e+02
407             	3.05200317e+02
408             	3.05200041e+02
409             	3.05199801e+02
410             	3.05199558e+02
411             	3.05199379e+02
412             	3.05199221e+02
413             	3.05199121e+02
414             	3.05199108e+02
415             	3.05199240e+02
416             	3.05199499e+02
417             	3.05199716e+02
418             	3.05199866e+02
419             	3.05199983e+02
420             	3.05200100e+02
421             	3.05200185e+02
422             	3.05200139e+02
423             	3.05200155e+02
424             	3.05200278e+02
425             	3.05200468e+02
426             	3.05200718e+02
427             	3.05201071e+02
428             	3.05201501e+02
429             	3.05202022e+02
430             	3.05202629e+02
431             	3.05203323e+02
432             	3.05204157e+02
433             	3.05205104e+02
434             	3.05206034e+02
435             	3.05206803e+02
436             	3.05207487e+02
437             	3.05207992e+02
438             	3.05208384e+02
439             	3.05208616e+02
440             	3.05208761e+02
441             	3.05208949e+02
442             	3.05209148e+02
443             	3.05209392e+02
444             	3.05209555e+02
445             	3.05209735e+02
446             	3.05209980e+02
447             	3.05210253e+02
448             	3.05210563e+02
449             	3.05210941e+02
450             	3.05211406e+02
451             	3.05211969e+02
452             	3.05212578e+02
453             	3.05213082e+02
454             	3.05213479e+02
455             	3.05213782e+02
456             	3.05214009e+02
457             	3.05214144e+02
458             	3.05214217e+02
459             	3.05214257e+02
460             	3.05214190e+02
461             	3.05214028e+02
462             	3.05213904e+02
463             	3.05213893e+02
464             	3.05213857e+02
465             	3.05213856e+02
466             	3.05213934e+02
467             	3.05214117e+02
468             	3.05214258e+02
469             	3.05214292e+02
470             	3.05214280e+02
471             	3.05214219e+02
472             	3.05214081e+02
473             	3.05213867e+02
474             	3.05213599e+02
475             	3.05213305e+02
476             	3.05212956e+02
477             	3.05212544e+02
478             	3.05212178e+02
479             	3.05211751e+02
480             	3.05211423e+02
481             	3.05211243e+02
482             	3.05211185e+02
483             	3.05211219e+02
484             	3.05211367e+02
485             	3.05211678e+02
486             	3.05212194e+02
487             	3.05212810e+02
488             	3.05213376e+02
489             	3.05213828e+02
490             	3.05214215e+02
491             	3.05214474e+02
492             	3.05214588e+02
493             	3.05214736e+02
494             	3.05214854e+02
495             	3.05215035e+02
496             	3.05215206e+02
497             	3.05215419e+02
498             	3.05215644e+02
499             	3.05215946e+02
500             	3.05216329e+02
501             	3.05216827e+02
502             	3.05217307e+02
503             	3.05217801e+02
504             	3.05218225e+02
505             	3.05218572e+02
506             	3.05218847e+02
507             	3.05219050e+02
508             	3.05219172e+02
509             	3.05219204e+02
510             	3.05219163e+02
511             	3.05219064e+02
512             	3.05218875e+02
513             	3.05218704e+02
514             	3.05218512e+02
515             	3.05218378e+02
516             	3.05218279e+02
517             	3.05218243e+02
518             	3.05218242e+02
519             	3.05218306e+02
520             	3.05218443e+02
521             	3.05218697e+02
522             	3.05219105e+02
523             	3.05219642e+02
524             	3.05220158e+02
525             	3.05220523e+02
526             	3.05220752e+02
527             	3.05220849e+02
528             	3.05220809e+02
529             	3.05220755e+02
530             	3.05220573e+02
531             	3.05220284e+02
532             	3.05220052e+02
533             	3.05219920e+02
534             	3.05219852e+02
535             	3.05219837e+02
536             	3.05219901e+02
537             	3.05220093e+02
538             	3.05220312e+02
539             	3.05220448e+02
540             	3.05220486e+02
541             	3.05220370e+02
542             	3.05220128e+02
543             	3.05219899e+02
544             	3.05219631e+02
545             	3.05219324e+02
546             	3.05219088e+02
547             	3.05218819e+02
548             	3.05218539e+02
549             	3.05218214e+02
550             	3.05217836e+02
551             	3.05217419e+02
552             	3.05216994e+02
553             	3.05216660e+02
554             	3.05216373e+02
555             	3.05216243e+02
556             	3.05216218e+02
557             	3.05216336e+02
558             	3.05216668e+02
559             	3.05217225e+02
560             	3.05217895e+02
561             	3.05218669e+02
562             	3.05219392e+02
563             	3.05219953e+02
564             	3.05220588e+02
565             	3.05221064e+02
566             	3.05221413e+02
567             	3.05221638e+02
568             	3.05221764e+02
569             	3.05221809e+02
570             	3.05221780e+02
571             	3.05221682e+02
572             	3.05221508e+02
573             	3.05221287e+02
574             	3.05221087e+02
575             	3.05220927e+02
576             	3.05220817e+02
577             	3.05220789e+02
578             	3.05220815e+02
579             	3.05220881e+02
580             	3.05221048e+02
581             	3.05221335e+02
582             	3.05221864e+02
583             	3.05222382e+02
584             	3.05222930e+02
585             	3.05223495e+02
586             	3.05224179e+02
587             	3.05224781e+02
588             	3.05225367e+02
589             	3.05225835e+02
590             	3.05226224e+02
591             	3.05226443e+02
592             	3.05226686e+02
593             	3.05226906e+02
594             	3.05227066e+02
595             	3.05227239e+02
596             	3.05227461e+02
597             	3.05227707e+02
598             	3.05227947e+02
599             	3.05228249e+02
600             	3.05228597e+02
601             	3.05229019e+02
602             	3.05229565e+02
603             	3.05230246e+02
604             	3.05230993e+02
605             	3.05231647e+02
606             	3.05232125e+02
607             	3.05232414e+02
608             	3.05232567e+02
609             	3.05232607e+02
610             	3.05232489e+02
611             	3.05232488e+02
612             	3.05232443e+02
613             	3.05232404e+02
614             	3.05232359e+02
615             	3.05232374e+02
616             	3.05232469e+02
617             	3.05232586e+02
618             	3.05232679e+02
619             	3.05232759e+02
620             	3.05232845e+02
621             	3.05232954e+02
