# Region        : cellZone component_0
# Cells         : 276
# Volume        : 5.39921898e-01
# Time          	volAverage(T)
1               	3.00118219e+02
2               	3.00235512e+02
3               	3.00347010e+02
4               	3.00454140e+02
5               	3.00558479e+02
6               	3.00660662e+02
7               	3.00761024e+02
8               	3.00859796e+02
9               	3.00957332e+02
10              	3.01053961e+02
11              	3.01149264e+02
12              	3.01243126e+02
13              	3.01335341e+02
14              	3.01426567e+02
15              	3.01516255e+02
16              	3.01604500e+02
17              	3.01691422e+02
18              	3.01777253e+02
19              	3.01862549e+02
20              	3.01946903e+02
21              	3.02031396e+02
22              	3.02114550e+02
23              	3.02194722e+02
24              	3.02273653e+02
25              	3.02350665e+02
26              	3.02427303e+02
27              	3.02501665e+02
28              	3.02574228e+02
29              	3.02645032e+02
30              	3.02714709e+02
31              	3.02783660e+02
32              	3.02852261e+02
33              	3.02920776e+02
34              	3.02989245e+02
35              	3.03057565e+02
36              	3.03124967e+02
37              	3.03190741e+02
38              	3.03255003e+02
39              	3.03317803e+02
40              	3.03379088e+02
41              	3.03439343e+02
42              	3.03499550e+02
43              	3.03560596e+02
44              	3.03622335e+02
45              	3.03683440e+02
46              	3.03742964e+02
47              	3.03800826e+02
48              	3.03857689e+02
49              	3.03914735e+02
50              	3.03969048e+02
51              	3.04022056e+02
52              	3.04073686e+02
53              	3.04124180e+02
54              	3.04173899e+02
55              	3.04223005e+02
56              	3.04271823e+02
57              	3.04320650e+02
58              	3.04369610e+02
59              	3.04418248e+02
60              	3.04467207e+02
61              	3.04515417e+02
62              	3.04564282e+02
63              	3.04612205e+02
64              	3.04660036e+02
65              	3.04707419e+02
66              	3.04754181e+02
67              	3.04800241e+02
68              	3.04845556e+02
69              	3.04890464e+02
70              	3.04934709e+02
71              	3.04978527e+02
72              	3.05021615e+02
73              	3.05064128e+02
74              	3.05105488e+02
75              	3.05145932e+02
76              	3.05185456e+02
77              	3.05224268e+02
78              	3.05262600e+02
79              	3.05300396e+02
80              	3.05338341e+02
81              	3.05376213e+02
82              	3.05414570e+02
83              	3.05451359e+02
84              	3.05488033e+02
85              	3.05523983e+02
86              	3.05559074e+02
87              	3.05592912e+02
88              	3.05625903e+02
89              	3.05658281e+02
90              	3.05690218e+02
91              	3.05722056e+02
92              	3.05753476e+02
93              	3.05784634e+02
94              	3.05815665e+02
95              	3.05846497e+02
96              	3.05877396e+02
97              	3.05908324e+02
98              	3.05939453e+02
99              	3.05970411e+02
100             	3.06001093e+02
101             	3.06031368e+02
102             	3.06061135e+02
103             	3.06091088e+02
104             	3.06120892e+02
105             	3.06150306e+02
106             	3.06179392e+02
107             	3.06207528e+02
108             	3.06234671e+02
109             	3.06260778e+02
110             	3.06285613e+02
111             	3.06310719e+02
112             	3.06334871e+02
113             	3.06358722e+02
114             	3.06382035e+02
115             	3.06405089e+02
116             	3.06428266e+02
117             	3.06451317e+02
118             	3.06474977e+02
119             	3.06498797e+02
120             	3.06522872e+02
121             	3.06546641e+02
122             	3.06569783e+02
123             	3.06592225e+02
124             	3.06613457e+02
125             	3.06634055e+02
126             	3.06653990e+02
127             	3.06673058e+02
128             	3.06692739e+02
129             	3.06712704e+02
130             	3.06733008e+02
131             	3.06753616e+02
132             	3.06774438e+02
133             	3.06795174e+02
134             	3.06816101e+02
135             	3.06836904e+02
136             	3.06857478e+02
137             	3.06877679e+02
138             	3.06897526e+02
139             	3.06916576e+02
140             	3.06935324e+02
141             	3.06953737e+02
142             	3.06971842e+02
143             	3.06989756e+02
144             	3.07007310e+02
145             	3.07024667e+02
146             	3.07041862e+02
147             	3.07058892e+02
148             	3.07075844e+02
149             	3.07092587e+02
150             	3.07109191e+02
151             	3.07125657e+02
152             	3.07142065e+02
153             	3.07158162e+02
154             	3.07174131e+02
155             	3.07189848e+02
156             	3.07205392e+02
157             	3.07220505e+02
158             	3.07235650e+02
159             	3.07250611e+02
160             	3.07265460e+02
161             	3.07280193e+02
162             	3.07294546e+02
163             	3.07308950e+02
164             	3.07323227e+02
165             	3.07337365e+02
166             	3.07351140e+02
167             	3.07364947e+02
168             	3.07378769e+02
169             	3.07392627e+02
170             	3.07406371e+02
171             	3.07419895e+02
172             	3.07433160e+02
173             	3.07446108e+02
174             	3.07458844e+02
175             	3.07471039e+02
176             	3.07482965e+02
177             	3.07494731e+02
178             	3.07506368e+02
179             	3.07517820e+02
180             	3.07529457e+02
181             	3.07541188e+02
182             	3.07552849e+02
183             	3.07564648e+02
184             	3.07576507e+02
185             	3.07588209e+02
186             	3.07599478e+02
187             	3.07610331e+02
188             	3.07621077e+02
189             	3.07631643e+02
190             	3.07642027e+02
191             	3.07652336e+02
192             	3.07662526e+02
193             	3.07672701e+02
194             	3.07682868e+02
195             	3.07692960e+02
196             	3.07702921e+02
197             	3.07712816e+02
198             	3.07722605e+02
199             	3.07732004e+02
200             	3.07741280e+02
201             	3.07750458e+02
202             	3.07759422e+02
203             	3.07768267e+02
204             	3.07777079e+02
205             	3.07785882e+02
206             	3.07794673e+02
207             	3.07803447e+02
208             	3.07812124e+02
209             	3.07820763e+02
210             	3.07829311e+02
211             	3.07837722e+02
212             	3.07845977e+02
213             	3.07854079e+02
214             	3.07862084e+02
215             	3.07869847e+02
216             	3.07877477e+02
217             	3.07885021e+02
218             	3.07892498e+02
219             	3.07899915e+02
220             	3.07907254e+02
221             	3.07914489e+02
222             	3.07921657e+02
223             	3.07928727e+02
224             	3.07935636e+02
225             	3.07942421e+02
226             	3.07949151e+02
227             	3.07955913e+02
228             	3.07962675e+02
229             	3.07969261e+02
230             	3.07975815e+02
231             	3.07982273e+02
232             	3.07988717e+02
233             	3.07995124e+02
234             	3.08001547e+02
235             	3.08007873e+02
236             	3.08014037e+02
237             	3.08020162e+02
238             	3.08026157e+02
239             	3.08032068e+02
240             	3.08037897e+02
241             	3.08043635e+02
242             	3.08049290e+02
243             	3.08054871e+02
244             	3.08060342e+02
245             	3.08065805e+02
246             	3.08071207e+02
247             	3.08076534e+02
248             	3.08081796e+02
249             	3.08087013e+02
250             	3.08092218e+02
251             	3.08097407e+02
252             	3.08102571e+02
253             	3.08107704e+02
254             	3.08112779e+02
255             	3.08117775e+02
256             	3.08122680e+02
257             	3.08127502e+02
258             	3.08132256e+02
259             	3.08136849e+02
260             	3.08141399e+02
261             	3.08145914e+02
262             	3.08150384e+02
263             	3.08154832e+02
264             	3.08159248e+02
265             	3.08163608e+02
266             	3.08167912e+02
267             	3.08172163e+02
268             	3.08176373e+02
269             	3.08180526e+02
270             	3.08184617e+02
271             	3.08188619e+02
272             	3.08192588e+02
273             	3.08196503e+02
274             	3.08200369e+02
275             	3.08204218e+02
276             	3.08208065e+02
277             	3.08211906e+02
278             	3.08215735e+02
279             	3.08219533e+02
280             	3.08223285e+02
281             	3.08226973e+02
282             	3.08230550e+02
283             	3.08234107e+02
284             	3.08237647e+02
285             	3.08241151e+02
286             	3.08244616e+02
287             	3.08248038e+02
288             	3.08251420e+02
289             	3.08254764e+02
290             	3.08258069e+02
291             	3.08261335e+02
292             	3.08264557e+02
293             	3.08267734e+02
294             	3.08270865e+02
295             	3.08273951e+02
296             	3.08276995e+02
297             	3.08280001e+02
298             	3.08282968e+02
299             	3.08285899e+02
300             	3.08288796e+02
301             	3.08291664e+02
302             	3.08294493e+02
303             	3.08297308e+02
304             	3.08300088e+02
305             	3.08302831e+02
306             	3.08305544e+02
307             	3.08308221e+02
308             	3.08310869e+02
309             	3.08313485e+02
310             	3.08316067e+02
311             	3.08318627e+02
312             	3.08321170e+02
313             	3.08323688e+02
314             	3.08326171e+02
315             	3.08328643e+02
316             	3.08331081e+02
317             	3.08333451e+02
318             	3.08335806e+02
319             	3.08338142e+02
320             	3.08340447e+02
321             	3.08342720e+02
322             	3.08344962e+02
323             	3.08347179e+02
324             	3.08349376e+02
325             	3.08351551e+02
326             	3.08353703e+02
327             	3.08355830e+02
328             	3.08357935e+02
329             	3.08360025e+02
330             	3.08362099e+02
331             	3.08364160e+02
332             	3.08366201e+02
333             	3.08368221e+02
334             	3.08370221e+02
335             	3.08372177e+02
336             	3.08374115e+02
337             	3.08376028e+02
338             	3.08377916e+02
339             	3.08379780e+02
340             	3.08381618e+02
341             	3.08383434e+02
342             	3.08385227e+02
343             	3.08387002e+02
344             	3.08388753e+02
345             	3.08390484e+02
346             	3.08392189e+02
347             	3.08393876e+02
348             	3.08395552e+02
349             	3.08397207e+02
350             	3.08398842e+02
351             	3.08400462e+02
352             	3.08402059e+02
353             	3.08403645e+02
354             	3.08405214e+02
355             	3.08406770e+02
356             	3.08408311e+02
357             	3.08409830e+02
358             	3.08411324e+02
359             	3.08412796e+02
360             	3.08414247e+02
361             	3.08415681e+02
362             	3.08417092e+02
363             	3.08418486e+02
364             	3.08419871e+02
365             	3.08421247e+02
366             	3.08422602e+02
367             	3.08423927e+02
368             	3.08425244e+02
369             	3.08426550e+02
370             	3.08427843e+02
371             	3.08429121e+02
372             	3.08430385e+02
373             	3.08431630e+02
374             	3.08432863e+02
375             	3.08434081e+02
376             	3.08435286e+02
377             	3.08436477e+02
378             	3.08437642e+02
379             	3.08438796e+02
380             	3.08439944e+02
381             	3.08441085e+02
382             	3.08442219e+02
383             	3.08443341e+02
384             	3.08444449e+02
385             	3.08445542e+02
386             	3.08446622e+02
387             	3.08447687e+02
388             	3.08448734e+02
389             	3.08449767e+02
390             	3.08450789e+02
391             	3.08451800e+02
392             	3.08452804e+02
393             	3.08453793e+02
394             	3.08454774e+02
395             	3.08455744e+02
396             	3.08456701e+02
397             	3.08457643e+02
398             	3.08458573e+02
399             	3.08459493e+02
400             	3.08460403e+02
401             	3.08461305e+02
402             	3.08462198e+02
403             	3.08463083e+02
404             	3.08463959e+02
405             	3.08464828e+02
406             	3.08465689e+02
407             	3.08466540e+02
408             	3.08467381e+02
409             	3.08468205e+02
410             	3.08469019e+02
411             	3.08469822e+02
412             	3.08470616e+02
413             	3.08471400e+02
414             	3.08472175e+02
415             	3.08472939e+02
416             	3.08473693e+02
417             	3.08474440e+02
418             	3.08475180e+02
419             	3.08475916e+02
420             	3.08476644e+02
421             	3.08477363e+02
422             	3.08478074e+02
423             	3.08478775e+02
424             	3.08479467e+02
425             	3.08480141e+02
426             	3.08480803e+02
427             	3.08481458e+02
428             	3.08482107e+02
429             	3.08482750e+02
430             	3.08483393e+02
431             	3.08484037e+02
432             	3.08484677e+02
433             	3.08485306e+02
434             	3.08485924e+02
435             	3.08486530e+02
436             	3.08487122e+02
437             	3.08487709e+02
438             	3.08488292e+02
439             	3.08488869e+02
440             	3.08489441e+02
441             	3.08490007e+02
442             	3.08490567e+02
443             	3.08491120e+02
444             	3.08491666e+02
445             	3.08492206e+02
446             	3.08492741e+02
447             	3.08493268e+02
448             	3.08493786e+02
449             	3.08494301e+02
450             	3.08494811e+02
451             	3.08495316e+02
452             	3.08495814e+02
453             	3.08496305e+02
454             	3.08496792e+02
455             	3.08497271e+02
456             	3.08497745e+02
457             	3.08498214e+02
458             	3.08498678e+02
459             	3.08499139e+02
460             	3.08499596e+02
461             	3.08500047e+02
462             	3.08500493e+02
463             	3.08500933e+02
464             	3.08501365e+02
465             	3.08501790e+02
466             	3.08502210e+02
467             	3.08502625e+02
468             	3.08503036e+02
469             	3.08503442e+02
470             	3.08503845e+02
471             	3.08504244e+02
472             	3.08504639e+02
473             	3.08505031e+02
474             	3.08505418e+02
475             	3.08505801e+02
476             	3.08506180e+02
477             	3.08506554e+02
478             	3.08506923e+02
479             	3.08507288e+02
480             	3.08507648e+02
481             	3.08508003e+02
482             	3.08508355e+02
483             	3.08508703e+02
484             	3.08509048e+02
485             	3.08509389e+02
486             	3.08509727e+02
487             	3.08510061e+02
488             	3.08510390e+02
489             	3.08510715e+02
490             	3.08511036e+02
491             	3.08511353e+02
492             	3.08511665e+02
493             	3.08511974e+02
494             	3.08512279e+02
495             	3.08512581e+02
496             	3.08512879e+02
497             	3.08513174e+02
498             	3.08513465e+02
499             	3.08513753e+02
500             	3.08514038e+02
501             	3.08514320e+02
502             	3.08514598e+02
503             	3.08514874e+02
504             	3.08515146e+02
505             	3.08515415e+02
506             	3.08515681e+02
507             	3.08515943e+02
508             	3.08516202e+02
509             	3.08516459e+02
510             	3.08516713e+02
511             	3.08516963e+02
512             	3.08517211e+02
513             	3.08517456e+02
514             	3.08517698e+02
515             	3.08517936e+02
516             	3.08518171e+02
517             	3.08518404e+02
518             	3.08518634e+02
519             	3.08518860e+02
520             	3.08519085e+02
521             	3.08519307e+02
522             	3.08519527e+02
523             	3.08519744e+02
524             	3.08519958e+02
525             	3.08520170e+02
526             	3.08520379e+02
527             	3.08520585e+02
528             	3.08520790e+02
529             	3.08520993e+02
530             	3.08521194e+02
531             	3.08521393e+02
532             	3.08521590e+02
533             	3.08521785e+02
534             	3.08521977e+02
535             	3.08522167e+02
536             	3.08522355e+02
537             	3.08522540e+02
538             	3.08522723e+02
539             	3.08522903e+02
540             	3.08523082e+02
541             	3.08523258e+02
542             	3.08523432e+02
543             	3.08523604e+02
544             	3.08523775e+02
545             	3.08523943e+02
546             	3.08524109e+02
547             	3.08524274e+02
548             	3.08524436e+02
549             	3.08524597e+02
550             	3.08524755e+02
551             	3.08524912e+02
552             	3.08525066e+02
553             	3.08525219e+02
554             	3.08525370e+02
555             	3.08525520e+02
556             	3.08525668e+02
557             	3.08525814e+02
558             	3.08525958e+02
559             	3.08526100e+02
560             	3.08526241e+02
561             	3.08526384e+02
562             	3.08526527e+02
563             	3.08526661e+02
564             	3.08526797e+02
565             	3.08526933e+02
566             	3.08527070e+02
567             	3.08527203e+02
568             	3.08527335e+02
569             	3.08527466e+02
570             	3.08527596e+02
571             	3.08527725e+02
572             	3.08527852e+02
573             	3.08527977e+02
574             	3.08528101e+02
575             	3.08528223e+02
576             	3.08528345e+02
577             	3.08528463e+02
578             	3.08528580e+02
579             	3.08528697e+02
580             	3.08528813e+02
581             	3.08528928e+02
582             	3.08529042e+02
583             	3.08529154e+02
584             	3.08529265e+02
585             	3.08529374e+02
586             	3.08529482e+02
587             	3.08529588e+02
588             	3.08529693e+02
589             	3.08529798e+02
590             	3.08529902e+02
591             	3.08530004e+02
592             	3.08530102e+02
593             	3.08530201e+02
594             	3.08530298e+02
595             	3.08530395e+02
596             	3.08530490e+02
597             	3.08530585e+02
598             	3.08530678e+02
599             	3.08530770e+02
600             	3.08530862e+02
601             	3.08530953e+02
602             	3.08531042e+02
603             	3.08531130e+02
604             	3.08531217e+02
605             	3.08531303e+02
606             	3.08531389e+02
607             	3.08531472e+02
608             	3.08531554e+02
609             	3.08531635e+02
610             	3.08531717e+02
611             	3.08531797e+02
612             	3.08531875e+02
613             	3.08531951e+02
614             	3.08532027e+02
615             	3.08532103e+02
616             	3.08532178e+02
617             	3.08532252e+02
618             	3.08532325e+02
619             	3.08532396e+02
620             	3.08532468e+02
621             	3.08532539e+02
