# Region        : cellZone component_0
# Cells         : 276
# Volume        : 5.74936743e-01
# Time          	volAverage(T)
1               	3.00859556e+02
2               	3.01709061e+02
3               	3.02504522e+02
4               	3.03263995e+02
5               	3.04004582e+02
6               	3.04730406e+02
7               	3.05443098e+02
8               	3.06145138e+02
9               	3.06836165e+02
10              	3.07517775e+02
11              	3.08191874e+02
12              	3.08861179e+02
13              	3.09517358e+02
14              	3.10164842e+02
15              	3.10807947e+02
16              	3.11446431e+02
17              	3.12082481e+02
18              	3.12706989e+02
19              	3.13323591e+02
20              	3.13936055e+02
21              	3.14537434e+02
22              	3.15124455e+02
23              	3.15703607e+02
24              	3.16273961e+02
25              	3.16833744e+02
26              	3.17398148e+02
27              	3.17963098e+02
28              	3.18487233e+02
29              	3.18999334e+02
30              	3.19507175e+02
31              	3.20002532e+02
32              	3.20481726e+02
33              	3.20953113e+02
34              	3.21414424e+02
35              	3.21882033e+02
36              	3.22333650e+02
37              	3.22785401e+02
38              	3.23231071e+02
39              	3.23672448e+02
40              	3.24101482e+02
41              	3.24529729e+02
42              	3.24953759e+02
43              	3.25367458e+02
44              	3.25772620e+02
45              	3.26170664e+02
46              	3.26576521e+02
47              	3.26979140e+02
48              	3.27380023e+02
49              	3.27778040e+02
50              	3.28169098e+02
51              	3.28552470e+02
52              	3.28934614e+02
53              	3.29310149e+02
54              	3.29677372e+02
55              	3.30041787e+02
56              	3.30400110e+02
57              	3.30751731e+02
58              	3.31099762e+02
59              	3.31441791e+02
60              	3.31780947e+02
61              	3.32115163e+02
62              	3.32441046e+02
63              	3.32762593e+02
64              	3.33080072e+02
65              	3.33393471e+02
66              	3.33701690e+02
67              	3.34005351e+02
68              	3.34306257e+02
69              	3.34605492e+02
70              	3.34897253e+02
71              	3.35184509e+02
72              	3.35471925e+02
73              	3.35756428e+02
74              	3.36036184e+02
75              	3.36308944e+02
76              	3.36576078e+02
77              	3.36840573e+02
78              	3.37099987e+02
79              	3.37359827e+02
80              	3.37619440e+02
81              	3.37871544e+02
82              	3.38122242e+02
83              	3.38373129e+02
84              	3.38620642e+02
85              	3.38865482e+02
86              	3.39105835e+02
87              	3.39342055e+02
88              	3.39559811e+02
89              	3.39779166e+02
90              	3.39996937e+02
91              	3.40216684e+02
92              	3.40436493e+02
93              	3.40654953e+02
94              	3.40868999e+02
95              	3.41081815e+02
96              	3.41290304e+02
97              	3.41495131e+02
98              	3.41694075e+02
99              	3.41887654e+02
100             	3.42080400e+02
101             	3.42275134e+02
102             	3.42467492e+02
103             	3.42660534e+02
104             	3.42848174e+02
105             	3.43031645e+02
106             	3.43219041e+02
107             	3.43398772e+02
108             	3.43576461e+02
109             	3.43751890e+02
110             	3.43924578e+02
111             	3.44098418e+02
112             	3.44266375e+02
113             	3.44433790e+02
114             	3.44602155e+02
115             	3.44769082e+02
116             	3.44932296e+02
117             	3.45090744e+02
118             	3.45247924e+02
119             	3.45404411e+02
120             	3.45559295e+02
121             	3.45710790e+02
122             	3.45857772e+02
123             	3.46002099e+02
124             	3.46144599e+02
125             	3.46289018e+02
126             	3.46435740e+02
127             	3.46582053e+02
128             	3.46727513e+02
129             	3.46872375e+02
130             	3.47019822e+02
131             	3.47159425e+02
132             	3.47298214e+02
133             	3.47434368e+02
134             	3.47566755e+02
135             	3.47696162e+02
136             	3.47820959e+02
137             	3.47945245e+02
138             	3.48068720e+02
139             	3.48191496e+02
140             	3.48315260e+02
141             	3.48439216e+02
142             	3.48560169e+02
143             	3.48680820e+02
144             	3.48798123e+02
145             	3.48914784e+02
146             	3.49029329e+02
147             	3.49140920e+02
148             	3.49249197e+02
149             	3.49357103e+02
150             	3.49462482e+02
151             	3.49570411e+02
152             	3.49678409e+02
153             	3.49788111e+02
154             	3.49896702e+02
155             	3.50003585e+02
156             	3.50109133e+02
157             	3.50214913e+02
158             	3.50320255e+02
159             	3.50421838e+02
160             	3.50518860e+02
161             	3.50611718e+02
162             	3.50703532e+02
163             	3.50794175e+02
164             	3.50885657e+02
165             	3.50977877e+02
166             	3.51069985e+02
167             	3.51164488e+02
168             	3.51255737e+02
169             	3.51346690e+02
170             	3.51435744e+02
171             	3.51522171e+02
172             	3.51606355e+02
173             	3.51687213e+02
174             	3.51765820e+02
175             	3.51844513e+02
176             	3.51921853e+02
177             	3.51999728e+02
178             	3.52077745e+02
179             	3.52157550e+02
180             	3.52238201e+02
181             	3.52318346e+02
182             	3.52401557e+02
183             	3.52481350e+02
184             	3.52561012e+02
185             	3.52639635e+02
186             	3.52720595e+02
187             	3.52796062e+02
188             	3.52871490e+02
189             	3.52944138e+02
190             	3.53015241e+02
191             	3.53086343e+02
192             	3.53158170e+02
193             	3.53230695e+02
194             	3.53303040e+02
195             	3.53374589e+02
196             	3.53446141e+02
197             	3.53517390e+02
198             	3.53588155e+02
199             	3.53657938e+02
200             	3.53726447e+02
201             	3.53793208e+02
202             	3.53857094e+02
203             	3.53919321e+02
204             	3.53980295e+02
205             	3.54040856e+02
206             	3.54100033e+02
207             	3.54159384e+02
208             	3.54219026e+02
209             	3.54280302e+02
210             	3.54341330e+02
211             	3.54402357e+02
212             	3.54462907e+02
213             	3.54523658e+02
214             	3.54583684e+02
215             	3.54641723e+02
216             	3.54697079e+02
217             	3.54751590e+02
218             	3.54805625e+02
219             	3.54858889e+02
220             	3.54911762e+02
221             	3.54964637e+02
222             	3.55018032e+02
223             	3.55070902e+02
224             	3.55123210e+02
225             	3.55176065e+02
226             	3.55229011e+02
227             	3.55281585e+02
228             	3.55333059e+02
229             	3.55383599e+02
230             	3.55433237e+02
231             	3.55480725e+02
232             	3.55527922e+02
233             	3.55574730e+02
234             	3.55620845e+02
235             	3.55666638e+02
236             	3.55712267e+02
237             	3.55757596e+02
238             	3.55802809e+02
239             	3.55848060e+02
240             	3.55893872e+02
241             	3.55939960e+02
242             	3.55985974e+02
243             	3.56031657e+02
244             	3.56076596e+02
245             	3.56121526e+02
246             	3.56165847e+02
247             	3.56209055e+02
248             	3.56251158e+02
249             	3.56292119e+02
250             	3.56332529e+02
251             	3.56372491e+02
252             	3.56412177e+02
253             	3.56451887e+02
254             	3.56491849e+02
255             	3.56532150e+02
256             	3.56572235e+02
257             	3.56612011e+02
258             	3.56651210e+02
259             	3.56690283e+02
260             	3.56728891e+02
261             	3.56766581e+02
262             	3.56803430e+02
263             	3.56839549e+02
264             	3.56875156e+02
265             	3.56910368e+02
266             	3.56945173e+02
267             	3.56979895e+02
268             	3.57014538e+02
269             	3.57049129e+02
270             	3.57083603e+02
271             	3.57118102e+02
272             	3.57151906e+02
273             	3.57185575e+02
274             	3.57218849e+02
275             	3.57251646e+02
276             	3.57284060e+02
277             	3.57315975e+02
278             	3.57347463e+02
279             	3.57378625e+02
280             	3.57409680e+02
281             	3.57440753e+02
282             	3.57471723e+02
283             	3.57502762e+02
284             	3.57533651e+02
285             	3.57564549e+02
286             	3.57595330e+02
287             	3.57625895e+02
288             	3.57655915e+02
289             	3.57685565e+02
290             	3.57714699e+02
291             	3.57743465e+02
292             	3.57771820e+02
293             	3.57799762e+02
294             	3.57827325e+02
295             	3.57854559e+02
296             	3.57881575e+02
297             	3.57908412e+02
298             	3.57935147e+02
299             	3.57961788e+02
300             	3.57988350e+02
301             	3.58014659e+02
302             	3.58040729e+02
303             	3.58066564e+02
304             	3.58092105e+02
305             	3.58117336e+02
306             	3.58142226e+02
307             	3.58166810e+02
308             	3.58191264e+02
309             	3.58215636e+02
310             	3.58239804e+02
311             	3.58263794e+02
312             	3.58287748e+02
313             	3.58311625e+02
314             	3.58335240e+02
315             	3.58358600e+02
316             	3.58381784e+02
317             	3.58404647e+02
318             	3.58427163e+02
319             	3.58449415e+02
320             	3.58471478e+02
321             	3.58493363e+02
322             	3.58515029e+02
323             	3.58536568e+02
324             	3.58557950e+02
325             	3.58579281e+02
326             	3.58600548e+02
327             	3.58621649e+02
328             	3.58642593e+02
329             	3.58663352e+02
330             	3.58683950e+02
331             	3.58704327e+02
332             	3.58724494e+02
333             	3.58744408e+02
334             	3.58764070e+02
335             	3.58783519e+02
336             	3.58802824e+02
337             	3.58821971e+02
338             	3.58840964e+02
339             	3.58859830e+02
340             	3.58878577e+02
341             	3.58897133e+02
342             	3.58915548e+02
343             	3.58933808e+02
344             	3.58951916e+02
345             	3.58969838e+02
346             	3.58987540e+02
347             	3.59004982e+02
348             	3.59022127e+02
349             	3.59039054e+02
350             	3.59055932e+02
351             	3.59072717e+02
352             	3.59089384e+02
353             	3.59105965e+02
354             	3.59122453e+02
355             	3.59138828e+02
356             	3.59155079e+02
357             	3.59171152e+02
358             	3.59187110e+02
359             	3.59202924e+02
360             	3.59218563e+02
361             	3.59234052e+02
362             	3.59249453e+02
363             	3.59264722e+02
364             	3.59279867e+02
365             	3.59294918e+02
366             	3.59309883e+02
367             	3.59324742e+02
368             	3.59339372e+02
369             	3.59353867e+02
370             	3.59368231e+02
371             	3.59382429e+02
372             	3.59396437e+02
373             	3.59410257e+02
374             	3.59423911e+02
375             	3.59437407e+02
376             	3.59450820e+02
377             	3.59464139e+02
378             	3.59477387e+02
379             	3.59490570e+02
380             	3.59503667e+02
381             	3.59516634e+02
382             	3.59529511e+02
383             	3.59542310e+02
384             	3.59554976e+02
385             	3.59567509e+02
386             	3.59579899e+02
387             	3.59592167e+02
388             	3.59604325e+02
389             	3.59616399e+02
390             	3.59628373e+02
391             	3.59640263e+02
392             	3.59652100e+02
393             	3.59663882e+02
394             	3.59675582e+02
395             	3.59687125e+02
396             	3.59698577e+02
397             	3.59709919e+02
398             	3.59721132e+02
399             	3.59732201e+02
400             	3.59743125e+02
401             	3.59753902e+02
402             	3.59764582e+02
403             	3.59775177e+02
404             	3.59785717e+02
405             	3.59796204e+02
406             	3.59806650e+02
407             	3.59817040e+02
408             	3.59827360e+02
409             	3.59837597e+02
410             	3.59847749e+02
411             	3.59857812e+02
412             	3.59867769e+02
413             	3.59877606e+02
414             	3.59887322e+02
415             	3.59896926e+02
416             	3.59906468e+02
417             	3.59915937e+02
418             	3.59925349e+02
419             	3.59934716e+02
420             	3.59944039e+02
421             	3.59953290e+02
422             	3.59962445e+02
423             	3.59971529e+02
424             	3.59980526e+02
425             	3.59989428e+02
426             	3.59998216e+02
427             	3.60006883e+02
428             	3.60015413e+02
429             	3.60023830e+02
430             	3.60032207e+02
431             	3.60040540e+02
432             	3.60048829e+02
433             	3.60057081e+02
434             	3.60065303e+02
435             	3.60073485e+02
436             	3.60081603e+02
437             	3.60089635e+02
438             	3.60097618e+02
439             	3.60105531e+02
440             	3.60113348e+02
441             	3.60121065e+02
442             	3.60128690e+02
443             	3.60136250e+02
444             	3.60143751e+02
445             	3.60151200e+02
446             	3.60158602e+02
447             	3.60165975e+02
448             	3.60173311e+02
449             	3.60180572e+02
450             	3.60187782e+02
451             	3.60194922e+02
452             	3.60201993e+02
453             	3.60208988e+02
454             	3.60215892e+02
455             	3.60222696e+02
456             	3.60229409e+02
457             	3.60236067e+02
458             	3.60242691e+02
459             	3.60249279e+02
460             	3.60255832e+02
461             	3.60262357e+02
462             	3.60268846e+02
463             	3.60275289e+02
464             	3.60281673e+02
465             	3.60287989e+02
466             	3.60294253e+02
467             	3.60300454e+02
468             	3.60306584e+02
469             	3.60312651e+02
470             	3.60318673e+02
471             	3.60324655e+02
472             	3.60330597e+02
473             	3.60336510e+02
474             	3.60342396e+02
475             	3.60348246e+02
476             	3.60354020e+02
477             	3.60359749e+02
478             	3.60365426e+02
479             	3.60371045e+02
480             	3.60376595e+02
481             	3.60382075e+02
482             	3.60387483e+02
483             	3.60392833e+02
484             	3.60398133e+02
485             	3.60403399e+02
486             	3.60408634e+02
487             	3.60413843e+02
488             	3.60419026e+02
489             	3.60424178e+02
490             	3.60429300e+02
491             	3.60434382e+02
492             	3.60439418e+02
493             	3.60444412e+02
494             	3.60449355e+02
495             	3.60454236e+02
496             	3.60459059e+02
497             	3.60463838e+02
498             	3.60468590e+02
499             	3.60473311e+02
500             	3.60478009e+02
501             	3.60482685e+02
502             	3.60487346e+02
503             	3.60491959e+02
504             	3.60496538e+02
505             	3.60501074e+02
506             	3.60505568e+02
507             	3.60510008e+02
508             	3.60514389e+02
509             	3.60518709e+02
510             	3.60522973e+02
511             	3.60527203e+02
512             	3.60531411e+02
513             	3.60535589e+02
514             	3.60539750e+02
515             	3.60543894e+02
516             	3.60548017e+02
517             	3.60552112e+02
518             	3.60556174e+02
519             	3.60560200e+02
520             	3.60564190e+02
521             	3.60568135e+02
522             	3.60572029e+02
523             	3.60575876e+02
524             	3.60579685e+02
525             	3.60583468e+02
526             	3.60587225e+02
527             	3.60590965e+02
528             	3.60594692e+02
529             	3.60598405e+02
530             	3.60602089e+02
531             	3.60605749e+02
532             	3.60609373e+02
533             	3.60612966e+02
534             	3.60616521e+02
535             	3.60620035e+02
536             	3.60623502e+02
537             	3.60626919e+02
538             	3.60630300e+02
539             	3.60633656e+02
540             	3.60636995e+02
541             	3.60640308e+02
542             	3.60643603e+02
543             	3.60646887e+02
544             	3.60650154e+02
545             	3.60653398e+02
546             	3.60656612e+02
547             	3.60659801e+02
548             	3.60662963e+02
549             	3.60666092e+02
550             	3.60669185e+02
551             	3.60672241e+02
552             	3.60675273e+02
553             	3.60678280e+02
554             	3.60681268e+02
555             	3.60684238e+02
556             	3.60687195e+02
557             	3.60690137e+02
558             	3.60693060e+02
559             	3.60695962e+02
560             	3.60698831e+02
561             	3.60701680e+02
562             	3.60704504e+02
563             	3.60707298e+02
564             	3.60710057e+02
565             	3.60712786e+02
566             	3.60715491e+02
567             	3.60718175e+02
568             	3.60720838e+02
569             	3.60723484e+02
570             	3.60726115e+02
571             	3.60728730e+02
572             	3.60731325e+02
573             	3.60733901e+02
574             	3.60736456e+02
575             	3.60738988e+02
576             	3.60741492e+02
577             	3.60743970e+02
578             	3.60746423e+02
579             	3.60748856e+02
580             	3.60751272e+02
581             	3.60753672e+02
582             	3.60756057e+02
583             	3.60758431e+02
584             	3.60760793e+02
585             	3.60763140e+02
586             	3.60765470e+02
587             	3.60767776e+02
588             	3.60770064e+02
589             	3.60772331e+02
590             	3.60774574e+02
591             	3.60776789e+02
592             	3.60778977e+02
593             	3.60781146e+02
594             	3.60783298e+02
595             	3.60785430e+02
596             	3.60787546e+02
597             	3.60789648e+02
598             	3.60791739e+02
599             	3.60793817e+02
600             	3.60795882e+02
601             	3.60797930e+02
602             	3.60799962e+02
603             	3.60801975e+02
604             	3.60803967e+02
605             	3.60805939e+02
606             	3.60807891e+02
607             	3.60809829e+02
608             	3.60811750e+02
609             	3.60813659e+02
610             	3.60815555e+02
611             	3.60817438e+02
612             	3.60819311e+02
613             	3.60821174e+02
614             	3.60823019e+02
615             	3.60824848e+02
616             	3.60826664e+02
617             	3.60828465e+02
618             	3.60830248e+02
619             	3.60832015e+02
620             	3.60833766e+02
621             	3.60835501e+02
