# Region        : cellZone component_4
# Cells         : 135
# Volume        : 2.22069630e-01
# Time          	volAverage(T)
1               	3.00295792e+02
2               	3.00587939e+02
3               	3.00863497e+02
4               	3.01127653e+02
5               	3.01383904e+02
6               	3.01634687e+02
7               	3.01880457e+02
8               	3.02123025e+02
9               	3.02361864e+02
10              	3.02597720e+02
11              	3.02830774e+02
12              	3.03061802e+02
13              	3.03288451e+02
14              	3.03510534e+02
15              	3.03730230e+02
16              	3.03942665e+02
17              	3.04148825e+02
18              	3.04346509e+02
19              	3.04538353e+02
20              	3.04723612e+02
21              	3.04904054e+02
22              	3.05076872e+02
23              	3.05240536e+02
24              	3.05402930e+02
25              	3.05560498e+02
26              	3.05715694e+02
27              	3.05871650e+02
28              	3.06025965e+02
29              	3.06181462e+02
30              	3.06338751e+02
31              	3.06498403e+02
32              	3.06660549e+02
33              	3.06823102e+02
34              	3.06984368e+02
35              	3.07145173e+02
36              	3.07305089e+02
37              	3.07463975e+02
38              	3.07619493e+02
39              	3.07771577e+02
40              	3.07921557e+02
41              	3.08066857e+02
42              	3.08216090e+02
43              	3.08359590e+02
44              	3.08484595e+02
45              	3.08590374e+02
46              	3.08667848e+02
47              	3.08743147e+02
48              	3.08838615e+02
49              	3.08936215e+02
50              	3.09026105e+02
51              	3.09114464e+02
52              	3.09203940e+02
53              	3.09295050e+02
54              	3.09389689e+02
55              	3.09485396e+02
56              	3.09581671e+02
57              	3.09678382e+02
58              	3.09777159e+02
59              	3.09874681e+02
60              	3.09972976e+02
61              	3.10077788e+02
62              	3.10182843e+02
63              	3.10265335e+02
64              	3.10333860e+02
65              	3.10404878e+02
66              	3.10467960e+02
67              	3.10524358e+02
68              	3.10581327e+02
69              	3.10639103e+02
70              	3.10695900e+02
71              	3.10751977e+02
72              	3.10807889e+02
73              	3.10863589e+02
74              	3.10919102e+02
75              	3.10973308e+02
76              	3.11027753e+02
77              	3.11081216e+02
78              	3.11134987e+02
79              	3.11188182e+02
80              	3.11241766e+02
81              	3.11294015e+02
82              	3.11345015e+02
83              	3.11394213e+02
84              	3.11441460e+02
85              	3.11487264e+02
86              	3.11531627e+02
87              	3.11575040e+02
88              	3.11617340e+02
89              	3.11658396e+02
90              	3.11699522e+02
91              	3.11739598e+02
92              	3.11778527e+02
93              	3.11816934e+02
94              	3.11855728e+02
95              	3.11894273e+02
96              	3.11932391e+02
97              	3.11972295e+02
98              	3.12012245e+02
99              	3.12051178e+02
100             	3.12090092e+02
101             	3.12129990e+02
102             	3.12167829e+02
103             	3.12204550e+02
104             	3.12239520e+02
105             	3.12274426e+02
106             	3.12307359e+02
107             	3.12340414e+02
108             	3.12371551e+02
109             	3.12400804e+02
110             	3.12431417e+02
111             	3.12462183e+02
112             	3.12493403e+02
113             	3.12525629e+02
114             	3.12557111e+02
115             	3.12588737e+02
116             	3.12619712e+02
117             	3.12650409e+02
118             	3.12680643e+02
119             	3.12709078e+02
120             	3.12736045e+02
121             	3.12761679e+02
122             	3.12785835e+02
123             	3.12809478e+02
124             	3.12831555e+02
125             	3.12853487e+02
126             	3.12873922e+02
127             	3.12894414e+02
128             	3.12914743e+02
129             	3.12934836e+02
130             	3.12955055e+02
131             	3.12974479e+02
132             	3.12993559e+02
133             	3.13012606e+02
134             	3.13031692e+02
135             	3.13050820e+02
136             	3.13069911e+02
137             	3.13089567e+02
138             	3.13109953e+02
139             	3.13130918e+02
140             	3.13151947e+02
141             	3.13174145e+02
142             	3.13196448e+02
143             	3.13218008e+02
144             	3.13238609e+02
145             	3.13257864e+02
146             	3.13275585e+02
147             	3.13292086e+02
148             	3.13307719e+02
149             	3.13322612e+02
150             	3.13337257e+02
151             	3.13352013e+02
152             	3.13366251e+02
153             	3.13379667e+02
154             	3.13392930e+02
155             	3.13406371e+02
156             	3.13419954e+02
157             	3.13433381e+02
158             	3.13447345e+02
159             	3.13461039e+02
160             	3.13474567e+02
161             	3.13488064e+02
162             	3.13501478e+02
163             	3.13514235e+02
164             	3.13526585e+02
165             	3.13538364e+02
166             	3.13549752e+02
167             	3.13560359e+02
168             	3.13570765e+02
169             	3.13580562e+02
170             	3.13590196e+02
171             	3.13599067e+02
172             	3.13607588e+02
173             	3.13615764e+02
174             	3.13623430e+02
175             	3.13631138e+02
176             	3.13638561e+02
177             	3.13646672e+02
178             	3.13655347e+02
179             	3.13664607e+02
180             	3.13673744e+02
181             	3.13683360e+02
182             	3.13693388e+02
183             	3.13703499e+02
184             	3.13714098e+02
185             	3.13724564e+02
186             	3.13735030e+02
187             	3.13745335e+02
188             	3.13754880e+02
189             	3.13763624e+02
190             	3.13772010e+02
191             	3.13779658e+02
192             	3.13787683e+02
193             	3.13796171e+02
194             	3.13805380e+02
195             	3.13814993e+02
196             	3.13824969e+02
197             	3.13835303e+02
198             	3.13845717e+02
199             	3.13856168e+02
200             	3.13866402e+02
201             	3.13875678e+02
202             	3.13884111e+02
203             	3.13891741e+02
204             	3.13899033e+02
205             	3.13905676e+02
206             	3.13911861e+02
207             	3.13917653e+02
208             	3.13923035e+02
209             	3.13928162e+02
210             	3.13933398e+02
211             	3.13938970e+02
212             	3.13944252e+02
213             	3.13949230e+02
214             	3.13954185e+02
215             	3.13959114e+02
216             	3.13964401e+02
217             	3.13970671e+02
218             	3.13977070e+02
219             	3.13984143e+02
220             	3.13991345e+02
221             	3.13998843e+02
222             	3.14006426e+02
223             	3.14014173e+02
224             	3.14021576e+02
225             	3.14028504e+02
226             	3.14034860e+02
227             	3.14040632e+02
228             	3.14045849e+02
229             	3.14050604e+02
230             	3.14055360e+02
231             	3.14059935e+02
232             	3.14064197e+02
233             	3.14068074e+02
234             	3.14071404e+02
235             	3.14074347e+02
236             	3.14077064e+02
237             	3.14079615e+02
238             	3.14082028e+02
239             	3.14085131e+02
240             	3.14088653e+02
241             	3.14092665e+02
242             	3.14096862e+02
243             	3.14101528e+02
244             	3.14106595e+02
245             	3.14111989e+02
246             	3.14117563e+02
247             	3.14123384e+02
248             	3.14129189e+02
249             	3.14134910e+02
250             	3.14140110e+02
251             	3.14145052e+02
252             	3.14149705e+02
253             	3.14153561e+02
254             	3.14156743e+02
255             	3.14159404e+02
256             	3.14161898e+02
257             	3.14164231e+02
258             	3.14166399e+02
259             	3.14168484e+02
260             	3.14170576e+02
261             	3.14172706e+02
262             	3.14174418e+02
263             	3.14178190e+02
264             	3.14185046e+02
265             	3.14192357e+02
266             	3.14199430e+02
267             	3.14206668e+02
268             	3.14214215e+02
269             	3.14222105e+02
270             	3.14229919e+02
271             	3.14237775e+02
272             	3.14245536e+02
273             	3.14253095e+02
274             	3.14260739e+02
275             	3.14268113e+02
276             	3.14275183e+02
277             	3.14281573e+02
278             	3.14287286e+02
279             	3.14292487e+02
280             	3.14297330e+02
281             	3.14302252e+02
282             	3.14307176e+02
283             	3.14311605e+02
284             	3.14316251e+02
285             	3.14321218e+02
286             	3.14326396e+02
287             	3.14331738e+02
288             	3.14337258e+02
289             	3.14343011e+02
290             	3.14348866e+02
291             	3.14354434e+02
292             	3.14359655e+02
293             	3.14364658e+02
294             	3.14369592e+02
295             	3.14374022e+02
296             	3.14378095e+02
297             	3.14381853e+02
298             	3.14385331e+02
299             	3.14388562e+02
300             	3.14391656e+02
301             	3.14394632e+02
302             	3.14397604e+02
303             	3.14400668e+02
304             	3.14403757e+02
305             	3.14407117e+02
306             	3.14410977e+02
307             	3.14415095e+02
308             	3.14419298e+02
309             	3.14423620e+02
310             	3.14428159e+02
311             	3.14432976e+02
312             	3.14437445e+02
313             	3.14441661e+02
314             	3.14445599e+02
315             	3.14449140e+02
316             	3.14452257e+02
317             	3.14455085e+02
318             	3.14457494e+02
319             	3.14459521e+02
320             	3.14461544e+02
321             	3.14464024e+02
322             	3.14466603e+02
323             	3.14469227e+02
324             	3.14471784e+02
325             	3.14474201e+02
326             	3.14476520e+02
327             	3.14478859e+02
328             	3.14481346e+02
329             	3.14483972e+02
330             	3.14486039e+02
331             	3.14487662e+02
332             	3.14489033e+02
333             	3.14490050e+02
334             	3.14490652e+02
335             	3.14491174e+02
336             	3.14491511e+02
337             	3.14492177e+02
338             	3.14492502e+02
339             	3.14493622e+02
340             	3.14495367e+02
341             	3.14497772e+02
342             	3.14500602e+02
343             	3.14503696e+02
344             	3.14507074e+02
345             	3.14510706e+02
346             	3.14514520e+02
347             	3.14518438e+02
348             	3.14522359e+02
349             	3.14526514e+02
350             	3.14530212e+02
351             	3.14533518e+02
352             	3.14536442e+02
353             	3.14538979e+02
354             	3.14541057e+02
355             	3.14542629e+02
356             	3.14543737e+02
357             	3.14544441e+02
358             	3.14544828e+02
359             	3.14545019e+02
360             	3.14545160e+02
361             	3.14545233e+02
362             	3.14545532e+02
363             	3.14546063e+02
364             	3.14546906e+02
365             	3.14547741e+02
366             	3.14548900e+02
367             	3.14550156e+02
368             	3.14551755e+02
369             	3.14553644e+02
370             	3.14555821e+02
371             	3.14558185e+02
372             	3.14560849e+02
373             	3.14563586e+02
374             	3.14566365e+02
375             	3.14569104e+02
376             	3.14571731e+02
377             	3.14574127e+02
378             	3.14576230e+02
379             	3.14578015e+02
380             	3.14579619e+02
381             	3.14581470e+02
382             	3.14582624e+02
383             	3.14583289e+02
384             	3.14583545e+02
385             	3.14583519e+02
386             	3.14582993e+02
387             	3.14582166e+02
388             	3.14581722e+02
389             	3.14581452e+02
390             	3.14581338e+02
391             	3.14581375e+02
392             	3.14581477e+02
393             	3.14581639e+02
394             	3.14581990e+02
395             	3.14582630e+02
396             	3.14583439e+02
397             	3.14584289e+02
398             	3.14585309e+02
399             	3.14586410e+02
400             	3.14587164e+02
401             	3.14587559e+02
402             	3.14587575e+02
403             	3.14587311e+02
404             	3.14586906e+02
405             	3.14586759e+02
406             	3.14587065e+02
407             	3.14587515e+02
408             	3.14587799e+02
409             	3.14588632e+02
410             	3.14589874e+02
411             	3.14591503e+02
412             	3.14593376e+02
413             	3.14595363e+02
414             	3.14597422e+02
415             	3.14599856e+02
416             	3.14602508e+02
417             	3.14604869e+02
418             	3.14607084e+02
419             	3.14609060e+02
420             	3.14610916e+02
421             	3.14612697e+02
422             	3.14613817e+02
423             	3.14614992e+02
424             	3.14616499e+02
425             	3.14618186e+02
426             	3.14619887e+02
427             	3.14621452e+02
428             	3.14623109e+02
429             	3.14624707e+02
430             	3.14626184e+02
431             	3.14627498e+02
432             	3.14628569e+02
433             	3.14629581e+02
434             	3.14630130e+02
435             	3.14630261e+02
436             	3.14629974e+02
437             	3.14629365e+02
438             	3.14628547e+02
439             	3.14627673e+02
440             	3.14626413e+02
441             	3.14625476e+02
442             	3.14624532e+02
443             	3.14623905e+02
444             	3.14623927e+02
445             	3.14624539e+02
446             	3.14625554e+02
447             	3.14626872e+02
448             	3.14628494e+02
449             	3.14630295e+02
450             	3.14632241e+02
451             	3.14634429e+02
452             	3.14636846e+02
453             	3.14639153e+02
454             	3.14641460e+02
455             	3.14643549e+02
456             	3.14645410e+02
457             	3.14646767e+02
458             	3.14647721e+02
459             	3.14648726e+02
460             	3.14649356e+02
461             	3.14649712e+02
462             	3.14650596e+02
463             	3.14651583e+02
464             	3.14652641e+02
465             	3.14653606e+02
466             	3.14654686e+02
467             	3.14656055e+02
468             	3.14657201e+02
469             	3.14658037e+02
470             	3.14658453e+02
471             	3.14658398e+02
472             	3.14657976e+02
473             	3.14657367e+02
474             	3.14656884e+02
475             	3.14656381e+02
476             	3.14656487e+02
477             	3.14656432e+02
478             	3.14657021e+02
479             	3.14657984e+02
480             	3.14659458e+02
481             	3.14661222e+02
482             	3.14663093e+02
483             	3.14664948e+02
484             	3.14666734e+02
485             	3.14668387e+02
486             	3.14670151e+02
487             	3.14672089e+02
488             	3.14673490e+02
489             	3.14674664e+02
490             	3.14675767e+02
491             	3.14676742e+02
492             	3.14676849e+02
493             	3.14676567e+02
494             	3.14675955e+02
495             	3.14675644e+02
496             	3.14675476e+02
497             	3.14675434e+02
498             	3.14675588e+02
499             	3.14675758e+02
500             	3.14676028e+02
501             	3.14676423e+02
502             	3.14676907e+02
503             	3.14677458e+02
504             	3.14677835e+02
505             	3.14677954e+02
506             	3.14677741e+02
507             	3.14677264e+02
508             	3.14676582e+02
509             	3.14675868e+02
510             	3.14675058e+02
511             	3.14674295e+02
512             	3.14673545e+02
513             	3.14673152e+02
514             	3.14672680e+02
515             	3.14672773e+02
516             	3.14673279e+02
517             	3.14674256e+02
518             	3.14675566e+02
519             	3.14677209e+02
520             	3.14679118e+02
521             	3.14681290e+02
522             	3.14683666e+02
523             	3.14686143e+02
524             	3.14689001e+02
525             	3.14691619e+02
526             	3.14693980e+02
527             	3.14696105e+02
528             	3.14697890e+02
529             	3.14699253e+02
530             	3.14700086e+02
531             	3.14700392e+02
532             	3.14700571e+02
533             	3.14701149e+02
534             	3.14701980e+02
535             	3.14702585e+02
536             	3.14703089e+02
537             	3.14703531e+02
538             	3.14703958e+02
539             	3.14704189e+02
540             	3.14704237e+02
541             	3.14704235e+02
542             	3.14703969e+02
543             	3.14702896e+02
544             	3.14701345e+02
545             	3.14699277e+02
546             	3.14696969e+02
547             	3.14694795e+02
548             	3.14692635e+02
549             	3.14691228e+02
550             	3.14690376e+02
551             	3.14689865e+02
552             	3.14689719e+02
553             	3.14689911e+02
554             	3.14690472e+02
555             	3.14691264e+02
556             	3.14692183e+02
557             	3.14693260e+02
558             	3.14694441e+02
559             	3.14695654e+02
560             	3.14696872e+02
561             	3.14698084e+02
562             	3.14699042e+02
563             	3.14700045e+02
564             	3.14700634e+02
565             	3.14700643e+02
566             	3.14700336e+02
567             	3.14699357e+02
568             	3.14697855e+02
569             	3.14695939e+02
570             	3.14693838e+02
571             	3.14691702e+02
572             	3.14689442e+02
573             	3.14686980e+02
574             	3.14685160e+02
575             	3.14683981e+02
576             	3.14683022e+02
577             	3.14682362e+02
578             	3.14682075e+02
579             	3.14682208e+02
580             	3.14682701e+02
581             	3.14683599e+02
582             	3.14684942e+02
583             	3.14686087e+02
584             	3.14686981e+02
585             	3.14687384e+02
586             	3.14687235e+02
587             	3.14686915e+02
588             	3.14686331e+02
589             	3.14685501e+02
590             	3.14685294e+02
591             	3.14684964e+02
592             	3.14684765e+02
593             	3.14684873e+02
594             	3.14685178e+02
595             	3.14685702e+02
596             	3.14686189e+02
597             	3.14686904e+02
598             	3.14687435e+02
599             	3.14687790e+02
600             	3.14687948e+02
601             	3.14687892e+02
602             	3.14687613e+02
603             	3.14687315e+02
604             	3.14686872e+02
605             	3.14686165e+02
606             	3.14685211e+02
607             	3.14684140e+02
608             	3.14683057e+02
609             	3.14682051e+02
610             	3.14680651e+02
611             	3.14679263e+02
612             	3.14678022e+02
613             	3.14677123e+02
614             	3.14676338e+02
615             	3.14675917e+02
616             	3.14676365e+02
617             	3.14677119e+02
618             	3.14678382e+02
619             	3.14679916e+02
620             	3.14681828e+02
621             	3.14684124e+02
