# Region        : cellZone component_1
# Cells         : 96
# Volume        : 1.97249471e-01
# Time          	volAverage(T)
1               	3.01525850e+02
2               	3.03028118e+02
3               	3.04307179e+02
4               	3.05463723e+02
5               	3.06594342e+02
6               	3.07721870e+02
7               	3.08836604e+02
8               	3.09938382e+02
9               	3.11023365e+02
10              	3.12095424e+02
11              	3.13128242e+02
12              	3.14120555e+02
13              	3.15099111e+02
14              	3.16073499e+02
15              	3.17026431e+02
16              	3.17935671e+02
17              	3.18818407e+02
18              	3.19684487e+02
19              	3.20528948e+02
20              	3.21355703e+02
21              	3.22140654e+02
22              	3.22847828e+02
23              	3.23521829e+02
24              	3.24152483e+02
25              	3.24770599e+02
26              	3.25394230e+02
27              	3.26012785e+02
28              	3.26643123e+02
29              	3.27324758e+02
30              	3.27918822e+02
31              	3.28370611e+02
32              	3.28854980e+02
33              	3.29375168e+02
34              	3.29942731e+02
35              	3.30529192e+02
36              	3.31099375e+02
37              	3.31661864e+02
38              	3.32221071e+02
39              	3.32749574e+02
40              	3.33289085e+02
41              	3.33831913e+02
42              	3.34399473e+02
43              	3.34943632e+02
44              	3.35461656e+02
45              	3.35962285e+02
46              	3.36410345e+02
47              	3.36789900e+02
48              	3.37130221e+02
49              	3.37469797e+02
50              	3.37841698e+02
51              	3.38225797e+02
52              	3.38616344e+02
53              	3.39010781e+02
54              	3.39456954e+02
55              	3.39883309e+02
56              	3.40283095e+02
57              	3.40694008e+02
58              	3.41097257e+02
59              	3.41406358e+02
60              	3.41666841e+02
61              	3.41941503e+02
62              	3.42030631e+02
63              	3.41968461e+02
64              	3.41877528e+02
65              	3.41888181e+02
66              	3.41988713e+02
67              	3.42163013e+02
68              	3.42338461e+02
69              	3.42490889e+02
70              	3.42592545e+02
71              	3.42705920e+02
72              	3.42827363e+02
73              	3.42974131e+02
74              	3.43126118e+02
75              	3.43280732e+02
76              	3.43465614e+02
77              	3.43569511e+02
78              	3.43612669e+02
79              	3.43578649e+02
80              	3.43553523e+02
81              	3.43598073e+02
82              	3.43659147e+02
83              	3.43676405e+02
84              	3.43728399e+02
85              	3.43812683e+02
86              	3.43907568e+02
87              	3.44021966e+02
88              	3.44158754e+02
89              	3.44324030e+02
90              	3.44491730e+02
91              	3.44628063e+02
92              	3.44678780e+02
93              	3.44741091e+02
94              	3.44789542e+02
95              	3.44867974e+02
96              	3.44949479e+02
97              	3.45032811e+02
98              	3.45114073e+02
99              	3.45192482e+02
100             	3.45295173e+02
101             	3.45390267e+02
102             	3.45502811e+02
103             	3.45578241e+02
104             	3.45629386e+02
105             	3.45664331e+02
106             	3.45721857e+02
107             	3.45786738e+02
108             	3.45865206e+02
109             	3.45962794e+02
110             	3.46062204e+02
111             	3.46139702e+02
112             	3.46222771e+02
113             	3.46280271e+02
114             	3.46300285e+02
115             	3.46329169e+02
116             	3.46367394e+02
117             	3.46407897e+02
118             	3.46443669e+02
119             	3.46458390e+02
120             	3.46475870e+02
121             	3.46506969e+02
122             	3.46534674e+02
123             	3.46570494e+02
124             	3.46589561e+02
125             	3.46624824e+02
126             	3.46623796e+02
127             	3.46641815e+02
128             	3.46664438e+02
129             	3.46698134e+02
130             	3.46733868e+02
131             	3.46747114e+02
132             	3.46775340e+02
133             	3.46784749e+02
134             	3.46801919e+02
135             	3.46821332e+02
136             	3.46806870e+02
137             	3.46781144e+02
138             	3.46784981e+02
139             	3.46779279e+02
140             	3.46777372e+02
141             	3.46779402e+02
142             	3.46792505e+02
143             	3.46807915e+02
144             	3.46830989e+02
145             	3.46840574e+02
146             	3.46868512e+02
147             	3.46903737e+02
148             	3.46920883e+02
149             	3.46943017e+02
150             	3.46961008e+02
151             	3.46977438e+02
152             	3.46994712e+02
153             	3.47007079e+02
154             	3.47019232e+02
155             	3.47004659e+02
156             	3.47002393e+02
157             	3.47021747e+02
158             	3.47040361e+02
159             	3.47055177e+02
160             	3.47049367e+02
161             	3.47055580e+02
162             	3.47061325e+02
163             	3.47058597e+02
164             	3.47060202e+02
165             	3.47056879e+02
166             	3.47048320e+02
167             	3.47040190e+02
168             	3.47014452e+02
169             	3.47004102e+02
170             	3.47005577e+02
171             	3.47017937e+02
172             	3.47037570e+02
173             	3.47059427e+02
174             	3.47080788e+02
175             	3.47104687e+02
176             	3.47138599e+02
177             	3.47144582e+02
178             	3.47156359e+02
179             	3.47175638e+02
180             	3.47206152e+02
181             	3.47227269e+02
182             	3.47225943e+02
183             	3.47227014e+02
184             	3.47230148e+02
185             	3.47248164e+02
186             	3.47268860e+02
187             	3.47284375e+02
188             	3.47299350e+02
189             	3.47289279e+02
190             	3.47295953e+02
191             	3.47302189e+02
192             	3.47308443e+02
193             	3.47302381e+02
194             	3.47289925e+02
195             	3.47276539e+02
196             	3.47260014e+02
197             	3.47250427e+02
198             	3.47224338e+02
199             	3.47218233e+02
200             	3.47226931e+02
201             	3.47236752e+02
202             	3.47250243e+02
203             	3.47234981e+02
204             	3.47231692e+02
205             	3.47240828e+02
206             	3.47252655e+02
207             	3.47258784e+02
208             	3.47251058e+02
209             	3.47245351e+02
210             	3.47253788e+02
211             	3.47266511e+02
212             	3.47274073e+02
213             	3.47279230e+02
214             	3.47287954e+02
215             	3.47296300e+02
216             	3.47303709e+02
217             	3.47321030e+02
218             	3.47324392e+02
219             	3.47321073e+02
220             	3.47316995e+02
221             	3.47313356e+02
222             	3.47307813e+02
223             	3.47299353e+02
224             	3.47286025e+02
225             	3.47276391e+02
226             	3.47268639e+02
227             	3.47261741e+02
228             	3.47257501e+02
229             	3.47255429e+02
230             	3.47254603e+02
231             	3.47255511e+02
232             	3.47257677e+02
233             	3.47262336e+02
234             	3.47269258e+02
235             	3.47278690e+02
236             	3.47291100e+02
237             	3.47305445e+02
238             	3.47320362e+02
239             	3.47335179e+02
240             	3.47348966e+02
241             	3.47360915e+02
242             	3.47370253e+02
243             	3.47376435e+02
244             	3.47383809e+02
245             	3.47384500e+02
246             	3.47380695e+02
247             	3.47374806e+02
248             	3.47367556e+02
249             	3.47358969e+02
250             	3.47349265e+02
251             	3.47338659e+02
252             	3.47327264e+02
253             	3.47315446e+02
254             	3.47303543e+02
255             	3.47292058e+02
256             	3.47281944e+02
257             	3.47271925e+02
258             	3.47261500e+02
259             	3.47256518e+02
260             	3.47254783e+02
261             	3.47254692e+02
262             	3.47255356e+02
263             	3.47256650e+02
264             	3.47261927e+02
265             	3.47270341e+02
266             	3.47279157e+02
267             	3.47288402e+02
268             	3.47300422e+02
269             	3.47316924e+02
270             	3.47325011e+02
271             	3.47334612e+02
272             	3.47342698e+02
273             	3.47350000e+02
274             	3.47359737e+02
275             	3.47370195e+02
276             	3.47375902e+02
277             	3.47384648e+02
278             	3.47394691e+02
279             	3.47403856e+02
280             	3.47411604e+02
281             	3.47411446e+02
282             	3.47407082e+02
283             	3.47416354e+02
284             	3.47426399e+02
285             	3.47433229e+02
286             	3.47437523e+02
287             	3.47438603e+02
288             	3.47437713e+02
289             	3.47438698e+02
290             	3.47439249e+02
291             	3.47434636e+02
292             	3.47438177e+02
293             	3.47446422e+02
294             	3.47441262e+02
295             	3.47434619e+02
296             	3.47427605e+02
297             	3.47412903e+02
298             	3.47412782e+02
299             	3.47414599e+02
300             	3.47418075e+02
301             	3.47419394e+02
302             	3.47418175e+02
303             	3.47417498e+02
304             	3.47419782e+02
305             	3.47412997e+02
306             	3.47403890e+02
307             	3.47395190e+02
308             	3.47389016e+02
309             	3.47383980e+02
310             	3.47379386e+02
311             	3.47369077e+02
312             	3.47364716e+02
313             	3.47369139e+02
314             	3.47379615e+02
315             	3.47392891e+02
316             	3.47408989e+02
317             	3.47416193e+02
318             	3.47423054e+02
319             	3.47432284e+02
320             	3.47440930e+02
321             	3.47448134e+02
322             	3.47453911e+02
323             	3.47456722e+02
324             	3.47457839e+02
325             	3.47456153e+02
326             	3.47450402e+02
327             	3.47443859e+02
328             	3.47435324e+02
329             	3.47426047e+02
330             	3.47415321e+02
331             	3.47404241e+02
332             	3.47393650e+02
333             	3.47384260e+02
334             	3.47367121e+02
335             	3.47358656e+02
336             	3.47356320e+02
337             	3.47356623e+02
338             	3.47357220e+02
339             	3.47357764e+02
340             	3.47358525e+02
341             	3.47360750e+02
342             	3.47359667e+02
343             	3.47359611e+02
344             	3.47359084e+02
345             	3.47360471e+02
346             	3.47365106e+02
347             	3.47371814e+02
348             	3.47373954e+02
349             	3.47373990e+02
350             	3.47374709e+02
351             	3.47377359e+02
352             	3.47378913e+02
353             	3.47379858e+02
354             	3.47386249e+02
355             	3.47393416e+02
356             	3.47399424e+02
357             	3.47403550e+02
358             	3.47405457e+02
359             	3.47404462e+02
360             	3.47412382e+02
361             	3.47407603e+02
362             	3.47399089e+02
363             	3.47392226e+02
364             	3.47383602e+02
365             	3.47374829e+02
366             	3.47368890e+02
367             	3.47362450e+02
368             	3.47353506e+02
369             	3.47343725e+02
370             	3.47335270e+02
371             	3.47328143e+02
372             	3.47321221e+02
373             	3.47314527e+02
374             	3.47306454e+02
375             	3.47298403e+02
376             	3.47292603e+02
377             	3.47290700e+02
378             	3.47288020e+02
379             	3.47285286e+02
380             	3.47283146e+02
381             	3.47281570e+02
382             	3.47280324e+02
383             	3.47282259e+02
384             	3.47286068e+02
385             	3.47290372e+02
386             	3.47294562e+02
387             	3.47298586e+02
388             	3.47290440e+02
389             	3.47291830e+02
390             	3.47295928e+02
391             	3.47299305e+02
392             	3.47300500e+02
393             	3.47295294e+02
394             	3.47294407e+02
395             	3.47295844e+02
396             	3.47296658e+02
397             	3.47297408e+02
398             	3.47299349e+02
399             	3.47298570e+02
400             	3.47304168e+02
401             	3.47314145e+02
402             	3.47325640e+02
403             	3.47337863e+02
404             	3.47354431e+02
405             	3.47367651e+02
406             	3.47380555e+02
407             	3.47393529e+02
408             	3.47406667e+02
409             	3.47419307e+02
410             	3.47430400e+02
411             	3.47434012e+02
412             	3.47442786e+02
413             	3.47453546e+02
414             	3.47463518e+02
415             	3.47472427e+02
416             	3.47481159e+02
417             	3.47490393e+02
418             	3.47498390e+02
419             	3.47504816e+02
420             	3.47511703e+02
421             	3.47519202e+02
422             	3.47526978e+02
423             	3.47534732e+02
424             	3.47542090e+02
425             	3.47548303e+02
426             	3.47552555e+02
427             	3.47554388e+02
428             	3.47553561e+02
429             	3.47550060e+02
430             	3.47543691e+02
431             	3.47534582e+02
432             	3.47523083e+02
433             	3.47509597e+02
434             	3.47495774e+02
435             	3.47480642e+02
436             	3.47465091e+02
437             	3.47450158e+02
438             	3.47436616e+02
439             	3.47422352e+02
440             	3.47410116e+02
441             	3.47399634e+02
442             	3.47390001e+02
443             	3.47380687e+02
444             	3.47371399e+02
445             	3.47361950e+02
446             	3.47352920e+02
447             	3.47344879e+02
448             	3.47336803e+02
449             	3.47328449e+02
450             	3.47320018e+02
451             	3.47311873e+02
452             	3.47304118e+02
453             	3.47298409e+02
454             	3.47292102e+02
455             	3.47286526e+02
456             	3.47282643e+02
457             	3.47278597e+02
458             	3.47278014e+02
459             	3.47277919e+02
460             	3.47280184e+02
461             	3.47283555e+02
462             	3.47287109e+02
463             	3.47290703e+02
464             	3.47294638e+02
465             	3.47298487e+02
466             	3.47301730e+02
467             	3.47304243e+02
468             	3.47306259e+02
469             	3.47308067e+02
470             	3.47309064e+02
471             	3.47309446e+02
472             	3.47309475e+02
473             	3.47309072e+02
474             	3.47308088e+02
475             	3.47306535e+02
476             	3.47304375e+02
477             	3.47301642e+02
478             	3.47298470e+02
479             	3.47294972e+02
480             	3.47291239e+02
481             	3.47287404e+02
482             	3.47283601e+02
483             	3.47279985e+02
484             	3.47276726e+02
485             	3.47273973e+02
486             	3.47271839e+02
487             	3.47270391e+02
488             	3.47269653e+02
489             	3.47269581e+02
490             	3.47270113e+02
491             	3.47271208e+02
492             	3.47273776e+02
493             	3.47275759e+02
494             	3.47277622e+02
495             	3.47279798e+02
496             	3.47282146e+02
497             	3.47284448e+02
498             	3.47286479e+02
499             	3.47288993e+02
500             	3.47291814e+02
501             	3.47294490e+02
502             	3.47296945e+02
503             	3.47299351e+02
504             	3.47301897e+02
505             	3.47304691e+02
506             	3.47307827e+02
507             	3.47311413e+02
508             	3.47315561e+02
509             	3.47320368e+02
510             	3.47325881e+02
511             	3.47332144e+02
512             	3.47339146e+02
513             	3.47346832e+02
514             	3.47355116e+02
515             	3.47363882e+02
516             	3.47372954e+02
517             	3.47382125e+02
518             	3.47389067e+02
519             	3.47396610e+02
520             	3.47403662e+02
521             	3.47408943e+02
522             	3.47412926e+02
523             	3.47414784e+02
524             	3.47415015e+02
525             	3.47414001e+02
526             	3.47411674e+02
527             	3.47408000e+02
528             	3.47403175e+02
529             	3.47397682e+02
530             	3.47392050e+02
531             	3.47386695e+02
532             	3.47381962e+02
533             	3.47378196e+02
534             	3.47375715e+02
535             	3.47374759e+02
536             	3.47375396e+02
537             	3.47377114e+02
538             	3.47380011e+02
539             	3.47383985e+02
540             	3.47388745e+02
541             	3.47393989e+02
542             	3.47399422e+02
543             	3.47404802e+02
544             	3.47409889e+02
545             	3.47415044e+02
546             	3.47419768e+02
547             	3.47423724e+02
548             	3.47426879e+02
549             	3.47429327e+02
550             	3.47431168e+02
551             	3.47432474e+02
552             	3.47433298e+02
553             	3.47433696e+02
554             	3.47433703e+02
555             	3.47433342e+02
556             	3.47432665e+02
557             	3.47431638e+02
558             	3.47430210e+02
559             	3.47428400e+02
560             	3.47426245e+02
561             	3.47423745e+02
562             	3.47420919e+02
563             	3.47417774e+02
564             	3.47414305e+02
565             	3.47410516e+02
566             	3.47406382e+02
567             	3.47401903e+02
568             	3.47397116e+02
569             	3.47392080e+02
570             	3.47386842e+02
571             	3.47381451e+02
572             	3.47375953e+02
573             	3.47370413e+02
574             	3.47364899e+02
575             	3.47359483e+02
576             	3.47354234e+02
577             	3.47349215e+02
578             	3.47344491e+02
579             	3.47340135e+02
580             	3.47336236e+02
581             	3.47332879e+02
582             	3.47330168e+02
583             	3.47328199e+02
584             	3.47327033e+02
585             	3.47326736e+02
586             	3.47327377e+02
587             	3.47329006e+02
588             	3.47331646e+02
589             	3.47335303e+02
590             	3.47339969e+02
591             	3.47345598e+02
592             	3.47352124e+02
593             	3.47359179e+02
594             	3.47366791e+02
595             	3.47374891e+02
596             	3.47383267e+02
597             	3.47391697e+02
598             	3.47399937e+02
599             	3.47407776e+02
600             	3.47415011e+02
601             	3.47421443e+02
602             	3.47426866e+02
603             	3.47431143e+02
604             	3.47434181e+02
605             	3.47435942e+02
606             	3.47436390e+02
607             	3.47435498e+02
608             	3.47433280e+02
609             	3.47429781e+02
610             	3.47425081e+02
611             	3.47420192e+02
612             	3.47414968e+02
613             	3.47409638e+02
614             	3.47404629e+02
615             	3.47400444e+02
616             	3.47396450e+02
617             	3.47393798e+02
618             	3.47392565e+02
619             	3.47392724e+02
620             	3.47393083e+02
621             	3.47394641e+02
