# Region        : cellZone component_2
# Cells         : 24
# Volume        : 4.30715387e-02
# Time          	volAverage(T)
1               	3.01667983e+02
2               	3.03309089e+02
3               	3.04699083e+02
4               	3.05906277e+02
5               	3.07037292e+02
6               	3.08122832e+02
7               	3.09161465e+02
8               	3.10148098e+02
9               	3.11079818e+02
10              	3.11964015e+02
11              	3.12801973e+02
12              	3.13591322e+02
13              	3.14365402e+02
14              	3.15144833e+02
15              	3.15958797e+02
16              	3.16714494e+02
17              	3.17414202e+02
18              	3.18104111e+02
19              	3.18704137e+02
20              	3.19312276e+02
21              	3.19864058e+02
22              	3.20422223e+02
23              	3.20939996e+02
24              	3.21438618e+02
25              	3.21882186e+02
26              	3.22297875e+02
27              	3.22710853e+02
28              	3.23102898e+02
29              	3.23492827e+02
30              	3.23907700e+02
31              	3.24310485e+02
32              	3.24699694e+02
33              	3.25068919e+02
34              	3.25399326e+02
35              	3.25679540e+02
36              	3.25915690e+02
37              	3.26151058e+02
38              	3.26360508e+02
39              	3.26578518e+02
40              	3.26776750e+02
41              	3.26933846e+02
42              	3.27040456e+02
43              	3.27122438e+02
44              	3.27173511e+02
45              	3.27214504e+02
46              	3.27294041e+02
47              	3.27339432e+02
48              	3.27365131e+02
49              	3.27401468e+02
50              	3.27391894e+02
51              	3.27308848e+02
52              	3.27177993e+02
53              	3.27034857e+02
54              	3.26891962e+02
55              	3.26758358e+02
56              	3.26655909e+02
57              	3.26573060e+02
58              	3.26492312e+02
59              	3.26375472e+02
60              	3.26257386e+02
61              	3.26117549e+02
62              	3.25963024e+02
63              	3.25858380e+02
64              	3.25779069e+02
65              	3.25702595e+02
66              	3.25641418e+02
67              	3.25599912e+02
68              	3.25545341e+02
69              	3.25523406e+02
70              	3.25535293e+02
71              	3.25492035e+02
72              	3.25488842e+02
73              	3.25483012e+02
74              	3.25447755e+02
75              	3.25384407e+02
76              	3.25312841e+02
77              	3.25216907e+02
78              	3.25112592e+02
79              	3.24994248e+02
80              	3.24873663e+02
81              	3.24758421e+02
82              	3.24656317e+02
83              	3.24549358e+02
84              	3.24461475e+02
85              	3.24382262e+02
86              	3.24305247e+02
87              	3.24244904e+02
88              	3.24171824e+02
89              	3.24135313e+02
90              	3.24085234e+02
91              	3.24035982e+02
92              	3.23995880e+02
93              	3.23955340e+02
94              	3.23957051e+02
95              	3.23988202e+02
96              	3.24046348e+02
97              	3.24112429e+02
98              	3.24177111e+02
99              	3.24234753e+02
100             	3.24283315e+02
101             	3.24320701e+02
102             	3.24349754e+02
103             	3.24318291e+02
104             	3.24321183e+02
105             	3.24332234e+02
106             	3.24342773e+02
107             	3.24304397e+02
108             	3.24301419e+02
109             	3.24305886e+02
110             	3.24270362e+02
111             	3.24221659e+02
112             	3.24168886e+02
113             	3.24106603e+02
114             	3.24053553e+02
115             	3.24017624e+02
116             	3.24000488e+02
117             	3.24003418e+02
118             	3.24029907e+02
119             	3.24013882e+02
120             	3.24026874e+02
121             	3.24049716e+02
122             	3.24044087e+02
123             	3.24020706e+02
124             	3.23977042e+02
125             	3.23918018e+02
126             	3.23869013e+02
127             	3.23822141e+02
128             	3.23783463e+02
129             	3.23757772e+02
130             	3.23738481e+02
131             	3.23722733e+02
132             	3.23718875e+02
133             	3.23677800e+02
134             	3.23678397e+02
135             	3.23700478e+02
136             	3.23702648e+02
137             	3.23746420e+02
138             	3.23777908e+02
139             	3.23757587e+02
140             	3.23785395e+02
141             	3.23831208e+02
142             	3.23887499e+02
143             	3.23942547e+02
144             	3.23989860e+02
145             	3.24027721e+02
146             	3.24052076e+02
147             	3.24062083e+02
148             	3.24076715e+02
149             	3.24033113e+02
150             	3.24020504e+02
151             	3.24028482e+02
152             	3.23984763e+02
153             	3.23966184e+02
154             	3.23940697e+02
155             	3.23901037e+02
156             	3.23867018e+02
157             	3.23837517e+02
158             	3.23809143e+02
159             	3.23786512e+02
160             	3.23781117e+02
161             	3.23789978e+02
162             	3.23809420e+02
163             	3.23836146e+02
164             	3.23870254e+02
165             	3.23920220e+02
166             	3.23984759e+02
167             	3.24007648e+02
168             	3.24024834e+02
169             	3.24046043e+02
170             	3.24075754e+02
171             	3.24091365e+02
172             	3.24099338e+02
173             	3.24108374e+02
174             	3.24123886e+02
175             	3.24142711e+02
176             	3.24149743e+02
177             	3.24143657e+02
178             	3.24157166e+02
179             	3.24180728e+02
180             	3.24207294e+02
181             	3.24234043e+02
182             	3.24260041e+02
183             	3.24280578e+02
184             	3.24305870e+02
185             	3.24323059e+02
186             	3.24341235e+02
187             	3.24357986e+02
188             	3.24387337e+02
189             	3.24396727e+02
190             	3.24395924e+02
191             	3.24364178e+02
192             	3.24338866e+02
193             	3.24322005e+02
194             	3.24312449e+02
195             	3.24305698e+02
196             	3.24297637e+02
197             	3.24291384e+02
198             	3.24294501e+02
199             	3.24307118e+02
200             	3.24320784e+02
201             	3.24336573e+02
202             	3.24353377e+02
203             	3.24369452e+02
204             	3.24383088e+02
205             	3.24391473e+02
206             	3.24392045e+02
207             	3.24379325e+02
208             	3.24370443e+02
209             	3.24360944e+02
210             	3.24355886e+02
211             	3.24353337e+02
212             	3.24339473e+02
213             	3.24322061e+02
214             	3.24306293e+02
215             	3.24290989e+02
216             	3.24274272e+02
217             	3.24253434e+02
218             	3.24227477e+02
219             	3.24209741e+02
220             	3.24185161e+02
221             	3.24165662e+02
222             	3.24156239e+02
223             	3.24147075e+02
224             	3.24138264e+02
225             	3.24134098e+02
226             	3.24138434e+02
227             	3.24148216e+02
228             	3.24155196e+02
229             	3.24175968e+02
230             	3.24192116e+02
231             	3.24204939e+02
232             	3.24224936e+02
233             	3.24245666e+02
234             	3.24265706e+02
235             	3.24287825e+02
236             	3.24311621e+02
237             	3.24334616e+02
238             	3.24354329e+02
239             	3.24375202e+02
240             	3.24395290e+02
241             	3.24410464e+02
242             	3.24418328e+02
243             	3.24422035e+02
244             	3.24419396e+02
245             	3.24414036e+02
246             	3.24401879e+02
247             	3.24391681e+02
248             	3.24383965e+02
249             	3.24374695e+02
250             	3.24365895e+02
251             	3.24354726e+02
252             	3.24349221e+02
253             	3.24339906e+02
254             	3.24329296e+02
255             	3.24321619e+02
256             	3.24318822e+02
257             	3.24318580e+02
258             	3.24318957e+02
259             	3.24321851e+02
260             	3.24325602e+02
261             	3.24330642e+02
262             	3.24338609e+02
263             	3.24349265e+02
264             	3.24359094e+02
265             	3.24368588e+02
266             	3.24378149e+02
267             	3.24387032e+02
268             	3.24394587e+02
269             	3.24400705e+02
270             	3.24405832e+02
271             	3.24410280e+02
272             	3.24414510e+02
273             	3.24418876e+02
274             	3.24422374e+02
275             	3.24425093e+02
276             	3.24427215e+02
277             	3.24429813e+02
278             	3.24430326e+02
279             	3.24430895e+02
280             	3.24432973e+02
281             	3.24434590e+02
282             	3.24436624e+02
283             	3.24441736e+02
284             	3.24446251e+02
285             	3.24450901e+02
286             	3.24455327e+02
287             	3.24459810e+02
288             	3.24463862e+02
289             	3.24466998e+02
290             	3.24469641e+02
291             	3.24471797e+02
292             	3.24472795e+02
293             	3.24471369e+02
294             	3.24469235e+02
295             	3.24467069e+02
296             	3.24465094e+02
297             	3.24463890e+02
298             	3.24460056e+02
299             	3.24458887e+02
300             	3.24458287e+02
301             	3.24457588e+02
302             	3.24456760e+02
303             	3.24456083e+02
304             	3.24455567e+02
305             	3.24455096e+02
306             	3.24454101e+02
307             	3.24452496e+02
308             	3.24450551e+02
309             	3.24449042e+02
310             	3.24447727e+02
311             	3.24446779e+02
312             	3.24446468e+02
313             	3.24447131e+02
314             	3.24449156e+02
315             	3.24452277e+02
316             	3.24455279e+02
317             	3.24459778e+02
318             	3.24465714e+02
319             	3.24470976e+02
320             	3.24474909e+02
321             	3.24481405e+02
322             	3.24489035e+02
323             	3.24495992e+02
324             	3.24501788e+02
325             	3.24507992e+02
326             	3.24513959e+02
327             	3.24518719e+02
328             	3.24521542e+02
329             	3.24521324e+02
330             	3.24519816e+02
331             	3.24517215e+02
332             	3.24513586e+02
333             	3.24509387e+02
334             	3.24505233e+02
335             	3.24501003e+02
336             	3.24496458e+02
337             	3.24491778e+02
338             	3.24484719e+02
339             	3.24481473e+02
340             	3.24479565e+02
341             	3.24477049e+02
342             	3.24474873e+02
343             	3.24472592e+02
344             	3.24471256e+02
345             	3.24470418e+02
346             	3.24470390e+02
347             	3.24470488e+02
348             	3.24472693e+02
349             	3.24473153e+02
350             	3.24472706e+02
351             	3.24473139e+02
352             	3.24474483e+02
353             	3.24475546e+02
354             	3.24477625e+02
355             	3.24479645e+02
356             	3.24482777e+02
357             	3.24485660e+02
358             	3.24489729e+02
359             	3.24492542e+02
360             	3.24494652e+02
361             	3.24496842e+02
362             	3.24499555e+02
363             	3.24502271e+02
364             	3.24504340e+02
365             	3.24505364e+02
366             	3.24506350e+02
367             	3.24507876e+02
368             	3.24509123e+02
369             	3.24510232e+02
370             	3.24511822e+02
371             	3.24513127e+02
372             	3.24515451e+02
373             	3.24515448e+02
374             	3.24514862e+02
375             	3.24514648e+02
376             	3.24514610e+02
377             	3.24514463e+02
378             	3.24514049e+02
379             	3.24513404e+02
380             	3.24512668e+02
381             	3.24512103e+02
382             	3.24511783e+02
383             	3.24511439e+02
384             	3.24510811e+02
385             	3.24509753e+02
386             	3.24509789e+02
387             	3.24509400e+02
388             	3.24508553e+02
389             	3.24507879e+02
390             	3.24507068e+02
391             	3.24506475e+02
392             	3.24506153e+02
393             	3.24507070e+02
394             	3.24506666e+02
395             	3.24506049e+02
396             	3.24506043e+02
397             	3.24506586e+02
398             	3.24507301e+02
399             	3.24508007e+02
400             	3.24508653e+02
401             	3.24508652e+02
402             	3.24509594e+02
403             	3.24510919e+02
404             	3.24511750e+02
405             	3.24512207e+02
406             	3.24512951e+02
407             	3.24513595e+02
408             	3.24513786e+02
409             	3.24513657e+02
410             	3.24513341e+02
411             	3.24512864e+02
412             	3.24511909e+02
413             	3.24511346e+02
414             	3.24510727e+02
415             	3.24510019e+02
416             	3.24509926e+02
417             	3.24508810e+02
418             	3.24507671e+02
419             	3.24506916e+02
420             	3.24506416e+02
421             	3.24506182e+02
422             	3.24506026e+02
423             	3.24506395e+02
424             	3.24506624e+02
425             	3.24506877e+02
426             	3.24506715e+02
427             	3.24506804e+02
428             	3.24507893e+02
429             	3.24509000e+02
430             	3.24509780e+02
431             	3.24510327e+02
432             	3.24510809e+02
433             	3.24511268e+02
434             	3.24511708e+02
435             	3.24512800e+02
436             	3.24512973e+02
437             	3.24512915e+02
438             	3.24512986e+02
439             	3.24513041e+02
440             	3.24512970e+02
441             	3.24512849e+02
442             	3.24512822e+02
443             	3.24513431e+02
444             	3.24513504e+02
445             	3.24513539e+02
446             	3.24513865e+02
447             	3.24514411e+02
448             	3.24514885e+02
449             	3.24515252e+02
450             	3.24515433e+02
451             	3.24515114e+02
452             	3.24515137e+02
453             	3.24514891e+02
454             	3.24514916e+02
455             	3.24514243e+02
456             	3.24512926e+02
457             	3.24511520e+02
458             	3.24510462e+02
459             	3.24509592e+02
460             	3.24508282e+02
461             	3.24507207e+02
462             	3.24506311e+02
463             	3.24506042e+02
464             	3.24506030e+02
465             	3.24506302e+02
466             	3.24506754e+02
467             	3.24507410e+02
468             	3.24508561e+02
469             	3.24509283e+02
470             	3.24509845e+02
471             	3.24510651e+02
472             	3.24511505e+02
473             	3.24512429e+02
474             	3.24513438e+02
475             	3.24514390e+02
476             	3.24515125e+02
477             	3.24515744e+02
478             	3.24516097e+02
479             	3.24516354e+02
480             	3.24516540e+02
481             	3.24516683e+02
482             	3.24516751e+02
483             	3.24516733e+02
484             	3.24516370e+02
485             	3.24515968e+02
486             	3.24515913e+02
487             	3.24515918e+02
488             	3.24515897e+02
489             	3.24516047e+02
490             	3.24515914e+02
491             	3.24515836e+02
492             	3.24515794e+02
493             	3.24515754e+02
494             	3.24515843e+02
495             	3.24515959e+02
496             	3.24515999e+02
497             	3.24516028e+02
498             	3.24516130e+02
499             	3.24516203e+02
500             	3.24516278e+02
501             	3.24516392e+02
502             	3.24516500e+02
503             	3.24516579e+02
504             	3.24516701e+02
505             	3.24516709e+02
506             	3.24516717e+02
507             	3.24516610e+02
508             	3.24516422e+02
509             	3.24516168e+02
510             	3.24515809e+02
511             	3.24515365e+02
512             	3.24515017e+02
513             	3.24514541e+02
514             	3.24514247e+02
515             	3.24513990e+02
516             	3.24513733e+02
517             	3.24513534e+02
518             	3.24513345e+02
519             	3.24513022e+02
520             	3.24512853e+02
521             	3.24512760e+02
522             	3.24512658e+02
523             	3.24512620e+02
524             	3.24512646e+02
525             	3.24512791e+02
526             	3.24513037e+02
527             	3.24513374e+02
528             	3.24513810e+02
529             	3.24514229e+02
530             	3.24514698e+02
531             	3.24515244e+02
532             	3.24515813e+02
533             	3.24516367e+02
534             	3.24516749e+02
535             	3.24517171e+02
536             	3.24517544e+02
537             	3.24517838e+02
538             	3.24518039e+02
539             	3.24518141e+02
540             	3.24518253e+02
541             	3.24518177e+02
542             	3.24517957e+02
543             	3.24517679e+02
544             	3.24517346e+02
545             	3.24516932e+02
546             	3.24516401e+02
547             	3.24515768e+02
548             	3.24515350e+02
549             	3.24514999e+02
550             	3.24514668e+02
551             	3.24514427e+02
552             	3.24514305e+02
553             	3.24514146e+02
554             	3.24514089e+02
555             	3.24514118e+02
556             	3.24514183e+02
557             	3.24514206e+02
558             	3.24514418e+02
559             	3.24514663e+02
560             	3.24514873e+02
561             	3.24515081e+02
562             	3.24515298e+02
563             	3.24515581e+02
564             	3.24515852e+02
565             	3.24516053e+02
566             	3.24516227e+02
567             	3.24516407e+02
568             	3.24516552e+02
569             	3.24516662e+02
570             	3.24516678e+02
571             	3.24516759e+02
572             	3.24516780e+02
573             	3.24516744e+02
574             	3.24516773e+02
575             	3.24516805e+02
576             	3.24516934e+02
577             	3.24516867e+02
578             	3.24516756e+02
579             	3.24516684e+02
580             	3.24516637e+02
581             	3.24516544e+02
582             	3.24516422e+02
583             	3.24516179e+02
584             	3.24516117e+02
585             	3.24516061e+02
586             	3.24516018e+02
587             	3.24516001e+02
588             	3.24516058e+02
589             	3.24516088e+02
590             	3.24516143e+02
591             	3.24516246e+02
592             	3.24516366e+02
593             	3.24516457e+02
594             	3.24516546e+02
595             	3.24516611e+02
596             	3.24516696e+02
597             	3.24516759e+02
598             	3.24516863e+02
599             	3.24516980e+02
600             	3.24517088e+02
601             	3.24517181e+02
602             	3.24517244e+02
603             	3.24517303e+02
604             	3.24517392e+02
605             	3.24517401e+02
606             	3.24517404e+02
607             	3.24517411e+02
608             	3.24517370e+02
609             	3.24517298e+02
610             	3.24517177e+02
611             	3.24517078e+02
612             	3.24517020e+02
613             	3.24516981e+02
614             	3.24516929e+02
615             	3.24516865e+02
616             	3.24516856e+02
617             	3.24516874e+02
618             	3.24516833e+02
619             	3.24516809e+02
620             	3.24516826e+02
621             	3.24516821e+02
