# Region        : cellZone component_3
# Cells         : 186
# Volume        : 3.63561493e-01
# Time          	volAverage(T)
1               	3.00224535e+02
2               	3.00445821e+02
3               	3.00647855e+02
4               	3.00837640e+02
5               	3.01021774e+02
6               	3.01201938e+02
7               	3.01378853e+02
8               	3.01553250e+02
9               	3.01725203e+02
10              	3.01894205e+02
11              	3.02063157e+02
12              	3.02230594e+02
13              	3.02398349e+02
14              	3.02564974e+02
15              	3.02728932e+02
16              	3.02891915e+02
17              	3.03052940e+02
18              	3.03213708e+02
19              	3.03367775e+02
20              	3.03523948e+02
21              	3.03672608e+02
22              	3.03816439e+02
23              	3.03958489e+02
24              	3.04095722e+02
25              	3.04223118e+02
26              	3.04347077e+02
27              	3.04468715e+02
28              	3.04584452e+02
29              	3.04697565e+02
30              	3.04810772e+02
31              	3.04913198e+02
32              	3.05004097e+02
33              	3.05090830e+02
34              	3.05171911e+02
35              	3.05257083e+02
36              	3.05345164e+02
37              	3.05433002e+02
38              	3.05520684e+02
39              	3.05607278e+02
40              	3.05694449e+02
41              	3.05776915e+02
42              	3.05860003e+02
43              	3.05941719e+02
44              	3.06023436e+02
45              	3.06107541e+02
46              	3.06194819e+02
47              	3.06285553e+02
48              	3.06371907e+02
49              	3.06453735e+02
50              	3.06530450e+02
51              	3.06602891e+02
52              	3.06671485e+02
53              	3.06741014e+02
54              	3.06813997e+02
55              	3.06885632e+02
56              	3.06948052e+02
57              	3.07004624e+02
58              	3.07060861e+02
59              	3.07116303e+02
60              	3.07170291e+02
61              	3.07225100e+02
62              	3.07279011e+02
63              	3.07336211e+02
64              	3.07398036e+02
65              	3.07457184e+02
66              	3.07518949e+02
67              	3.07578350e+02
68              	3.07635608e+02
69              	3.07691479e+02
70              	3.07746027e+02
71              	3.07799128e+02
72              	3.07851079e+02
73              	3.07901972e+02
74              	3.07951701e+02
75              	3.08000117e+02
76              	3.08047162e+02
77              	3.08093287e+02
78              	3.08138171e+02
79              	3.08182203e+02
80              	3.08224999e+02
81              	3.08267645e+02
82              	3.08309917e+02
83              	3.08352193e+02
84              	3.08393976e+02
85              	3.08435828e+02
86              	3.08477673e+02
87              	3.08518133e+02
88              	3.08558062e+02
89              	3.08596846e+02
90              	3.08634146e+02
91              	3.08670310e+02
92              	3.08705479e+02
93              	3.08739897e+02
94              	3.08773654e+02
95              	3.08807038e+02
96              	3.08839590e+02
97              	3.08871848e+02
98              	3.08903514e+02
99              	3.08934488e+02
100             	3.08964770e+02
101             	3.08994275e+02
102             	3.09023211e+02
103             	3.09051581e+02
104             	3.09079472e+02
105             	3.09106963e+02
106             	3.09133958e+02
107             	3.09160550e+02
108             	3.09186693e+02
109             	3.09212125e+02
110             	3.09237294e+02
111             	3.09261795e+02
112             	3.09285588e+02
113             	3.09308658e+02
114             	3.09331027e+02
115             	3.09352755e+02
116             	3.09373985e+02
117             	3.09394721e+02
118             	3.09415043e+02
119             	3.09434883e+02
120             	3.09454353e+02
121             	3.09473489e+02
122             	3.09492213e+02
123             	3.09510562e+02
124             	3.09528422e+02
125             	3.09545967e+02
126             	3.09563283e+02
127             	3.09580369e+02
128             	3.09597219e+02
129             	3.09613842e+02
130             	3.09630145e+02
131             	3.09646280e+02
132             	3.09662116e+02
133             	3.09677639e+02
134             	3.09692804e+02
135             	3.09707528e+02
136             	3.09721969e+02
137             	3.09736109e+02
138             	3.09749970e+02
139             	3.09763606e+02
140             	3.09776997e+02
141             	3.09790106e+02
142             	3.09802943e+02
143             	3.09806297e+02
144             	3.09804332e+02
145             	3.09800875e+02
146             	3.09797389e+02
147             	3.09795040e+02
148             	3.09794396e+02
149             	3.09795320e+02
150             	3.09797709e+02
151             	3.09801403e+02
152             	3.09805943e+02
153             	3.09810828e+02
154             	3.09815876e+02
155             	3.09820965e+02
156             	3.09825911e+02
157             	3.09830979e+02
158             	3.09836364e+02
159             	3.09842013e+02
160             	3.09848042e+02
161             	3.09854504e+02
162             	3.09861283e+02
163             	3.09868252e+02
164             	3.09875292e+02
165             	3.09882385e+02
166             	3.09889350e+02
167             	3.09896091e+02
168             	3.09902738e+02
169             	3.09909433e+02
170             	3.09916017e+02
171             	3.09922540e+02
172             	3.09929069e+02
173             	3.09935699e+02
174             	3.09942364e+02
175             	3.09949059e+02
176             	3.09955750e+02
177             	3.09962321e+02
178             	3.09968742e+02
179             	3.09974901e+02
180             	3.09980631e+02
181             	3.09985822e+02
182             	3.09990648e+02
183             	3.09995136e+02
184             	3.09999340e+02
185             	3.10003296e+02
186             	3.10007045e+02
187             	3.10010605e+02
188             	3.10013954e+02
189             	3.10017133e+02
190             	3.10020061e+02
191             	3.10022727e+02
192             	3.10025066e+02
193             	3.10027088e+02
194             	3.10028803e+02
195             	3.10030229e+02
196             	3.10031403e+02
197             	3.10032353e+02
198             	3.10033061e+02
199             	3.10033549e+02
200             	3.10033855e+02
201             	3.10033894e+02
202             	3.10033777e+02
203             	3.10033606e+02
204             	3.10033588e+02
205             	3.10033761e+02
206             	3.10033924e+02
207             	3.10033968e+02
208             	3.10034004e+02
209             	3.10033906e+02
210             	3.10033791e+02
211             	3.10033530e+02
212             	3.10033069e+02
213             	3.10032381e+02
214             	3.10031446e+02
215             	3.10030295e+02
216             	3.10029064e+02
217             	3.10027750e+02
218             	3.10026434e+02
219             	3.10025199e+02
220             	3.10024099e+02
221             	3.10023130e+02
222             	3.10022249e+02
223             	3.10021390e+02
224             	3.10020544e+02
225             	3.10019709e+02
226             	3.10018786e+02
227             	3.10017754e+02
228             	3.10016662e+02
229             	3.10015497e+02
230             	3.10014364e+02
231             	3.10013266e+02
232             	3.10012207e+02
233             	3.10011321e+02
234             	3.10010576e+02
235             	3.10009951e+02
236             	3.10009511e+02
237             	3.10009275e+02
238             	3.10009184e+02
239             	3.10009103e+02
240             	3.10009002e+02
241             	3.10008807e+02
242             	3.10008591e+02
243             	3.10008376e+02
244             	3.10008175e+02
245             	3.10007988e+02
246             	3.10007815e+02
247             	3.10007659e+02
248             	3.10007511e+02
249             	3.10007387e+02
250             	3.10007220e+02
251             	3.10007031e+02
252             	3.10006860e+02
253             	3.10006724e+02
254             	3.10006624e+02
255             	3.10006527e+02
256             	3.10006475e+02
257             	3.10006441e+02
258             	3.10006392e+02
259             	3.10006290e+02
260             	3.10006114e+02
261             	3.10005874e+02
262             	3.10005614e+02
263             	3.10005425e+02
264             	3.10005253e+02
265             	3.10005139e+02
266             	3.10005087e+02
267             	3.10005073e+02
268             	3.10005114e+02
269             	3.10005162e+02
270             	3.10005179e+02
271             	3.10005141e+02
272             	3.10005024e+02
273             	3.10004850e+02
274             	3.10004643e+02
275             	3.10004439e+02
276             	3.10004269e+02
277             	3.10004173e+02
278             	3.10004166e+02
279             	3.10004224e+02
280             	3.10004362e+02
281             	3.10004548e+02
282             	3.10004760e+02
283             	3.10004970e+02
284             	3.10005147e+02
285             	3.10005273e+02
286             	3.10005338e+02
287             	3.10005326e+02
288             	3.10005245e+02
289             	3.10005097e+02
290             	3.10004883e+02
291             	3.10004609e+02
292             	3.10004301e+02
293             	3.10003969e+02
294             	3.10003647e+02
295             	3.10003320e+02
296             	3.10002984e+02
297             	3.10002667e+02
298             	3.10002375e+02
299             	3.10002102e+02
300             	3.10001840e+02
301             	3.10001573e+02
302             	3.10001311e+02
303             	3.10001046e+02
304             	3.10000765e+02
305             	3.10000466e+02
306             	3.10000146e+02
307             	3.09999838e+02
308             	3.09999526e+02
309             	3.09999215e+02
310             	3.09998894e+02
311             	3.09998583e+02
312             	3.09998251e+02
313             	3.09997924e+02
314             	3.09997605e+02
315             	3.09997271e+02
316             	3.09996946e+02
317             	3.09996622e+02
318             	3.09996296e+02
319             	3.09995947e+02
320             	3.09995595e+02
321             	3.09995233e+02
322             	3.09994905e+02
323             	3.09994579e+02
324             	3.09994264e+02
325             	3.09993952e+02
326             	3.09993648e+02
327             	3.09993341e+02
328             	3.09993039e+02
329             	3.09992740e+02
330             	3.09992445e+02
331             	3.09992140e+02
332             	3.09991863e+02
333             	3.09991575e+02
334             	3.09991302e+02
335             	3.09991043e+02
336             	3.09990775e+02
337             	3.09990515e+02
338             	3.09990271e+02
339             	3.09989984e+02
340             	3.09989689e+02
341             	3.09989393e+02
342             	3.09989062e+02
343             	3.09988705e+02
344             	3.09988346e+02
345             	3.09987945e+02
346             	3.09987556e+02
347             	3.09987202e+02
348             	3.09986860e+02
349             	3.09986559e+02
350             	3.09986297e+02
351             	3.09986050e+02
352             	3.09985823e+02
353             	3.09985625e+02
354             	3.09985424e+02
355             	3.09985236e+02
356             	3.09985065e+02
357             	3.09984878e+02
358             	3.09984693e+02
359             	3.09984504e+02
360             	3.09984296e+02
361             	3.09984085e+02
362             	3.09983882e+02
363             	3.09983673e+02
364             	3.09983466e+02
365             	3.09983264e+02
366             	3.09983069e+02
367             	3.09982882e+02
368             	3.09982708e+02
369             	3.09982530e+02
370             	3.09982340e+02
371             	3.09982141e+02
372             	3.09981947e+02
373             	3.09981728e+02
374             	3.09981515e+02
375             	3.09981314e+02
376             	3.09981107e+02
377             	3.09980919e+02
378             	3.09980751e+02
379             	3.09980587e+02
380             	3.09980438e+02
381             	3.09980299e+02
382             	3.09980167e+02
383             	3.09980030e+02
384             	3.09979894e+02
385             	3.09979747e+02
386             	3.09979599e+02
387             	3.09979447e+02
388             	3.09979279e+02
389             	3.09979112e+02
390             	3.09978944e+02
391             	3.09978780e+02
392             	3.09978625e+02
393             	3.09978479e+02
394             	3.09978336e+02
395             	3.09978211e+02
396             	3.09978103e+02
397             	3.09978005e+02
398             	3.09977925e+02
399             	3.09977853e+02
400             	3.09977787e+02
401             	3.09977727e+02
402             	3.09977670e+02
403             	3.09977617e+02
404             	3.09977562e+02
405             	3.09977509e+02
406             	3.09977455e+02
407             	3.09977403e+02
408             	3.09977350e+02
409             	3.09977293e+02
410             	3.09977235e+02
411             	3.09977173e+02
412             	3.09977109e+02
413             	3.09977041e+02
414             	3.09976970e+02
415             	3.09976895e+02
416             	3.09976819e+02
417             	3.09976744e+02
418             	3.09976662e+02
419             	3.09976581e+02
420             	3.09976500e+02
421             	3.09976418e+02
422             	3.09976335e+02
423             	3.09976255e+02
424             	3.09976174e+02
425             	3.09976096e+02
426             	3.09976020e+02
427             	3.09975944e+02
428             	3.09975872e+02
429             	3.09975799e+02
430             	3.09975730e+02
431             	3.09975667e+02
432             	3.09975611e+02
433             	3.09975562e+02
434             	3.09975523e+02
435             	3.09975494e+02
436             	3.09975471e+02
437             	3.09975456e+02
438             	3.09975449e+02
439             	3.09975447e+02
440             	3.09975448e+02
441             	3.09975452e+02
442             	3.09975456e+02
443             	3.09975455e+02
444             	3.09975451e+02
445             	3.09975442e+02
446             	3.09975429e+02
447             	3.09975414e+02
448             	3.09975395e+02
449             	3.09975373e+02
450             	3.09975351e+02
451             	3.09975328e+02
452             	3.09975303e+02
453             	3.09975276e+02
454             	3.09975243e+02
455             	3.09975205e+02
456             	3.09975165e+02
457             	3.09975117e+02
458             	3.09975062e+02
459             	3.09975003e+02
460             	3.09974938e+02
461             	3.09974876e+02
462             	3.09974822e+02
463             	3.09974766e+02
464             	3.09974716e+02
465             	3.09974675e+02
466             	3.09974639e+02
467             	3.09974608e+02
468             	3.09974581e+02
469             	3.09974556e+02
470             	3.09974534e+02
471             	3.09974515e+02
472             	3.09974496e+02
473             	3.09974481e+02
474             	3.09974469e+02
475             	3.09974460e+02
476             	3.09974454e+02
477             	3.09974454e+02
478             	3.09974458e+02
479             	3.09974465e+02
480             	3.09974475e+02
481             	3.09974486e+02
482             	3.09974497e+02
483             	3.09974507e+02
484             	3.09974515e+02
485             	3.09974516e+02
486             	3.09974515e+02
487             	3.09974510e+02
488             	3.09974501e+02
489             	3.09974489e+02
490             	3.09974473e+02
491             	3.09974455e+02
492             	3.09974437e+02
493             	3.09974417e+02
494             	3.09974397e+02
495             	3.09974378e+02
496             	3.09974357e+02
497             	3.09974338e+02
498             	3.09974320e+02
499             	3.09974303e+02
500             	3.09974288e+02
501             	3.09974276e+02
502             	3.09974265e+02
503             	3.09974255e+02
504             	3.09974247e+02
505             	3.09974237e+02
506             	3.09974228e+02
507             	3.09974220e+02
508             	3.09974212e+02
509             	3.09974203e+02
510             	3.09974197e+02
511             	3.09974193e+02
512             	3.09974192e+02
513             	3.09974193e+02
514             	3.09974197e+02
515             	3.09974204e+02
516             	3.09974213e+02
517             	3.09974227e+02
518             	3.09974242e+02
519             	3.09974255e+02
520             	3.09974266e+02
521             	3.09974275e+02
522             	3.09974285e+02
523             	3.09974295e+02
524             	3.09974304e+02
525             	3.09974313e+02
526             	3.09974309e+02
527             	3.09974297e+02
528             	3.09974287e+02
529             	3.09974279e+02
530             	3.09974272e+02
531             	3.09974266e+02
532             	3.09974261e+02
533             	3.09974255e+02
534             	3.09974251e+02
535             	3.09974247e+02
536             	3.09974243e+02
537             	3.09974239e+02
538             	3.09974236e+02
539             	3.09974233e+02
540             	3.09974230e+02
541             	3.09974227e+02
542             	3.09974224e+02
543             	3.09974221e+02
544             	3.09974219e+02
545             	3.09974217e+02
546             	3.09974216e+02
547             	3.09974215e+02
548             	3.09974215e+02
549             	3.09974215e+02
550             	3.09974216e+02
551             	3.09974217e+02
552             	3.09974220e+02
553             	3.09974223e+02
554             	3.09974226e+02
555             	3.09974231e+02
556             	3.09974236e+02
557             	3.09974241e+02
558             	3.09974247e+02
559             	3.09974254e+02
560             	3.09974262e+02
561             	3.09974269e+02
562             	3.09974278e+02
563             	3.09974286e+02
564             	3.09974295e+02
565             	3.09974303e+02
566             	3.09974311e+02
567             	3.09974319e+02
568             	3.09974327e+02
569             	3.09974334e+02
570             	3.09974342e+02
571             	3.09974349e+02
572             	3.09974356e+02
573             	3.09974363e+02
574             	3.09974369e+02
575             	3.09974376e+02
576             	3.09974382e+02
577             	3.09974387e+02
578             	3.09974392e+02
579             	3.09974397e+02
580             	3.09974401e+02
581             	3.09974405e+02
582             	3.09974408e+02
583             	3.09974412e+02
584             	3.09974415e+02
585             	3.09974418e+02
586             	3.09974422e+02
587             	3.09974425e+02
588             	3.09974428e+02
589             	3.09974432e+02
590             	3.09974436e+02
591             	3.09974441e+02
592             	3.09974445e+02
593             	3.09974451e+02
594             	3.09974457e+02
595             	3.09974463e+02
596             	3.09974470e+02
597             	3.09974478e+02
598             	3.09974486e+02
599             	3.09974494e+02
600             	3.09974502e+02
601             	3.09974511e+02
602             	3.09974520e+02
603             	3.09974529e+02
604             	3.09974537e+02
605             	3.09974545e+02
606             	3.09974553e+02
607             	3.09974559e+02
608             	3.09974566e+02
609             	3.09974571e+02
610             	3.09974577e+02
611             	3.09974582e+02
612             	3.09974587e+02
613             	3.09974591e+02
614             	3.09974596e+02
615             	3.09974600e+02
616             	3.09974604e+02
617             	3.09974609e+02
618             	3.09974613e+02
619             	3.09974617e+02
620             	3.09974620e+02
621             	3.09974623e+02
