# Region        : cellZone component_2
# Cells         : 80
# Volume        : 1.22533739e-01
# Time          	volAverage(T)
1               	3.01121922e+02
2               	3.02208282e+02
3               	3.03026221e+02
4               	3.03671194e+02
5               	3.04293012e+02
6               	3.04929396e+02
7               	3.05550322e+02
8               	3.06139351e+02
9               	3.06706212e+02
10              	3.07263591e+02
11              	3.07815593e+02
12              	3.08328129e+02
13              	3.08801572e+02
14              	3.09241809e+02
15              	3.09679597e+02
16              	3.10094505e+02
17              	3.10492333e+02
18              	3.10882913e+02
19              	3.11287332e+02
20              	3.11674754e+02
21              	3.12047848e+02
22              	3.12400288e+02
23              	3.12736792e+02
24              	3.13053959e+02
25              	3.13344970e+02
26              	3.13596831e+02
27              	3.13812516e+02
28              	3.13991439e+02
29              	3.14131540e+02
30              	3.14251937e+02
31              	3.14370727e+02
32              	3.14508150e+02
33              	3.14659512e+02
34              	3.14819284e+02
35              	3.14986575e+02
36              	3.15150269e+02
37              	3.15307800e+02
38              	3.15454368e+02
39              	3.15584348e+02
40              	3.15685858e+02
41              	3.15762030e+02
42              	3.15825182e+02
43              	3.15885357e+02
44              	3.15938520e+02
45              	3.15975954e+02
46              	3.16005408e+02
47              	3.16032302e+02
48              	3.16058503e+02
49              	3.16081625e+02
50              	3.16113010e+02
51              	3.16162494e+02
52              	3.16218418e+02
53              	3.16283993e+02
54              	3.16359162e+02
55              	3.16427402e+02
56              	3.16501171e+02
57              	3.16564327e+02
58              	3.16619018e+02
59              	3.16661914e+02
60              	3.16692683e+02
61              	3.16713429e+02
62              	3.16721509e+02
63              	3.16721038e+02
64              	3.16720176e+02
65              	3.16733200e+02
66              	3.16760222e+02
67              	3.16799773e+02
68              	3.16847585e+02
69              	3.16879873e+02
70              	3.16921201e+02
71              	3.16960102e+02
72              	3.16984486e+02
73              	3.16995866e+02
74              	3.16996419e+02
75              	3.16989253e+02
76              	3.16979015e+02
77              	3.16975285e+02
78              	3.16977577e+02
79              	3.16988596e+02
80              	3.17009176e+02
81              	3.17033913e+02
82              	3.17053697e+02
83              	3.17074053e+02
84              	3.17085472e+02
85              	3.17079139e+02
86              	3.17060029e+02
87              	3.17031743e+02
88              	3.16995414e+02
89              	3.16960596e+02
90              	3.16929620e+02
91              	3.16897603e+02
92              	3.16874441e+02
93              	3.16861045e+02
94              	3.16855085e+02
95              	3.16855217e+02
96              	3.16859116e+02
97              	3.16865375e+02
98              	3.16870895e+02
99              	3.16874972e+02
100             	3.16875946e+02
101             	3.16874721e+02
102             	3.16872009e+02
103             	3.16869318e+02
104             	3.16870075e+02
105             	3.16871906e+02
106             	3.16877754e+02
107             	3.16888860e+02
108             	3.16903452e+02
109             	3.16919633e+02
110             	3.16936066e+02
111             	3.16950623e+02
112             	3.16963893e+02
113             	3.16974518e+02
114             	3.16983825e+02
115             	3.16991925e+02
116             	3.16998412e+02
117             	3.17004835e+02
118             	3.17012851e+02
119             	3.17022777e+02
120             	3.17034466e+02
121             	3.17046129e+02
122             	3.17056689e+02
123             	3.17065096e+02
124             	3.17070642e+02
125             	3.17075612e+02
126             	3.17080774e+02
127             	3.17085681e+02
128             	3.17090949e+02
129             	3.17096016e+02
130             	3.17101135e+02
131             	3.17106984e+02
132             	3.17113797e+02
133             	3.17121699e+02
134             	3.17130239e+02
135             	3.17139200e+02
136             	3.17148760e+02
137             	3.17158672e+02
138             	3.17167675e+02
139             	3.17176124e+02
140             	3.17184126e+02
141             	3.17191185e+02
142             	3.17197767e+02
143             	3.17203813e+02
144             	3.17210110e+02
145             	3.17215696e+02
146             	3.17221921e+02
147             	3.17228413e+02
148             	3.17234686e+02
149             	3.17240489e+02
150             	3.17245492e+02
151             	3.17249135e+02
152             	3.17251542e+02
153             	3.17253636e+02
154             	3.17256685e+02
155             	3.17260600e+02
156             	3.17265491e+02
157             	3.17271562e+02
158             	3.17278261e+02
159             	3.17285305e+02
160             	3.17291613e+02
161             	3.17296814e+02
162             	3.17300846e+02
163             	3.17303732e+02
164             	3.17306039e+02
165             	3.17308004e+02
166             	3.17310231e+02
167             	3.17312703e+02
168             	3.17315352e+02
169             	3.17318128e+02
170             	3.17321037e+02
171             	3.17324118e+02
172             	3.17327306e+02
173             	3.17330885e+02
174             	3.17335023e+02
175             	3.17339932e+02
176             	3.17345396e+02
177             	3.17351435e+02
178             	3.17358079e+02
179             	3.17364857e+02
180             	3.17371460e+02
181             	3.17377455e+02
182             	3.17382226e+02
183             	3.17385691e+02
184             	3.17387962e+02
185             	3.17388321e+02
186             	3.17387102e+02
187             	3.17385099e+02
188             	3.17382627e+02
189             	3.17380113e+02
190             	3.17378302e+02
191             	3.17376807e+02
192             	3.17376220e+02
193             	3.17376738e+02
194             	3.17378334e+02
195             	3.17381078e+02
196             	3.17384478e+02
197             	3.17388215e+02
198             	3.17391996e+02
199             	3.17395259e+02
200             	3.17397955e+02
201             	3.17400266e+02
202             	3.17402143e+02
203             	3.17403800e+02
204             	3.17405598e+02
205             	3.17407613e+02
206             	3.17409968e+02
207             	3.17412277e+02
208             	3.17414321e+02
209             	3.17416454e+02
210             	3.17418627e+02
211             	3.17420596e+02
212             	3.17422207e+02
213             	3.17423110e+02
214             	3.17423412e+02
215             	3.17423296e+02
216             	3.17422938e+02
217             	3.17422537e+02
218             	3.17422277e+02
219             	3.17421999e+02
220             	3.17421969e+02
221             	3.17422368e+02
222             	3.17423049e+02
223             	3.17423963e+02
224             	3.17425016e+02
225             	3.17426256e+02
226             	3.17427669e+02
227             	3.17429218e+02
228             	3.17430944e+02
229             	3.17432722e+02
230             	3.17434114e+02
231             	3.17434994e+02
232             	3.17435340e+02
233             	3.17435074e+02
234             	3.17434237e+02
235             	3.17433042e+02
236             	3.17431840e+02
237             	3.17430977e+02
238             	3.17430736e+02
239             	3.17431211e+02
240             	3.17432325e+02
241             	3.17433967e+02
242             	3.17435996e+02
243             	3.17438162e+02
244             	3.17440143e+02
245             	3.17441568e+02
246             	3.17442614e+02
247             	3.17443009e+02
248             	3.17442851e+02
249             	3.17442524e+02
250             	3.17442374e+02
251             	3.17442358e+02
252             	3.17442522e+02
253             	3.17442881e+02
254             	3.17443583e+02
255             	3.17444542e+02
256             	3.17445420e+02
257             	3.17446085e+02
258             	3.17446472e+02
259             	3.17446583e+02
260             	3.17446512e+02
261             	3.17446197e+02
262             	3.17445881e+02
263             	3.17445671e+02
264             	3.17445614e+02
265             	3.17445793e+02
266             	3.17446234e+02
267             	3.17446948e+02
268             	3.17447992e+02
269             	3.17449249e+02
270             	3.17450568e+02
271             	3.17451766e+02
272             	3.17452763e+02
273             	3.17453535e+02
274             	3.17454074e+02
275             	3.17454426e+02
276             	3.17454643e+02
277             	3.17454805e+02
278             	3.17454948e+02
279             	3.17455129e+02
280             	3.17455354e+02
281             	3.17455639e+02
282             	3.17455951e+02
283             	3.17456309e+02
284             	3.17456731e+02
285             	3.17457118e+02
286             	3.17457473e+02
287             	3.17457819e+02
288             	3.17458104e+02
289             	3.17458286e+02
290             	3.17458368e+02
291             	3.17458388e+02
292             	3.17458357e+02
293             	3.17458347e+02
294             	3.17458403e+02
295             	3.17458496e+02
296             	3.17458631e+02
297             	3.17458792e+02
298             	3.17458966e+02
299             	3.17459146e+02
300             	3.17459330e+02
301             	3.17459520e+02
302             	3.17459730e+02
303             	3.17459964e+02
304             	3.17460224e+02
305             	3.17460485e+02
306             	3.17460725e+02
307             	3.17460932e+02
308             	3.17461098e+02
309             	3.17461211e+02
310             	3.17461275e+02
311             	3.17461291e+02
312             	3.17461277e+02
313             	3.17461294e+02
314             	3.17461424e+02
315             	3.17461680e+02
316             	3.17462060e+02
317             	3.17462539e+02
318             	3.17463051e+02
319             	3.17463535e+02
320             	3.17463910e+02
321             	3.17464093e+02
322             	3.17464168e+02
323             	3.17464133e+02
324             	3.17464054e+02
325             	3.17464011e+02
326             	3.17464023e+02
327             	3.17464074e+02
328             	3.17464184e+02
329             	3.17464343e+02
330             	3.17464577e+02
331             	3.17464854e+02
332             	3.17465081e+02
333             	3.17465246e+02
334             	3.17465344e+02
335             	3.17465366e+02
336             	3.17465320e+02
337             	3.17465219e+02
338             	3.17465080e+02
339             	3.17464949e+02
340             	3.17464853e+02
341             	3.17464798e+02
342             	3.17464820e+02
343             	3.17464920e+02
344             	3.17465068e+02
345             	3.17465227e+02
346             	3.17465409e+02
347             	3.17465602e+02
348             	3.17465787e+02
349             	3.17465953e+02
350             	3.17466110e+02
351             	3.17466243e+02
352             	3.17466336e+02
353             	3.17466380e+02
354             	3.17466401e+02
355             	3.17466423e+02
356             	3.17466431e+02
357             	3.17466466e+02
358             	3.17466536e+02
359             	3.17466632e+02
360             	3.17466744e+02
361             	3.17466868e+02
362             	3.17466988e+02
363             	3.17467081e+02
364             	3.17467151e+02
365             	3.17467189e+02
366             	3.17467196e+02
367             	3.17467188e+02
368             	3.17467180e+02
369             	3.17467184e+02
370             	3.17467182e+02
371             	3.17467181e+02
372             	3.17467177e+02
373             	3.17467175e+02
374             	3.17467185e+02
375             	3.17467197e+02
376             	3.17467211e+02
377             	3.17467233e+02
378             	3.17467256e+02
379             	3.17467279e+02
380             	3.17467305e+02
381             	3.17467340e+02
382             	3.17467383e+02
383             	3.17467431e+02
384             	3.17467477e+02
385             	3.17467513e+02
386             	3.17467542e+02
387             	3.17467561e+02
388             	3.17467570e+02
389             	3.17467570e+02
390             	3.17467568e+02
391             	3.17467559e+02
392             	3.17467552e+02
393             	3.17467555e+02
394             	3.17467564e+02
395             	3.17467579e+02
396             	3.17467602e+02
397             	3.17467636e+02
398             	3.17467682e+02
399             	3.17467731e+02
400             	3.17467782e+02
401             	3.17467823e+02
402             	3.17467847e+02
403             	3.17467864e+02
404             	3.17467875e+02
405             	3.17467870e+02
406             	3.17467853e+02
407             	3.17467832e+02
408             	3.17467813e+02
409             	3.17467798e+02
410             	3.17467795e+02
411             	3.17467805e+02
412             	3.17467828e+02
413             	3.17467863e+02
414             	3.17467905e+02
415             	3.17467949e+02
416             	3.17467988e+02
417             	3.17468021e+02
418             	3.17468039e+02
419             	3.17468039e+02
420             	3.17468026e+02
421             	3.17467999e+02
422             	3.17467963e+02
423             	3.17467925e+02
424             	3.17467886e+02
425             	3.17467849e+02
426             	3.17467822e+02
427             	3.17467807e+02
428             	3.17467804e+02
429             	3.17467808e+02
430             	3.17467823e+02
431             	3.17467851e+02
432             	3.17467885e+02
433             	3.17467916e+02
434             	3.17467943e+02
435             	3.17467970e+02
436             	3.17468004e+02
437             	3.17468042e+02
438             	3.17468082e+02
439             	3.17468121e+02
440             	3.17468151e+02
441             	3.17468168e+02
442             	3.17468178e+02
443             	3.17468180e+02
444             	3.17468179e+02
445             	3.17468184e+02
446             	3.17468199e+02
447             	3.17468218e+02
448             	3.17468239e+02
449             	3.17468260e+02
450             	3.17468285e+02
451             	3.17468311e+02
452             	3.17468332e+02
453             	3.17468347e+02
454             	3.17468357e+02
455             	3.17468353e+02
456             	3.17468336e+02
457             	3.17468312e+02
458             	3.17468288e+02
459             	3.17468266e+02
460             	3.17468247e+02
461             	3.17468233e+02
462             	3.17468228e+02
463             	3.17468232e+02
464             	3.17468246e+02
465             	3.17468262e+02
466             	3.17468274e+02
467             	3.17468280e+02
468             	3.17468279e+02
469             	3.17468272e+02
470             	3.17468262e+02
471             	3.17468250e+02
472             	3.17468237e+02
473             	3.17468226e+02
474             	3.17468219e+02
475             	3.17468219e+02
476             	3.17468222e+02
477             	3.17468232e+02
478             	3.17468246e+02
479             	3.17468262e+02
480             	3.17468276e+02
481             	3.17468286e+02
482             	3.17468290e+02
483             	3.17468287e+02
484             	3.17468279e+02
485             	3.17468271e+02
486             	3.17468264e+02
487             	3.17468262e+02
488             	3.17468264e+02
489             	3.17468268e+02
490             	3.17468271e+02
491             	3.17468270e+02
492             	3.17468265e+02
493             	3.17468256e+02
494             	3.17468241e+02
495             	3.17468222e+02
496             	3.17468196e+02
497             	3.17468163e+02
498             	3.17468125e+02
499             	3.17468087e+02
500             	3.17468055e+02
501             	3.17468032e+02
502             	3.17468021e+02
503             	3.17468016e+02
504             	3.17468013e+02
505             	3.17468008e+02
506             	3.17468002e+02
507             	3.17467988e+02
508             	3.17467969e+02
509             	3.17467948e+02
510             	3.17467928e+02
511             	3.17467910e+02
512             	3.17467894e+02
513             	3.17467882e+02
514             	3.17467872e+02
515             	3.17467865e+02
516             	3.17467858e+02
517             	3.17467852e+02
518             	3.17467847e+02
519             	3.17467844e+02
520             	3.17467844e+02
521             	3.17467843e+02
522             	3.17467838e+02
523             	3.17467831e+02
524             	3.17467820e+02
525             	3.17467804e+02
526             	3.17467786e+02
527             	3.17467768e+02
528             	3.17467750e+02
529             	3.17467736e+02
530             	3.17467730e+02
531             	3.17467729e+02
532             	3.17467730e+02
533             	3.17467731e+02
534             	3.17467732e+02
535             	3.17467730e+02
536             	3.17467722e+02
537             	3.17467711e+02
538             	3.17467696e+02
539             	3.17467678e+02
540             	3.17467659e+02
541             	3.17467639e+02
542             	3.17467623e+02
543             	3.17467609e+02
544             	3.17467598e+02
545             	3.17467591e+02
546             	3.17467587e+02
547             	3.17467587e+02
548             	3.17467591e+02
549             	3.17467601e+02
550             	3.17467616e+02
551             	3.17467631e+02
552             	3.17467647e+02
553             	3.17467660e+02
554             	3.17467667e+02
555             	3.17467668e+02
556             	3.17467661e+02
557             	3.17467648e+02
558             	3.17467628e+02
559             	3.17467603e+02
560             	3.17467574e+02
561             	3.17467545e+02
562             	3.17467512e+02
563             	3.17467476e+02
564             	3.17467436e+02
565             	3.17467388e+02
566             	3.17467340e+02
567             	3.17467287e+02
568             	3.17467236e+02
569             	3.17467183e+02
570             	3.17467134e+02
571             	3.17467089e+02
572             	3.17467055e+02
573             	3.17467030e+02
574             	3.17467018e+02
575             	3.17467018e+02
576             	3.17467027e+02
577             	3.17467047e+02
578             	3.17467072e+02
579             	3.17467100e+02
580             	3.17467127e+02
581             	3.17467153e+02
582             	3.17467179e+02
583             	3.17467200e+02
584             	3.17467219e+02
585             	3.17467237e+02
586             	3.17467255e+02
587             	3.17467275e+02
588             	3.17467296e+02
589             	3.17467319e+02
590             	3.17467344e+02
591             	3.17467369e+02
592             	3.17467394e+02
593             	3.17467421e+02
594             	3.17467448e+02
595             	3.17467474e+02
596             	3.17467498e+02
597             	3.17467522e+02
598             	3.17467544e+02
599             	3.17467565e+02
600             	3.17467583e+02
601             	3.17467597e+02
602             	3.17467606e+02
603             	3.17467608e+02
604             	3.17467606e+02
605             	3.17467598e+02
606             	3.17467585e+02
607             	3.17467568e+02
608             	3.17467547e+02
609             	3.17467523e+02
610             	3.17467499e+02
611             	3.17467471e+02
612             	3.17467443e+02
613             	3.17467416e+02
614             	3.17467390e+02
615             	3.17467368e+02
616             	3.17467350e+02
617             	3.17467336e+02
618             	3.17467328e+02
619             	3.17467325e+02
620             	3.17467328e+02
621             	3.17467336e+02
