# Region        : cellZone component_0
# Cells         : 320
# Volume        : 6.67539932e-01
# Time          	volAverage(T)
1               	3.00090565e+02
2               	3.00180590e+02
3               	3.00265108e+02
4               	3.00345255e+02
5               	3.00423212e+02
6               	3.00499413e+02
7               	3.00574120e+02
8               	3.00647570e+02
9               	3.00719480e+02
10              	3.00789856e+02
11              	3.00858540e+02
12              	3.00926914e+02
13              	3.00994666e+02
14              	3.01061579e+02
15              	3.01128184e+02
16              	3.01193898e+02
17              	3.01259136e+02
18              	3.01324050e+02
19              	3.01387445e+02
20              	3.01448288e+02
21              	3.01510662e+02
22              	3.01570085e+02
23              	3.01627831e+02
24              	3.01682891e+02
25              	3.01736740e+02
26              	3.01789150e+02
27              	3.01840938e+02
28              	3.01893611e+02
29              	3.01944144e+02
30              	3.01993797e+02
31              	3.02040283e+02
32              	3.02084929e+02
33              	3.02129846e+02
34              	3.02175118e+02
35              	3.02220911e+02
36              	3.02265275e+02
37              	3.02309435e+02
38              	3.02351805e+02
39              	3.02392474e+02
40              	3.02431814e+02
41              	3.02471172e+02
42              	3.02510256e+02
43              	3.02544600e+02
44              	3.02577871e+02
45              	3.02609315e+02
46              	3.02642520e+02
47              	3.02676771e+02
48              	3.02712455e+02
49              	3.02749649e+02
50              	3.02787972e+02
51              	3.02825272e+02
52              	3.02863393e+02
53              	3.02902481e+02
54              	3.02940290e+02
55              	3.02975712e+02
56              	3.03013151e+02
57              	3.03046107e+02
58              	3.03073572e+02
59              	3.03096842e+02
60              	3.03117294e+02
61              	3.03137149e+02
62              	3.03157837e+02
63              	3.03183878e+02
64              	3.03212096e+02
65              	3.03238173e+02
66              	3.03263903e+02
67              	3.03289209e+02
68              	3.03314037e+02
69              	3.03338468e+02
70              	3.03361479e+02
71              	3.03384843e+02
72              	3.03407005e+02
73              	3.03428820e+02
74              	3.03450538e+02
75              	3.03471654e+02
76              	3.03492542e+02
77              	3.03512561e+02
78              	3.03532803e+02
79              	3.03551659e+02
80              	3.03570385e+02
81              	3.03588921e+02
82              	3.03607461e+02
83              	3.03626245e+02
84              	3.03644597e+02
85              	3.03663667e+02
86              	3.03681406e+02
87              	3.03698714e+02
88              	3.03715696e+02
89              	3.03732597e+02
90              	3.03748999e+02
91              	3.03764814e+02
92              	3.03780852e+02
93              	3.03795949e+02
94              	3.03811300e+02
95              	3.03826439e+02
96              	3.03841426e+02
97              	3.03856339e+02
98              	3.03871029e+02
99              	3.03886323e+02
100             	3.03900480e+02
101             	3.03914354e+02
102             	3.03927614e+02
103             	3.03940554e+02
104             	3.03952998e+02
105             	3.03965246e+02
106             	3.03977968e+02
107             	3.03990155e+02
108             	3.04002287e+02
109             	3.04014085e+02
110             	3.04025936e+02
111             	3.04037844e+02
112             	3.04049576e+02
113             	3.04060987e+02
114             	3.04071980e+02
115             	3.04083264e+02
116             	3.04093744e+02
117             	3.04104028e+02
118             	3.04114239e+02
119             	3.04124283e+02
120             	3.04134389e+02
121             	3.04144231e+02
122             	3.04154453e+02
123             	3.04164042e+02
124             	3.04173596e+02
125             	3.04182827e+02
126             	3.04191969e+02
127             	3.04201121e+02
128             	3.04210161e+02
129             	3.04219523e+02
130             	3.04228234e+02
131             	3.04236797e+02
132             	3.04245167e+02
133             	3.04253545e+02
134             	3.04261957e+02
135             	3.04270173e+02
136             	3.04278696e+02
137             	3.04286723e+02
138             	3.04294723e+02
139             	3.04302555e+02
140             	3.04310316e+02
141             	3.04317919e+02
142             	3.04325375e+02
143             	3.04332769e+02
144             	3.04339961e+02
145             	3.04347053e+02
146             	3.04353900e+02
147             	3.04360748e+02
148             	3.04367481e+02
149             	3.04374064e+02
150             	3.04380891e+02
151             	3.04387428e+02
152             	3.04393859e+02
153             	3.04400134e+02
154             	3.04406400e+02
155             	3.04412574e+02
156             	3.04418660e+02
157             	3.04424653e+02
158             	3.04430439e+02
159             	3.04436134e+02
160             	3.04441644e+02
161             	3.04447091e+02
162             	3.04452409e+02
163             	3.04457691e+02
164             	3.04462926e+02
165             	3.04468058e+02
166             	3.04473182e+02
167             	3.04478167e+02
168             	3.04483116e+02
169             	3.04487899e+02
170             	3.04492673e+02
171             	3.04497287e+02
172             	3.04501820e+02
173             	3.04506378e+02
174             	3.04510774e+02
175             	3.04515161e+02
176             	3.04519438e+02
177             	3.04523694e+02
178             	3.04527893e+02
179             	3.04531982e+02
180             	3.04536031e+02
181             	3.04539958e+02
182             	3.04543838e+02
183             	3.04547626e+02
184             	3.04551444e+02
185             	3.04555290e+02
186             	3.04559059e+02
187             	3.04562975e+02
188             	3.04566642e+02
189             	3.04570301e+02
190             	3.04573893e+02
191             	3.04577526e+02
192             	3.04581121e+02
193             	3.04584665e+02
194             	3.04588204e+02
195             	3.04591667e+02
196             	3.04595114e+02
197             	3.04598450e+02
198             	3.04601779e+02
199             	3.04605049e+02
200             	3.04608275e+02
201             	3.04611478e+02
202             	3.04614589e+02
203             	3.04617670e+02
204             	3.04620663e+02
205             	3.04623641e+02
206             	3.04626519e+02
207             	3.04629355e+02
208             	3.04632154e+02
209             	3.04634854e+02
210             	3.04637518e+02
211             	3.04640091e+02
212             	3.04642637e+02
213             	3.04645106e+02
214             	3.04647541e+02
215             	3.04649942e+02
216             	3.04652274e+02
217             	3.04654583e+02
218             	3.04656828e+02
219             	3.04659066e+02
220             	3.04661240e+02
221             	3.04663416e+02
222             	3.04665604e+02
223             	3.04667739e+02
224             	3.04669869e+02
225             	3.04671966e+02
226             	3.04674077e+02
227             	3.04676125e+02
228             	3.04678222e+02
229             	3.04680340e+02
230             	3.04682434e+02
231             	3.04684536e+02
232             	3.04686573e+02
233             	3.04688627e+02
234             	3.04690634e+02
235             	3.04692638e+02
236             	3.04694630e+02
237             	3.04696557e+02
238             	3.04698452e+02
239             	3.04700281e+02
240             	3.04702086e+02
241             	3.04703822e+02
242             	3.04705541e+02
243             	3.04707218e+02
244             	3.04708867e+02
245             	3.04710501e+02
246             	3.04712082e+02
247             	3.04713642e+02
248             	3.04715148e+02
249             	3.04716645e+02
250             	3.04718111e+02
251             	3.04719556e+02
252             	3.04720983e+02
253             	3.04722376e+02
254             	3.04723777e+02
255             	3.04725147e+02
256             	3.04726516e+02
257             	3.04727854e+02
258             	3.04729190e+02
259             	3.04730529e+02
260             	3.04731825e+02
261             	3.04733119e+02
262             	3.04734395e+02
263             	3.04735666e+02
264             	3.04736897e+02
265             	3.04738123e+02
266             	3.04739342e+02
267             	3.04740534e+02
268             	3.04741723e+02
269             	3.04742881e+02
270             	3.04744037e+02
271             	3.04745159e+02
272             	3.04746280e+02
273             	3.04747404e+02
274             	3.04748430e+02
275             	3.04749505e+02
276             	3.04750588e+02
277             	3.04751664e+02
278             	3.04752697e+02
279             	3.04753723e+02
280             	3.04754734e+02
281             	3.04755721e+02
282             	3.04756693e+02
283             	3.04757635e+02
284             	3.04758569e+02
285             	3.04759471e+02
286             	3.04760368e+02
287             	3.04761260e+02
288             	3.04762132e+02
289             	3.04762999e+02
290             	3.04763849e+02
291             	3.04764697e+02
292             	3.04765479e+02
293             	3.04766283e+02
294             	3.04767124e+02
295             	3.04767967e+02
296             	3.04768795e+02
297             	3.04769589e+02
298             	3.04770370e+02
299             	3.04771122e+02
300             	3.04771874e+02
301             	3.04772607e+02
302             	3.04773333e+02
303             	3.04774054e+02
304             	3.04774759e+02
305             	3.04775469e+02
306             	3.04776155e+02
307             	3.04776818e+02
308             	3.04777504e+02
309             	3.04778181e+02
310             	3.04778884e+02
311             	3.04779578e+02
312             	3.04780263e+02
313             	3.04780923e+02
314             	3.04781576e+02
315             	3.04782205e+02
316             	3.04782825e+02
317             	3.04783431e+02
318             	3.04784012e+02
319             	3.04784581e+02
320             	3.04785130e+02
321             	3.04785676e+02
322             	3.04786214e+02
323             	3.04786747e+02
324             	3.04787274e+02
325             	3.04787779e+02
326             	3.04788278e+02
327             	3.04788765e+02
328             	3.04789249e+02
329             	3.04789719e+02
330             	3.04790187e+02
331             	3.04790645e+02
332             	3.04791097e+02
333             	3.04791549e+02
334             	3.04791994e+02
335             	3.04792441e+02
336             	3.04792881e+02
337             	3.04793320e+02
338             	3.04793766e+02
339             	3.04794216e+02
340             	3.04794672e+02
341             	3.04795119e+02
342             	3.04795566e+02
343             	3.04796003e+02
344             	3.04796439e+02
345             	3.04796863e+02
346             	3.04797281e+02
347             	3.04797700e+02
348             	3.04798108e+02
349             	3.04798510e+02
350             	3.04798897e+02
351             	3.04799280e+02
352             	3.04799652e+02
353             	3.04800023e+02
354             	3.04800393e+02
355             	3.04800759e+02
356             	3.04801124e+02
357             	3.04801480e+02
358             	3.04801836e+02
359             	3.04802181e+02
360             	3.04802519e+02
361             	3.04802860e+02
362             	3.04803191e+02
363             	3.04803515e+02
364             	3.04803828e+02
365             	3.04804138e+02
366             	3.04804440e+02
367             	3.04804741e+02
368             	3.04805040e+02
369             	3.04805332e+02
370             	3.04805619e+02
371             	3.04805900e+02
372             	3.04806178e+02
373             	3.04806446e+02
374             	3.04806710e+02
375             	3.04806972e+02
376             	3.04807224e+02
377             	3.04807471e+02
378             	3.04807713e+02
379             	3.04807944e+02
380             	3.04808179e+02
381             	3.04808433e+02
382             	3.04808690e+02
383             	3.04808943e+02
384             	3.04809198e+02
385             	3.04809446e+02
386             	3.04809687e+02
387             	3.04809916e+02
388             	3.04810139e+02
389             	3.04810352e+02
390             	3.04810559e+02
391             	3.04810760e+02
392             	3.04810959e+02
393             	3.04811161e+02
394             	3.04811365e+02
395             	3.04811575e+02
396             	3.04811784e+02
397             	3.04811995e+02
398             	3.04812206e+02
399             	3.04812411e+02
400             	3.04812615e+02
401             	3.04812814e+02
402             	3.04813013e+02
403             	3.04813208e+02
404             	3.04813401e+02
405             	3.04813595e+02
406             	3.04813782e+02
407             	3.04813972e+02
408             	3.04814158e+02
409             	3.04814342e+02
410             	3.04814520e+02
411             	3.04814696e+02
412             	3.04814872e+02
413             	3.04815040e+02
414             	3.04815205e+02
415             	3.04815363e+02
416             	3.04815517e+02
417             	3.04815663e+02
418             	3.04815808e+02
419             	3.04815948e+02
420             	3.04816084e+02
421             	3.04816217e+02
422             	3.04816346e+02
423             	3.04816472e+02
424             	3.04816594e+02
425             	3.04816715e+02
426             	3.04816834e+02
427             	3.04816951e+02
428             	3.04817065e+02
429             	3.04817177e+02
430             	3.04817289e+02
431             	3.04817399e+02
432             	3.04817513e+02
433             	3.04817629e+02
434             	3.04817748e+02
435             	3.04817873e+02
436             	3.04817999e+02
437             	3.04818131e+02
438             	3.04818263e+02
439             	3.04818399e+02
440             	3.04818535e+02
441             	3.04818669e+02
442             	3.04818798e+02
443             	3.04818920e+02
444             	3.04819039e+02
445             	3.04819153e+02
446             	3.04819265e+02
447             	3.04819375e+02
448             	3.04819486e+02
449             	3.04819599e+02
450             	3.04819709e+02
451             	3.04819818e+02
452             	3.04819922e+02
453             	3.04820022e+02
454             	3.04820114e+02
455             	3.04820201e+02
456             	3.04820283e+02
457             	3.04820360e+02
458             	3.04820438e+02
459             	3.04820515e+02
460             	3.04820595e+02
461             	3.04820677e+02
462             	3.04820761e+02
463             	3.04820849e+02
464             	3.04820936e+02
465             	3.04821024e+02
466             	3.04821109e+02
467             	3.04821192e+02
468             	3.04821273e+02
469             	3.04821354e+02
470             	3.04821434e+02
471             	3.04821514e+02
472             	3.04821596e+02
473             	3.04821677e+02
474             	3.04821758e+02
475             	3.04821836e+02
476             	3.04821914e+02
477             	3.04821988e+02
478             	3.04822059e+02
479             	3.04822128e+02
480             	3.04822196e+02
481             	3.04822264e+02
482             	3.04822331e+02
483             	3.04822399e+02
484             	3.04822465e+02
485             	3.04822528e+02
486             	3.04822589e+02
487             	3.04822647e+02
488             	3.04822702e+02
489             	3.04822756e+02
490             	3.04822808e+02
491             	3.04822860e+02
492             	3.04822914e+02
493             	3.04822970e+02
494             	3.04823028e+02
495             	3.04823089e+02
496             	3.04823151e+02
497             	3.04823215e+02
498             	3.04823278e+02
499             	3.04823342e+02
500             	3.04823405e+02
501             	3.04823464e+02
502             	3.04823522e+02
503             	3.04823579e+02
504             	3.04823638e+02
505             	3.04823696e+02
506             	3.04823755e+02
507             	3.04823813e+02
508             	3.04823870e+02
509             	3.04823925e+02
510             	3.04823979e+02
511             	3.04824032e+02
512             	3.04824082e+02
513             	3.04824131e+02
514             	3.04824177e+02
515             	3.04824220e+02
516             	3.04824262e+02
517             	3.04824300e+02
518             	3.04824337e+02
519             	3.04824371e+02
520             	3.04824403e+02
521             	3.04824434e+02
522             	3.04824462e+02
523             	3.04824491e+02
524             	3.04824519e+02
525             	3.04824548e+02
526             	3.04824579e+02
527             	3.04824611e+02
528             	3.04824645e+02
529             	3.04824679e+02
530             	3.04824714e+02
531             	3.04824751e+02
532             	3.04824788e+02
533             	3.04824825e+02
534             	3.04824862e+02
535             	3.04824898e+02
536             	3.04824933e+02
537             	3.04824967e+02
538             	3.04824999e+02
539             	3.04825029e+02
540             	3.04825057e+02
541             	3.04825084e+02
542             	3.04825109e+02
543             	3.04825134e+02
544             	3.04825159e+02
545             	3.04825181e+02
546             	3.04825204e+02
547             	3.04825226e+02
548             	3.04825247e+02
549             	3.04825268e+02
550             	3.04825288e+02
551             	3.04825307e+02
552             	3.04825325e+02
553             	3.04825343e+02
554             	3.04825361e+02
555             	3.04825379e+02
556             	3.04825398e+02
557             	3.04825418e+02
558             	3.04825438e+02
559             	3.04825460e+02
560             	3.04825483e+02
561             	3.04825508e+02
562             	3.04825534e+02
563             	3.04825561e+02
564             	3.04825592e+02
565             	3.04825625e+02
566             	3.04825661e+02
567             	3.04825697e+02
568             	3.04825734e+02
569             	3.04825771e+02
570             	3.04825807e+02
571             	3.04825844e+02
572             	3.04825879e+02
573             	3.04825913e+02
574             	3.04825944e+02
575             	3.04825972e+02
576             	3.04825998e+02
577             	3.04826020e+02
578             	3.04826040e+02
579             	3.04826058e+02
580             	3.04826074e+02
581             	3.04826088e+02
582             	3.04826101e+02
583             	3.04826114e+02
584             	3.04826126e+02
585             	3.04826139e+02
586             	3.04826153e+02
587             	3.04826167e+02
588             	3.04826181e+02
589             	3.04826195e+02
590             	3.04826210e+02
591             	3.04826224e+02
592             	3.04826238e+02
593             	3.04826252e+02
594             	3.04826266e+02
595             	3.04826280e+02
596             	3.04826294e+02
597             	3.04826307e+02
598             	3.04826320e+02
599             	3.04826334e+02
600             	3.04826347e+02
601             	3.04826361e+02
602             	3.04826376e+02
603             	3.04826391e+02
604             	3.04826406e+02
605             	3.04826422e+02
606             	3.04826439e+02
607             	3.04826456e+02
608             	3.04826473e+02
609             	3.04826490e+02
610             	3.04826506e+02
611             	3.04826521e+02
612             	3.04826536e+02
613             	3.04826551e+02
614             	3.04826566e+02
615             	3.04826580e+02
616             	3.04826593e+02
617             	3.04826605e+02
618             	3.04826615e+02
619             	3.04826625e+02
620             	3.04826634e+02
621             	3.04826644e+02
