# Region        : cellZone component_4
# Cells         : 503
# Volume        : 1.08597614e+00
# Time          	volAverage(T)
1               	3.00339753e+02
2               	3.00676855e+02
3               	3.00999332e+02
4               	3.01313235e+02
5               	3.01622325e+02
6               	3.01927859e+02
7               	3.02230296e+02
8               	3.02530598e+02
9               	3.02829255e+02
10              	3.03126075e+02
11              	3.03421171e+02
12              	3.03714825e+02
13              	3.04007286e+02
14              	3.04298581e+02
15              	3.04588028e+02
16              	3.04877137e+02
17              	3.05164614e+02
18              	3.05450186e+02
19              	3.05733652e+02
20              	3.06015010e+02
21              	3.06294517e+02
22              	3.06572428e+02
23              	3.06849170e+02
24              	3.07124993e+02
25              	3.07399427e+02
26              	3.07671896e+02
27              	3.07942463e+02
28              	3.08211077e+02
29              	3.08477641e+02
30              	3.08741868e+02
31              	3.09003519e+02
32              	3.09262928e+02
33              	3.09521095e+02
34              	3.09777895e+02
35              	3.10033805e+02
36              	3.10288224e+02
37              	3.10541177e+02
38              	3.10792165e+02
39              	3.11041669e+02
40              	3.11289536e+02
41              	3.11535608e+02
42              	3.11780096e+02
43              	3.12022943e+02
44              	3.12264155e+02
45              	3.12503978e+02
46              	3.12742313e+02
47              	3.12979276e+02
48              	3.13214807e+02
49              	3.13448396e+02
50              	3.13679669e+02
51              	3.13907860e+02
52              	3.14133889e+02
53              	3.14358087e+02
54              	3.14581014e+02
55              	3.14802957e+02
56              	3.15024545e+02
57              	3.15245619e+02
58              	3.15465577e+02
59              	3.15683078e+02
60              	3.15897433e+02
61              	3.16108290e+02
62              	3.16315475e+02
63              	3.16518777e+02
64              	3.16718123e+02
65              	3.16914788e+02
66              	3.17109851e+02
67              	3.17304111e+02
68              	3.17498198e+02
69              	3.17692491e+02
70              	3.17885631e+02
71              	3.18078566e+02
72              	3.18269388e+02
73              	3.18457331e+02
74              	3.18642102e+02
75              	3.18823887e+02
76              	3.19003087e+02
77              	3.19179739e+02
78              	3.19354758e+02
79              	3.19528324e+02
80              	3.19700365e+02
81              	3.19871550e+02
82              	3.20041600e+02
83              	3.20210839e+02
84              	3.20378734e+02
85              	3.20545172e+02
86              	3.20710330e+02
87              	3.20874168e+02
88              	3.21036229e+02
89              	3.21196705e+02
90              	3.21355176e+02
91              	3.21511735e+02
92              	3.21666267e+02
93              	3.21819018e+02
94              	3.21969807e+02
95              	3.22119007e+02
96              	3.22266373e+02
97              	3.22412405e+02
98              	3.22556434e+02
99              	3.22699489e+02
100             	3.22841194e+02
101             	3.22981541e+02
102             	3.23120484e+02
103             	3.23258324e+02
104             	3.23394818e+02
105             	3.23530529e+02
106             	3.23665507e+02
107             	3.23799789e+02
108             	3.23933115e+02
109             	3.24065564e+02
110             	3.24196868e+02
111             	3.24326869e+02
112             	3.24455491e+02
113             	3.24582641e+02
114             	3.24708281e+02
115             	3.24832533e+02
116             	3.24955306e+02
117             	3.25076688e+02
118             	3.25196760e+02
119             	3.25315589e+02
120             	3.25433220e+02
121             	3.25549683e+02
122             	3.25665002e+02
123             	3.25779184e+02
124             	3.25892226e+02
125             	3.26004018e+02
126             	3.26114761e+02
127             	3.26224318e+02
128             	3.26332758e+02
129             	3.26440301e+02
130             	3.26546539e+02
131             	3.26652059e+02
132             	3.26756589e+02
133             	3.26860136e+02
134             	3.26962773e+02
135             	3.27064524e+02
136             	3.27165404e+02
137             	3.27265417e+02
138             	3.27364599e+02
139             	3.27462827e+02
140             	3.27560009e+02
141             	3.27656501e+02
142             	3.27752202e+02
143             	3.27847026e+02
144             	3.27940994e+02
145             	3.28034057e+02
146             	3.28126169e+02
147             	3.28217303e+02
148             	3.28307435e+02
149             	3.28396585e+02
150             	3.28484751e+02
151             	3.28571934e+02
152             	3.28658245e+02
153             	3.28743659e+02
154             	3.28828224e+02
155             	3.28911964e+02
156             	3.28994931e+02
157             	3.29077155e+02
158             	3.29158635e+02
159             	3.29239429e+02
160             	3.29319532e+02
161             	3.29398938e+02
162             	3.29477656e+02
163             	3.29555665e+02
164             	3.29632939e+02
165             	3.29709512e+02
166             	3.29785384e+02
167             	3.29860554e+02
168             	3.29935006e+02
169             	3.30008804e+02
170             	3.30081844e+02
171             	3.30154311e+02
172             	3.30226037e+02
173             	3.30297153e+02
174             	3.30367634e+02
175             	3.30437455e+02
176             	3.30506657e+02
177             	3.30575305e+02
178             	3.30643292e+02
179             	3.30710635e+02
180             	3.30777334e+02
181             	3.30843386e+02
182             	3.30908810e+02
183             	3.30973643e+02
184             	3.31037870e+02
185             	3.31101502e+02
186             	3.31164567e+02
187             	3.31227079e+02
188             	3.31289062e+02
189             	3.31350538e+02
190             	3.31411317e+02
191             	3.31471354e+02
192             	3.31530658e+02
193             	3.31589251e+02
194             	3.31647194e+02
195             	3.31704659e+02
196             	3.31761653e+02
197             	3.31818184e+02
198             	3.31874227e+02
199             	3.31929766e+02
200             	3.31984815e+02
201             	3.32039387e+02
202             	3.32093498e+02
203             	3.32147148e+02
204             	3.32200317e+02
205             	3.32253026e+02
206             	3.32305278e+02
207             	3.32357070e+02
208             	3.32408402e+02
209             	3.32459252e+02
210             	3.32509634e+02
211             	3.32559560e+02
212             	3.32609022e+02
213             	3.32658006e+02
214             	3.32706488e+02
215             	3.32754483e+02
216             	3.32801973e+02
217             	3.32848970e+02
218             	3.32895493e+02
219             	3.32941543e+02
220             	3.32987134e+02
221             	3.33032421e+02
222             	3.33077255e+02
223             	3.33121704e+02
224             	3.33165800e+02
225             	3.33209566e+02
226             	3.33253018e+02
227             	3.33296064e+02
228             	3.33338840e+02
229             	3.33381388e+02
230             	3.33423697e+02
231             	3.33465837e+02
232             	3.33507752e+02
233             	3.33549379e+02
234             	3.33590658e+02
235             	3.33631527e+02
236             	3.33672006e+02
237             	3.33712107e+02
238             	3.33751843e+02
239             	3.33791244e+02
240             	3.33830313e+02
241             	3.33869152e+02
242             	3.33907779e+02
243             	3.33946243e+02
244             	3.33984569e+02
245             	3.34022639e+02
246             	3.34060468e+02
247             	3.34098026e+02
248             	3.34135349e+02
249             	3.34172452e+02
250             	3.34209337e+02
251             	3.34246010e+02
252             	3.34282396e+02
253             	3.34318598e+02
254             	3.34354576e+02
255             	3.34390294e+02
256             	3.34425720e+02
257             	3.34460848e+02
258             	3.34495650e+02
259             	3.34530117e+02
260             	3.34564240e+02
261             	3.34598020e+02
262             	3.34631450e+02
263             	3.34664556e+02
264             	3.34697329e+02
265             	3.34729787e+02
266             	3.34761976e+02
267             	3.34793950e+02
268             	3.34825706e+02
269             	3.34857263e+02
270             	3.34888631e+02
271             	3.34919810e+02
272             	3.34950799e+02
273             	3.34981584e+02
274             	3.35012146e+02
275             	3.35042481e+02
276             	3.35072571e+02
277             	3.35102452e+02
278             	3.35132140e+02
279             	3.35161669e+02
280             	3.35191062e+02
281             	3.35220347e+02
282             	3.35249493e+02
283             	3.35278564e+02
284             	3.35307509e+02
285             	3.35336316e+02
286             	3.35364969e+02
287             	3.35393460e+02
288             	3.35421783e+02
289             	3.35449927e+02
290             	3.35477892e+02
291             	3.35505698e+02
292             	3.35533343e+02
293             	3.35560821e+02
294             	3.35588128e+02
295             	3.35615268e+02
296             	3.35642162e+02
297             	3.35668927e+02
298             	3.35695556e+02
299             	3.35722029e+02
300             	3.35748322e+02
301             	3.35774417e+02
302             	3.35800312e+02
303             	3.35825956e+02
304             	3.35851361e+02
305             	3.35876534e+02
306             	3.35901483e+02
307             	3.35926210e+02
308             	3.35950716e+02
309             	3.35975157e+02
310             	3.35999532e+02
311             	3.36023940e+02
312             	3.36048439e+02
313             	3.36072964e+02
314             	3.36097432e+02
315             	3.36121744e+02
316             	3.36145762e+02
317             	3.36169380e+02
318             	3.36192524e+02
319             	3.36215260e+02
320             	3.36237742e+02
321             	3.36259845e+02
322             	3.36281785e+02
323             	3.36303741e+02
324             	3.36325807e+02
325             	3.36348109e+02
326             	3.36370580e+02
327             	3.36393069e+02
328             	3.36415611e+02
329             	3.36438231e+02
330             	3.36460731e+02
331             	3.36482935e+02
332             	3.36504708e+02
333             	3.36526010e+02
334             	3.36546847e+02
335             	3.36567261e+02
336             	3.36587338e+02
337             	3.36607285e+02
338             	3.36627245e+02
339             	3.36647196e+02
340             	3.36667258e+02
341             	3.36687535e+02
342             	3.36707931e+02
343             	3.36728556e+02
344             	3.36749400e+02
345             	3.36770181e+02
346             	3.36790938e+02
347             	3.36811566e+02
348             	3.36831937e+02
349             	3.36851977e+02
350             	3.36871662e+02
351             	3.36891024e+02
352             	3.36909980e+02
353             	3.36928614e+02
354             	3.36946983e+02
355             	3.36965197e+02
356             	3.36983341e+02
357             	3.37001632e+02
358             	3.37020124e+02
359             	3.37038813e+02
360             	3.37057691e+02
361             	3.37076685e+02
362             	3.37095701e+02
363             	3.37114679e+02
364             	3.37133397e+02
365             	3.37151796e+02
366             	3.37169888e+02
367             	3.37187694e+02
368             	3.37205274e+02
369             	3.37222718e+02
370             	3.37240075e+02
371             	3.37257340e+02
372             	3.37274524e+02
373             	3.37291625e+02
374             	3.37308509e+02
375             	3.37325167e+02
376             	3.37341597e+02
377             	3.37357819e+02
378             	3.37373903e+02
379             	3.37389913e+02
380             	3.37405986e+02
381             	3.37422150e+02
382             	3.37438456e+02
383             	3.37454932e+02
384             	3.37471593e+02
385             	3.37488387e+02
386             	3.37505261e+02
387             	3.37522167e+02
388             	3.37538992e+02
389             	3.37555775e+02
390             	3.37572449e+02
391             	3.37589042e+02
392             	3.37605496e+02
393             	3.37621807e+02
394             	3.37637938e+02
395             	3.37653979e+02
396             	3.37669928e+02
397             	3.37685768e+02
398             	3.37701488e+02
399             	3.37717106e+02
400             	3.37732582e+02
401             	3.37747857e+02
402             	3.37762952e+02
403             	3.37777848e+02
404             	3.37792560e+02
405             	3.37807145e+02
406             	3.37821672e+02
407             	3.37836221e+02
408             	3.37850868e+02
409             	3.37865635e+02
410             	3.37880532e+02
411             	3.37895548e+02
412             	3.37910587e+02
413             	3.37925599e+02
414             	3.37940542e+02
415             	3.37955410e+02
416             	3.37970198e+02
417             	3.37984903e+02
418             	3.37999529e+02
419             	3.38014099e+02
420             	3.38028569e+02
421             	3.38042986e+02
422             	3.38057320e+02
423             	3.38071558e+02
424             	3.38085692e+02
425             	3.38099690e+02
426             	3.38113524e+02
427             	3.38127175e+02
428             	3.38140651e+02
429             	3.38153978e+02
430             	3.38167153e+02
431             	3.38180254e+02
432             	3.38193296e+02
433             	3.38206329e+02
434             	3.38219379e+02
435             	3.38232437e+02
436             	3.38245490e+02
437             	3.38258541e+02
438             	3.38271577e+02
439             	3.38284615e+02
440             	3.38297654e+02
441             	3.38310721e+02
442             	3.38323771e+02
443             	3.38336840e+02
444             	3.38349914e+02
445             	3.38362987e+02
446             	3.38376067e+02
447             	3.38389166e+02
448             	3.38402242e+02
449             	3.38415293e+02
450             	3.38428314e+02
451             	3.38441293e+02
452             	3.38454232e+02
453             	3.38467117e+02
454             	3.38479961e+02
455             	3.38492760e+02
456             	3.38505513e+02
457             	3.38518225e+02
458             	3.38530879e+02
459             	3.38543475e+02
460             	3.38556010e+02
461             	3.38568485e+02
462             	3.38580895e+02
463             	3.38593236e+02
464             	3.38605505e+02
465             	3.38617700e+02
466             	3.38629820e+02
467             	3.38641866e+02
468             	3.38653835e+02
469             	3.38665705e+02
470             	3.38677479e+02
471             	3.38689154e+02
472             	3.38700719e+02
473             	3.38712193e+02
474             	3.38723572e+02
475             	3.38734874e+02
476             	3.38746096e+02
477             	3.38757243e+02
478             	3.38768326e+02
479             	3.38779367e+02
480             	3.38790393e+02
481             	3.38801411e+02
482             	3.38812443e+02
483             	3.38823505e+02
484             	3.38834583e+02
485             	3.38845674e+02
486             	3.38856807e+02
487             	3.38867973e+02
488             	3.38879168e+02
489             	3.38890396e+02
490             	3.38901645e+02
491             	3.38912901e+02
492             	3.38924137e+02
493             	3.38935346e+02
494             	3.38946519e+02
495             	3.38957653e+02
496             	3.38968748e+02
497             	3.38979813e+02
498             	3.38990853e+02
499             	3.39001874e+02
500             	3.39012881e+02
501             	3.39023876e+02
502             	3.39034857e+02
503             	3.39045826e+02
504             	3.39056777e+02
505             	3.39067716e+02
506             	3.39078635e+02
507             	3.39089532e+02
508             	3.39100398e+02
509             	3.39111228e+02
510             	3.39122015e+02
511             	3.39132760e+02
512             	3.39143470e+02
513             	3.39154133e+02
514             	3.39164760e+02
515             	3.39175322e+02
516             	3.39185812e+02
517             	3.39196223e+02
518             	3.39206561e+02
519             	3.39216819e+02
520             	3.39227017e+02
521             	3.39237165e+02
522             	3.39247254e+02
523             	3.39257295e+02
524             	3.39267302e+02
525             	3.39277320e+02
526             	3.39287305e+02
527             	3.39297264e+02
528             	3.39307197e+02
529             	3.39317094e+02
530             	3.39326958e+02
531             	3.39336797e+02
532             	3.39346628e+02
533             	3.39356466e+02
534             	3.39366318e+02
535             	3.39376194e+02
536             	3.39386096e+02
537             	3.39396020e+02
538             	3.39405957e+02
539             	3.39415911e+02
540             	3.39425867e+02
541             	3.39435807e+02
542             	3.39445712e+02
543             	3.39455580e+02
544             	3.39465399e+02
545             	3.39475164e+02
546             	3.39484877e+02
547             	3.39494538e+02
548             	3.39504155e+02
549             	3.39513709e+02
550             	3.39523215e+02
551             	3.39532685e+02
552             	3.39542122e+02
553             	3.39551533e+02
554             	3.39560925e+02
555             	3.39570297e+02
556             	3.39579649e+02
557             	3.39588976e+02
558             	3.39598273e+02
559             	3.39607540e+02
560             	3.39616778e+02
561             	3.39625998e+02
562             	3.39635188e+02
563             	3.39644348e+02
564             	3.39653480e+02
565             	3.39662592e+02
566             	3.39671683e+02
567             	3.39680757e+02
568             	3.39689820e+02
569             	3.39698875e+02
570             	3.39707928e+02
571             	3.39716980e+02
572             	3.39726053e+02
573             	3.39735134e+02
574             	3.39744220e+02
575             	3.39753313e+02
576             	3.39762413e+02
577             	3.39771507e+02
578             	3.39780574e+02
579             	3.39789651e+02
580             	3.39798738e+02
581             	3.39807840e+02
582             	3.39816960e+02
583             	3.39826099e+02
584             	3.39835255e+02
585             	3.39844422e+02
586             	3.39853590e+02
587             	3.39862751e+02
588             	3.39871893e+02
589             	3.39881008e+02
590             	3.39890065e+02
591             	3.39899058e+02
592             	3.39907974e+02
593             	3.39916836e+02
594             	3.39925664e+02
595             	3.39934468e+02
596             	3.39943256e+02
597             	3.39952037e+02
598             	3.39960813e+02
599             	3.39969585e+02
600             	3.39978348e+02
601             	3.39987093e+02
602             	3.39995813e+02
603             	3.40004501e+02
604             	3.40013149e+02
605             	3.40021750e+02
606             	3.40030300e+02
607             	3.40038795e+02
608             	3.40047231e+02
609             	3.40055607e+02
610             	3.40063928e+02
611             	3.40072197e+02
612             	3.40080426e+02
613             	3.40088621e+02
614             	3.40096787e+02
615             	3.40104930e+02
616             	3.40113056e+02
617             	3.40121170e+02
618             	3.40129277e+02
619             	3.40137382e+02
620             	3.40145483e+02
621             	3.40153605e+02
