# Region        : cellZone fluid
# Cells         : 9123
# Volume        : 1.76517180e+01
# Time          	volAverage(T)
1               	3.00000031e+02
2               	3.00000073e+02
3               	3.00000408e+02
4               	3.00000960e+02
5               	3.00001380e+02
6               	3.00001868e+02
7               	3.00002380e+02
8               	3.00002948e+02
9               	3.00003756e+02
10              	3.00004609e+02
11              	3.00005553e+02
12              	3.00006608e+02
13              	3.00007929e+02
14              	3.00009533e+02
15              	3.00010651e+02
16              	3.00011510e+02
17              	3.00012824e+02
18              	3.00013783e+02
19              	3.00015058e+02
20              	3.00016916e+02
21              	3.00018701e+02
22              	3.00020477e+02
23              	3.00022655e+02
24              	3.00024410e+02
25              	3.00026484e+02
26              	3.00028053e+02
27              	3.00029590e+02
28              	3.00031296e+02
29              	3.00032832e+02
30              	3.00034745e+02
31              	3.00036566e+02
32              	3.00039049e+02
33              	3.00041413e+02
34              	3.00043775e+02
35              	3.00046131e+02
36              	3.00048664e+02
37              	3.00051140e+02
38              	3.00053584e+02
39              	3.00056009e+02
40              	3.00058321e+02
41              	3.00060694e+02
42              	3.00062189e+02
43              	3.00064907e+02
44              	3.00066737e+02
45              	3.00068725e+02
46              	3.00071122e+02
47              	3.00073172e+02
48              	3.00075836e+02
49              	3.00078304e+02
50              	3.00080564e+02
51              	3.00082604e+02
52              	3.00084672e+02
53              	3.00086605e+02
54              	3.00089000e+02
55              	3.00092390e+02
56              	3.00094697e+02
57              	3.00096572e+02
58              	3.00098533e+02
59              	3.00100495e+02
60              	3.00103257e+02
61              	3.00105505e+02
62              	3.00107513e+02
63              	3.00109677e+02
64              	3.00111242e+02
65              	3.00113663e+02
66              	3.00115210e+02
67              	3.00117356e+02
68              	3.00119450e+02
69              	3.00121658e+02
70              	3.00123629e+02
71              	3.00124961e+02
72              	3.00126458e+02
73              	3.00128240e+02
74              	3.00130125e+02
75              	3.00132726e+02
76              	3.00133839e+02
77              	3.00135125e+02
78              	3.00136045e+02
79              	3.00138234e+02
80              	3.00139567e+02
81              	3.00141722e+02
82              	3.00144540e+02
83              	3.00146944e+02
84              	3.00148814e+02
85              	3.00150805e+02
86              	3.00152423e+02
87              	3.00153750e+02
88              	3.00155259e+02
89              	3.00156052e+02
90              	3.00157165e+02
91              	3.00158336e+02
92              	3.00159643e+02
93              	3.00160919e+02
94              	3.00162350e+02
95              	3.00164077e+02
96              	3.00166524e+02
97              	3.00168144e+02
98              	3.00170169e+02
99              	3.00172092e+02
100             	3.00173148e+02
101             	3.00174060e+02
102             	3.00174616e+02
103             	3.00175006e+02
104             	3.00176493e+02
105             	3.00177869e+02
106             	3.00178394e+02
107             	3.00179794e+02
108             	3.00180624e+02
109             	3.00181773e+02
110             	3.00182721e+02
111             	3.00183554e+02
112             	3.00184726e+02
113             	3.00185765e+02
114             	3.00186685e+02
115             	3.00187487e+02
116             	3.00188859e+02
117             	3.00190033e+02
118             	3.00191197e+02
119             	3.00192565e+02
120             	3.00193262e+02
121             	3.00193613e+02
122             	3.00194168e+02
123             	3.00194137e+02
124             	3.00194478e+02
125             	3.00194945e+02
126             	3.00195483e+02
127             	3.00196184e+02
128             	3.00196668e+02
129             	3.00197560e+02
130             	3.00198304e+02
131             	3.00198917e+02
132             	3.00199461e+02
133             	3.00199877e+02
134             	3.00200270e+02
135             	3.00200576e+02
136             	3.00200823e+02
137             	3.00201697e+02
138             	3.00201765e+02
139             	3.00201994e+02
140             	3.00202351e+02
141             	3.00202723e+02
142             	3.00203095e+02
143             	3.00203498e+02
144             	3.00203871e+02
145             	3.00204188e+02
146             	3.00204497e+02
147             	3.00204819e+02
148             	3.00205190e+02
149             	3.00205519e+02
150             	3.00205885e+02
151             	3.00206268e+02
152             	3.00206396e+02
153             	3.00206671e+02
154             	3.00207026e+02
155             	3.00207250e+02
156             	3.00207447e+02
157             	3.00207654e+02
158             	3.00207818e+02
159             	3.00208143e+02
160             	3.00208624e+02
161             	3.00208476e+02
162             	3.00208582e+02
163             	3.00208613e+02
164             	3.00208703e+02
165             	3.00208813e+02
166             	3.00208908e+02
167             	3.00208987e+02
168             	3.00209283e+02
169             	3.00209492e+02
170             	3.00209625e+02
171             	3.00209538e+02
172             	3.00209614e+02
173             	3.00209769e+02
174             	3.00209829e+02
175             	3.00209590e+02
176             	3.00209437e+02
177             	3.00209383e+02
178             	3.00209413e+02
179             	3.00209348e+02
180             	3.00209342e+02
181             	3.00209308e+02
182             	3.00209220e+02
183             	3.00209130e+02
184             	3.00209049e+02
185             	3.00209076e+02
186             	3.00209017e+02
187             	3.00208874e+02
188             	3.00208682e+02
189             	3.00208483e+02
190             	3.00208440e+02
191             	3.00208390e+02
192             	3.00208346e+02
193             	3.00208116e+02
194             	3.00207886e+02
195             	3.00207790e+02
196             	3.00207677e+02
197             	3.00207531e+02
198             	3.00207421e+02
199             	3.00207262e+02
200             	3.00207209e+02
201             	3.00207001e+02
202             	3.00206732e+02
203             	3.00206602e+02
204             	3.00206424e+02
205             	3.00206196e+02
206             	3.00205951e+02
207             	3.00205792e+02
208             	3.00205721e+02
209             	3.00205692e+02
210             	3.00205363e+02
211             	3.00205111e+02
212             	3.00204912e+02
213             	3.00204723e+02
214             	3.00204558e+02
215             	3.00204433e+02
216             	3.00204260e+02
217             	3.00204053e+02
218             	3.00203745e+02
219             	3.00203559e+02
220             	3.00203387e+02
221             	3.00203224e+02
222             	3.00203033e+02
223             	3.00202851e+02
224             	3.00202714e+02
225             	3.00202703e+02
226             	3.00202528e+02
227             	3.00202283e+02
228             	3.00202089e+02
229             	3.00201923e+02
230             	3.00201808e+02
231             	3.00201672e+02
232             	3.00201455e+02
233             	3.00201254e+02
234             	3.00201109e+02
235             	3.00200997e+02
236             	3.00200988e+02
237             	3.00200978e+02
238             	3.00200843e+02
239             	3.00200624e+02
240             	3.00200475e+02
241             	3.00200363e+02
242             	3.00200234e+02
243             	3.00200147e+02
244             	3.00200078e+02
245             	3.00200152e+02
246             	3.00200006e+02
247             	3.00199891e+02
248             	3.00199790e+02
249             	3.00199702e+02
250             	3.00199610e+02
251             	3.00199573e+02
252             	3.00199504e+02
253             	3.00199444e+02
254             	3.00199405e+02
255             	3.00199388e+02
256             	3.00199375e+02
257             	3.00199329e+02
258             	3.00199211e+02
259             	3.00199220e+02
260             	3.00199214e+02
261             	3.00199176e+02
262             	3.00199136e+02
263             	3.00199100e+02
264             	3.00199101e+02
265             	3.00199179e+02
266             	3.00199081e+02
267             	3.00199027e+02
268             	3.00198973e+02
269             	3.00198918e+02
270             	3.00198892e+02
271             	3.00198855e+02
272             	3.00198821e+02
273             	3.00198810e+02
274             	3.00198692e+02
275             	3.00198678e+02
276             	3.00198753e+02
277             	3.00198762e+02
278             	3.00198749e+02
279             	3.00198736e+02
280             	3.00198720e+02
281             	3.00198648e+02
282             	3.00198580e+02
283             	3.00198626e+02
284             	3.00198457e+02
285             	3.00198405e+02
286             	3.00198358e+02
287             	3.00198323e+02
288             	3.00198344e+02
289             	3.00198287e+02
290             	3.00198339e+02
291             	3.00198282e+02
292             	3.00198243e+02
293             	3.00198194e+02
294             	3.00198153e+02
295             	3.00198195e+02
296             	3.00198188e+02
297             	3.00198142e+02
298             	3.00198137e+02
299             	3.00198127e+02
300             	3.00198087e+02
301             	3.00198103e+02
302             	3.00198008e+02
303             	3.00197998e+02
304             	3.00197961e+02
305             	3.00197899e+02
306             	3.00197890e+02
307             	3.00197950e+02
308             	3.00197945e+02
309             	3.00197894e+02
310             	3.00197814e+02
311             	3.00197770e+02
312             	3.00197742e+02
313             	3.00197718e+02
314             	3.00197733e+02
315             	3.00197673e+02
316             	3.00197630e+02
317             	3.00197596e+02
318             	3.00197531e+02
319             	3.00197563e+02
320             	3.00197586e+02
321             	3.00197595e+02
322             	3.00197605e+02
323             	3.00197613e+02
324             	3.00197580e+02
325             	3.00197538e+02
326             	3.00197523e+02
327             	3.00197525e+02
328             	3.00197502e+02
329             	3.00197436e+02
330             	3.00197414e+02
331             	3.00197413e+02
332             	3.00197402e+02
333             	3.00197453e+02
334             	3.00197462e+02
335             	3.00197466e+02
336             	3.00197476e+02
337             	3.00197461e+02
338             	3.00197429e+02
339             	3.00197403e+02
340             	3.00197394e+02
341             	3.00197408e+02
342             	3.00197383e+02
343             	3.00197368e+02
344             	3.00197363e+02
345             	3.00197362e+02
346             	3.00197342e+02
347             	3.00197366e+02
348             	3.00197367e+02
349             	3.00197375e+02
350             	3.00197362e+02
351             	3.00197339e+02
352             	3.00197322e+02
353             	3.00197297e+02
354             	3.00197286e+02
355             	3.00197283e+02
356             	3.00197271e+02
357             	3.00197229e+02
358             	3.00197206e+02
359             	3.00197196e+02
360             	3.00197202e+02
361             	3.00197164e+02
362             	3.00197176e+02
363             	3.00197200e+02
364             	3.00197183e+02
365             	3.00197197e+02
366             	3.00197192e+02
367             	3.00197176e+02
368             	3.00197159e+02
369             	3.00197146e+02
370             	3.00197139e+02
371             	3.00197127e+02
372             	3.00197131e+02
373             	3.00197118e+02
374             	3.00197095e+02
375             	3.00197071e+02
376             	3.00197068e+02
377             	3.00197061e+02
378             	3.00197052e+02
379             	3.00197049e+02
380             	3.00197056e+02
381             	3.00197062e+02
382             	3.00197058e+02
383             	3.00197021e+02
384             	3.00197027e+02
385             	3.00197010e+02
386             	3.00197017e+02
387             	3.00197027e+02
388             	3.00197017e+02
389             	3.00197007e+02
390             	3.00196999e+02
391             	3.00197003e+02
392             	3.00197001e+02
393             	3.00196998e+02
394             	3.00196987e+02
395             	3.00196982e+02
396             	3.00196965e+02
397             	3.00196963e+02
398             	3.00196957e+02
399             	3.00196950e+02
400             	3.00196948e+02
401             	3.00196944e+02
402             	3.00196940e+02
403             	3.00196948e+02
404             	3.00196951e+02
405             	3.00196952e+02
406             	3.00196949e+02
407             	3.00196943e+02
408             	3.00196943e+02
409             	3.00196950e+02
410             	3.00196948e+02
411             	3.00196951e+02
412             	3.00196954e+02
413             	3.00196964e+02
414             	3.00196965e+02
415             	3.00196964e+02
416             	3.00196962e+02
417             	3.00196959e+02
418             	3.00196968e+02
419             	3.00196971e+02
420             	3.00196972e+02
421             	3.00196969e+02
422             	3.00196959e+02
423             	3.00196964e+02
424             	3.00196968e+02
425             	3.00196968e+02
426             	3.00196968e+02
427             	3.00196966e+02
428             	3.00196973e+02
429             	3.00196972e+02
430             	3.00196967e+02
431             	3.00196961e+02
432             	3.00196966e+02
433             	3.00196975e+02
434             	3.00196975e+02
435             	3.00196972e+02
436             	3.00196968e+02
437             	3.00196963e+02
438             	3.00196967e+02
439             	3.00196964e+02
440             	3.00196965e+02
441             	3.00196958e+02
442             	3.00196945e+02
443             	3.00196948e+02
444             	3.00196947e+02
445             	3.00196944e+02
446             	3.00196940e+02
447             	3.00196934e+02
448             	3.00196938e+02
449             	3.00196930e+02
450             	3.00196932e+02
451             	3.00196928e+02
452             	3.00196926e+02
453             	3.00196932e+02
454             	3.00196932e+02
455             	3.00196930e+02
456             	3.00196925e+02
457             	3.00196920e+02
458             	3.00196924e+02
459             	3.00196923e+02
460             	3.00196924e+02
461             	3.00196915e+02
462             	3.00196909e+02
463             	3.00196905e+02
464             	3.00196912e+02
465             	3.00196912e+02
466             	3.00196909e+02
467             	3.00196906e+02
468             	3.00196903e+02
469             	3.00196910e+02
470             	3.00196911e+02
471             	3.00196907e+02
472             	3.00196907e+02
473             	3.00196906e+02
474             	3.00196912e+02
475             	3.00196915e+02
476             	3.00196915e+02
477             	3.00196916e+02
478             	3.00196914e+02
479             	3.00196921e+02
480             	3.00196921e+02
481             	3.00196920e+02
482             	3.00196918e+02
483             	3.00196916e+02
484             	3.00196925e+02
485             	3.00196925e+02
486             	3.00196922e+02
487             	3.00196921e+02
488             	3.00196919e+02
489             	3.00196928e+02
490             	3.00196931e+02
491             	3.00196930e+02
492             	3.00196930e+02
493             	3.00196930e+02
494             	3.00196938e+02
495             	3.00196936e+02
496             	3.00196935e+02
497             	3.00196935e+02
498             	3.00196933e+02
499             	3.00196940e+02
500             	3.00196941e+02
501             	3.00196939e+02
502             	3.00196939e+02
503             	3.00196935e+02
504             	3.00196941e+02
505             	3.00196943e+02
506             	3.00196944e+02
507             	3.00196939e+02
508             	3.00196935e+02
509             	3.00196940e+02
510             	3.00196941e+02
511             	3.00196940e+02
512             	3.00196938e+02
513             	3.00196935e+02
514             	3.00196942e+02
515             	3.00196944e+02
516             	3.00196939e+02
517             	3.00196938e+02
518             	3.00196936e+02
519             	3.00196942e+02
520             	3.00196943e+02
521             	3.00196940e+02
522             	3.00196936e+02
523             	3.00196933e+02
524             	3.00196939e+02
525             	3.00196940e+02
526             	3.00196937e+02
527             	3.00196934e+02
528             	3.00196931e+02
529             	3.00196937e+02
530             	3.00196938e+02
531             	3.00196935e+02
532             	3.00196933e+02
533             	3.00196929e+02
534             	3.00196935e+02
535             	3.00196934e+02
536             	3.00196932e+02
537             	3.00196929e+02
538             	3.00196926e+02
539             	3.00196932e+02
540             	3.00196933e+02
541             	3.00196931e+02
542             	3.00196929e+02
543             	3.00196926e+02
544             	3.00196933e+02
545             	3.00196933e+02
546             	3.00196932e+02
547             	3.00196930e+02
548             	3.00196927e+02
549             	3.00196934e+02
550             	3.00196936e+02
551             	3.00196934e+02
552             	3.00196933e+02
553             	3.00196929e+02
554             	3.00196936e+02
555             	3.00196938e+02
556             	3.00196936e+02
557             	3.00196934e+02
558             	3.00196933e+02
559             	3.00196940e+02
560             	3.00196942e+02
561             	3.00196941e+02
562             	3.00196939e+02
563             	3.00196936e+02
564             	3.00196943e+02
565             	3.00196946e+02
566             	3.00196945e+02
567             	3.00196943e+02
568             	3.00196941e+02
569             	3.00196949e+02
570             	3.00196950e+02
571             	3.00196948e+02
572             	3.00196947e+02
573             	3.00196943e+02
574             	3.00196950e+02
575             	3.00196951e+02
576             	3.00196949e+02
577             	3.00196947e+02
578             	3.00196944e+02
579             	3.00196952e+02
580             	3.00196953e+02
581             	3.00196951e+02
582             	3.00196949e+02
583             	3.00196947e+02
584             	3.00196954e+02
585             	3.00196955e+02
586             	3.00196952e+02
587             	3.00196949e+02
588             	3.00196946e+02
589             	3.00196953e+02
590             	3.00196954e+02
591             	3.00196952e+02
592             	3.00196950e+02
593             	3.00196947e+02
594             	3.00196954e+02
595             	3.00196955e+02
596             	3.00196953e+02
597             	3.00196950e+02
598             	3.00196947e+02
599             	3.00196954e+02
600             	3.00196955e+02
601             	3.00196953e+02
602             	3.00196950e+02
603             	3.00196947e+02
604             	3.00196954e+02
605             	3.00196955e+02
606             	3.00196953e+02
607             	3.00196950e+02
608             	3.00196947e+02
609             	3.00196954e+02
610             	3.00196955e+02
611             	3.00196954e+02
612             	3.00196951e+02
613             	3.00196948e+02
614             	3.00196955e+02
615             	3.00196956e+02
616             	3.00196954e+02
617             	3.00196951e+02
618             	3.00196949e+02
619             	3.00196956e+02
620             	3.00196957e+02
621             	3.00196955e+02
