# Region        : cellZone component_3
# Cells         : 4
# Volume        : 5.05787133e-03
# Time          	volAverage(T)
1               	3.65699360e+02
2               	4.28476535e+02
3               	4.64103210e+02
4               	4.84626028e+02
5               	5.02697697e+02
6               	5.21958059e+02
7               	5.41507479e+02
8               	5.61041644e+02
9               	5.79188348e+02
10              	5.94215462e+02
11              	6.00000000e+02
12              	6.00000000e+02
13              	6.00000000e+02
14              	5.99683751e+02
15              	5.98235124e+02
16              	5.94532679e+02
17              	5.91473535e+02
18              	5.89524631e+02
19              	5.87942531e+02
20              	5.85732828e+02
21              	5.84092354e+02
22              	5.82386581e+02
23              	5.81996352e+02
24              	5.82993440e+02
25              	5.85346213e+02
26              	5.88130969e+02
27              	5.90879860e+02
28              	5.93233881e+02
29              	5.95555377e+02
30              	5.97941223e+02
31              	5.99929731e+02
32              	6.00000000e+02
33              	6.00000000e+02
34              	5.99473540e+02
35              	5.97755562e+02
36              	5.95545885e+02
37              	5.93457675e+02
38              	5.91945470e+02
39              	5.91127764e+02
40              	5.90416053e+02
41              	5.90949350e+02
42              	5.91145627e+02
43              	5.91960104e+02
44              	5.92112069e+02
45              	5.91678985e+02
46              	5.91930518e+02
47              	5.90917160e+02
48              	5.90161853e+02
49              	5.88559653e+02
50              	5.88123225e+02
51              	5.88587692e+02
52              	5.89650490e+02
53              	5.90682809e+02
54              	5.92047349e+02
55              	5.93766363e+02
56              	5.95399994e+02
57              	5.96707536e+02
58              	5.97295771e+02
59              	5.97254780e+02
60              	5.97013132e+02
61              	5.95763266e+02
62              	5.93656417e+02
63              	5.92068226e+02
64              	5.90583033e+02
65              	5.90041469e+02
66              	5.89517580e+02
67              	5.89145979e+02
68              	5.89346363e+02
69              	5.89756968e+02
70              	5.89492277e+02
71              	5.89966280e+02
72              	5.90882535e+02
73              	5.91826141e+02
74              	5.92856489e+02
75              	5.93028901e+02
76              	5.93207865e+02
77              	5.93448070e+02
78              	5.93722653e+02
79              	5.93332630e+02
80              	5.92764329e+02
81              	5.91036726e+02
82              	5.90462906e+02
83              	5.91367972e+02
84              	5.92701832e+02
85              	5.93973420e+02
86              	5.95344031e+02
87              	5.96775282e+02
88              	5.97853225e+02
89              	5.98675732e+02
90              	5.99305370e+02
91              	5.99156515e+02
92              	5.97738942e+02
93              	5.95189965e+02
94              	5.93271654e+02
95              	5.91764815e+02
96              	5.90288410e+02
97              	5.89304843e+02
98              	5.90267525e+02
99              	5.91690042e+02
100             	5.92633178e+02
101             	5.93700636e+02
102             	5.94635742e+02
103             	5.95140524e+02
104             	5.94348796e+02
105             	5.94459884e+02
106             	5.95094335e+02
107             	5.95546919e+02
108             	5.95568566e+02
109             	5.95303009e+02
110             	5.95228463e+02
111             	5.95377901e+02
112             	5.96089823e+02
113             	5.97260019e+02
114             	5.98175694e+02
115             	5.98498794e+02
116             	5.97187110e+02
117             	5.94726854e+02
118             	5.92988195e+02
119             	5.91547622e+02
120             	5.89498278e+02
121             	5.88314968e+02
122             	5.89164459e+02
123             	5.90201615e+02
124             	5.91392483e+02
125             	5.92948984e+02
126             	5.94792796e+02
127             	5.96407662e+02
128             	5.97587048e+02
129             	5.98559476e+02
130             	5.99161642e+02
131             	5.98890877e+02
132             	5.97972842e+02
133             	5.95649145e+02
134             	5.93825220e+02
135             	5.92203839e+02
136             	5.92191890e+02
137             	5.92583488e+02
138             	5.93459166e+02
139             	5.94565762e+02
140             	5.95955447e+02
141             	5.97074021e+02
142             	5.97720417e+02
143             	5.98005355e+02
144             	5.98226739e+02
145             	5.98323542e+02
146             	5.97290917e+02
147             	5.96132902e+02
148             	5.94936804e+02
149             	5.92978772e+02
150             	5.91658118e+02
151             	5.91440598e+02
152             	5.91816035e+02
153             	5.92620421e+02
154             	5.93712426e+02
155             	5.94828390e+02
156             	5.95723646e+02
157             	5.96233704e+02
158             	5.96666159e+02
159             	5.96668563e+02
160             	5.96157021e+02
161             	5.95300441e+02
162             	5.94264228e+02
163             	5.92903089e+02
164             	5.92273150e+02
165             	5.91902121e+02
166             	5.91126052e+02
167             	5.90470368e+02
168             	5.90727572e+02
169             	5.91334811e+02
170             	5.91904189e+02
171             	5.92284748e+02
172             	5.92580994e+02
173             	5.93006815e+02
174             	5.93496771e+02
175             	5.93990539e+02
176             	5.94453676e+02
177             	5.94963764e+02
178             	5.95445499e+02
179             	5.95856826e+02
180             	5.96150218e+02
181             	5.96111577e+02
182             	5.95378618e+02
183             	5.94783438e+02
184             	5.94123371e+02
185             	5.93714225e+02
186             	5.93351940e+02
187             	5.93236804e+02
188             	5.93211438e+02
189             	5.93083197e+02
190             	5.93088805e+02
191             	5.93254363e+02
192             	5.93536340e+02
193             	5.93957763e+02
194             	5.94446394e+02
195             	5.94888168e+02
196             	5.95390821e+02
197             	5.95709080e+02
198             	5.95755035e+02
199             	5.95697216e+02
200             	5.95605763e+02
201             	5.95359052e+02
202             	5.94872935e+02
203             	5.94429425e+02
204             	5.93939122e+02
205             	5.93755217e+02
206             	5.93612560e+02
207             	5.93257047e+02
208             	5.93080254e+02
209             	5.92992600e+02
210             	5.92972213e+02
211             	5.92997871e+02
212             	5.92940195e+02
213             	5.92915987e+02
214             	5.92999332e+02
215             	5.93139243e+02
216             	5.93274323e+02
217             	5.93399652e+02
218             	5.93535288e+02
219             	5.93713472e+02
220             	5.93845629e+02
221             	5.93892040e+02
222             	5.93922779e+02
223             	5.93961808e+02
224             	5.93985136e+02
225             	5.93957965e+02
226             	5.93926627e+02
227             	5.94031022e+02
228             	5.94205414e+02
229             	5.94303191e+02
230             	5.94422379e+02
231             	5.94578823e+02
232             	5.94710250e+02
233             	5.94751904e+02
234             	5.94780711e+02
235             	5.94850111e+02
236             	5.94899429e+02
237             	5.94931184e+02
238             	5.94937295e+02
239             	5.94815668e+02
240             	5.94604139e+02
241             	5.94409927e+02
242             	5.94242962e+02
243             	5.94089302e+02
244             	5.93898109e+02
245             	5.93676399e+02
246             	5.93488608e+02
247             	5.93375656e+02
248             	5.93285978e+02
249             	5.93216966e+02
250             	5.93126350e+02
251             	5.93190731e+02
252             	5.93325541e+02
253             	5.93387678e+02
254             	5.93499077e+02
255             	5.93686429e+02
256             	5.93845646e+02
257             	5.94005903e+02
258             	5.94183002e+02
259             	5.94279671e+02
260             	5.94293537e+02
261             	5.94276484e+02
262             	5.94252601e+02
263             	5.94246428e+02
264             	5.94179199e+02
265             	5.94001247e+02
266             	5.93766369e+02
267             	5.93550580e+02
268             	5.93453821e+02
269             	5.93423767e+02
270             	5.93322514e+02
271             	5.93193481e+02
272             	5.93085023e+02
273             	5.92971120e+02
274             	5.92747433e+02
275             	5.92815165e+02
276             	5.93081355e+02
277             	5.93282916e+02
278             	5.93438558e+02
279             	5.93604631e+02
280             	5.93797433e+02
281             	5.93971399e+02
282             	5.94058648e+02
283             	5.94091344e+02
284             	5.94099846e+02
285             	5.94057900e+02
286             	5.94074332e+02
287             	5.94106028e+02
288             	5.94059090e+02
289             	5.93918039e+02
290             	5.93713620e+02
291             	5.93491625e+02
292             	5.93278317e+02
293             	5.93260223e+02
294             	5.93363650e+02
295             	5.93432617e+02
296             	5.93513350e+02
297             	5.93617614e+02
298             	5.93772056e+02
299             	5.93978330e+02
300             	5.94182125e+02
301             	5.94253639e+02
302             	5.94272440e+02
303             	5.94323137e+02
304             	5.94333017e+02
305             	5.94280724e+02
306             	5.94168224e+02
307             	5.93959041e+02
308             	5.93669717e+02
309             	5.93309305e+02
310             	5.93050170e+02
311             	5.92876090e+02
312             	5.92718866e+02
313             	5.92596905e+02
314             	5.92514803e+02
315             	5.92645182e+02
316             	5.92859013e+02
317             	5.92982407e+02
318             	5.93057735e+02
319             	5.93178277e+02
320             	5.93367135e+02
321             	5.93529355e+02
322             	5.93659148e+02
323             	5.93785677e+02
324             	5.93921691e+02
325             	5.94071376e+02
326             	5.94205123e+02
327             	5.94300108e+02
328             	5.94398348e+02
329             	5.94401828e+02
330             	5.94317961e+02
331             	5.94297117e+02
332             	5.94266474e+02
333             	5.94188144e+02
334             	5.94033071e+02
335             	5.93804469e+02
336             	5.93558783e+02
337             	5.93324993e+02
338             	5.93240953e+02
339             	5.93302823e+02
340             	5.93305214e+02
341             	5.93258094e+02
342             	5.93214667e+02
343             	5.93248384e+02
344             	5.93357199e+02
345             	5.93478531e+02
346             	5.93649894e+02
347             	5.93815281e+02
348             	5.93930858e+02
349             	5.94067316e+02
350             	5.94236435e+02
351             	5.94404134e+02
352             	5.94458376e+02
353             	5.94306648e+02
354             	5.94143387e+02
355             	5.94059191e+02
356             	5.93788228e+02
357             	5.93572265e+02
358             	5.93447561e+02
359             	5.93309587e+02
360             	5.93236211e+02
361             	5.93247436e+02
362             	5.93247322e+02
363             	5.93271834e+02
364             	5.93297028e+02
365             	5.93265975e+02
366             	5.93210501e+02
367             	5.93216544e+02
368             	5.93308318e+02
369             	5.93405561e+02
370             	5.93523457e+02
371             	5.93631241e+02
372             	5.93660419e+02
373             	5.93683680e+02
374             	5.93769786e+02
375             	5.93916083e+02
376             	5.94072027e+02
377             	5.94212971e+02
378             	5.94335406e+02
379             	5.94387256e+02
380             	5.94330710e+02
381             	5.94142362e+02
382             	5.93966413e+02
383             	5.93861046e+02
384             	5.93643266e+02
385             	5.93091918e+02
386             	5.92758368e+02
387             	5.92588652e+02
388             	5.92540648e+02
389             	5.92818965e+02
390             	5.93154103e+02
391             	5.93309750e+02
392             	5.93429995e+02
393             	5.93541344e+02
394             	5.93734921e+02
395             	5.93961905e+02
396             	5.94134636e+02
397             	5.94211105e+02
398             	5.94129804e+02
399             	5.94026733e+02
400             	5.93973911e+02
401             	5.93878156e+02
402             	5.93672593e+02
403             	5.93383746e+02
404             	5.93066364e+02
405             	5.92786066e+02
406             	5.92471830e+02
407             	5.92405733e+02
408             	5.92474046e+02
409             	5.92558442e+02
410             	5.92644667e+02
411             	5.92905356e+02
412             	5.93180139e+02
413             	5.93291280e+02
414             	5.93340601e+02
415             	5.93476672e+02
416             	5.93650702e+02
417             	5.93890781e+02
418             	5.94101954e+02
419             	5.94244667e+02
420             	5.94360539e+02
421             	5.94436955e+02
422             	5.94441434e+02
423             	5.94139801e+02
424             	5.93689208e+02
425             	5.93245044e+02
426             	5.92720595e+02
427             	5.92307957e+02
428             	5.92155473e+02
429             	5.91833445e+02
430             	5.91839223e+02
431             	5.92116648e+02
432             	5.92348197e+02
433             	5.92360861e+02
434             	5.92380629e+02
435             	5.92496669e+02
436             	5.92723561e+02
437             	5.93060468e+02
438             	5.93458447e+02
439             	5.93828210e+02
440             	5.94145966e+02
441             	5.94370224e+02
442             	5.94533373e+02
443             	5.94686991e+02
444             	5.94820296e+02
445             	5.94762430e+02
446             	5.94518907e+02
447             	5.94321357e+02
448             	5.94132673e+02
449             	5.93884335e+02
450             	5.93701763e+02
451             	5.93587860e+02
452             	5.93410656e+02
453             	5.93261771e+02
454             	5.93193364e+02
455             	5.93128168e+02
456             	5.93046156e+02
457             	5.92982227e+02
458             	5.92941022e+02
459             	5.93147705e+02
460             	5.93440683e+02
461             	5.93614240e+02
462             	5.93729329e+02
463             	5.93886049e+02
464             	5.94013268e+02
465             	5.94092775e+02
466             	5.94284095e+02
467             	5.94447528e+02
468             	5.94468510e+02
469             	5.94391721e+02
470             	5.94265687e+02
471             	5.94136775e+02
472             	5.93854078e+02
473             	5.93363949e+02
474             	5.92915688e+02
475             	5.92747580e+02
476             	5.92618626e+02
477             	5.92472488e+02
478             	5.92434835e+02
479             	5.92696536e+02
480             	5.92998780e+02
481             	5.93032233e+02
482             	5.93086369e+02
483             	5.93316832e+02
484             	5.93627334e+02
485             	5.93919148e+02
486             	5.94177820e+02
487             	5.94451721e+02
488             	5.94695191e+02
489             	5.94780602e+02
490             	5.94753529e+02
491             	5.94569290e+02
492             	5.94291874e+02
493             	5.93998646e+02
494             	5.93682513e+02
495             	5.93364834e+02
496             	5.92945002e+02
497             	5.92841424e+02
498             	5.92952447e+02
499             	5.93072349e+02
500             	5.93190498e+02
501             	5.93334486e+02
502             	5.93528147e+02
503             	5.93714369e+02
504             	5.93866990e+02
505             	5.93993247e+02
506             	5.94127612e+02
507             	5.94261128e+02
508             	5.94370637e+02
509             	5.94466814e+02
510             	5.94596021e+02
511             	5.94696632e+02
512             	5.94572639e+02
513             	5.94321500e+02
514             	5.94205506e+02
515             	5.94174605e+02
516             	5.94164938e+02
517             	5.94110803e+02
518             	5.94041556e+02
519             	5.93944631e+02
520             	5.93789111e+02
521             	5.93676079e+02
522             	5.93639760e+02
523             	5.93637156e+02
524             	5.93661600e+02
525             	5.93703841e+02
526             	5.93705542e+02
527             	5.93662272e+02
528             	5.93601443e+02
529             	5.93525049e+02
530             	5.93458597e+02
531             	5.93468025e+02
532             	5.93518391e+02
533             	5.93592411e+02
534             	5.93688965e+02
535             	5.93747431e+02
536             	5.93807680e+02
537             	5.93889632e+02
538             	5.93978221e+02
539             	5.94091418e+02
540             	5.94210006e+02
541             	5.94285339e+02
542             	5.94306730e+02
543             	5.94309156e+02
544             	5.94275629e+02
545             	5.94220392e+02
546             	5.94186727e+02
547             	5.94141137e+02
548             	5.94039128e+02
549             	5.93914789e+02
550             	5.93803667e+02
551             	5.93694997e+02
552             	5.93576769e+02
553             	5.93480938e+02
554             	5.93388674e+02
555             	5.93302025e+02
556             	5.93269154e+02
557             	5.93256195e+02
558             	5.93254103e+02
559             	5.93322282e+02
560             	5.93415933e+02
561             	5.93448948e+02
562             	5.93442516e+02
563             	5.93484221e+02
564             	5.93578694e+02
565             	5.93686376e+02
566             	5.93792697e+02
567             	5.93897338e+02
568             	5.93989267e+02
569             	5.94044982e+02
570             	5.94024329e+02
571             	5.93958994e+02
572             	5.93888462e+02
573             	5.93815154e+02
574             	5.93733258e+02
575             	5.93645677e+02
576             	5.93564933e+02
577             	5.93504775e+02
578             	5.93439607e+02
579             	5.93362022e+02
580             	5.93320011e+02
581             	5.93393641e+02
582             	5.93519503e+02
583             	5.93635100e+02
584             	5.93752980e+02
585             	5.93872176e+02
586             	5.94016908e+02
587             	5.94126799e+02
588             	5.94197533e+02
589             	5.94229944e+02
590             	5.94256850e+02
591             	5.94296273e+02
592             	5.94209386e+02
593             	5.94091101e+02
594             	5.94048024e+02
595             	5.94006666e+02
596             	5.93975919e+02
597             	5.93956319e+02
598             	5.93859110e+02
599             	5.93675534e+02
600             	5.93486428e+02
601             	5.93477195e+02
602             	5.93611120e+02
603             	5.93684485e+02
604             	5.93723842e+02
605             	5.93799500e+02
606             	5.93939629e+02
607             	5.94088833e+02
608             	5.94128739e+02
609             	5.94082909e+02
610             	5.94054005e+02
611             	5.94065934e+02
612             	5.94067079e+02
613             	5.94044996e+02
614             	5.94024730e+02
615             	5.93983462e+02
616             	5.93874436e+02
617             	5.93742066e+02
618             	5.93620250e+02
619             	5.93508696e+02
620             	5.93414928e+02
621             	5.93334791e+02
