# Region        : cellZone component_1
# Cells         : 180
# Volume        : 3.47320584e-01
# Time          	volAverage(T)
1               	3.00773089e+02
2               	3.01537744e+02
3               	3.02242881e+02
4               	3.02907655e+02
5               	3.03551763e+02
6               	3.04182440e+02
7               	3.04804275e+02
8               	3.05420842e+02
9               	3.06028517e+02
10              	3.06628455e+02
11              	3.07221610e+02
12              	3.07796466e+02
13              	3.08364309e+02
14              	3.08919553e+02
15              	3.09460100e+02
16              	3.09985971e+02
17              	3.10506619e+02
18              	3.11019773e+02
19              	3.11522497e+02
20              	3.12019097e+02
21              	3.12504916e+02
22              	3.12990119e+02
23              	3.13466077e+02
24              	3.13949618e+02
25              	3.14428609e+02
26              	3.14886297e+02
27              	3.15323719e+02
28              	3.15762698e+02
29              	3.16191117e+02
30              	3.16609350e+02
31              	3.17022136e+02
32              	3.17424211e+02
33              	3.17824217e+02
34              	3.18223792e+02
35              	3.18615730e+02
36              	3.18986329e+02
37              	3.19313754e+02
38              	3.19639271e+02
39              	3.19958567e+02
40              	3.20307492e+02
41              	3.20654013e+02
42              	3.21001490e+02
43              	3.21346342e+02
44              	3.21687359e+02
45              	3.22020888e+02
46              	3.22341143e+02
47              	3.22661600e+02
48              	3.22966061e+02
49              	3.23280193e+02
50              	3.23556996e+02
51              	3.23795700e+02
52              	3.23987257e+02
53              	3.24168711e+02
54              	3.24359422e+02
55              	3.24601235e+02
56              	3.24856756e+02
57              	3.25100079e+02
58              	3.25330431e+02
59              	3.25556493e+02
60              	3.25784917e+02
61              	3.26027874e+02
62              	3.26280737e+02
63              	3.26523411e+02
64              	3.26731493e+02
65              	3.26910391e+02
66              	3.27088540e+02
67              	3.27295151e+02
68              	3.27523163e+02
69              	3.27762372e+02
70              	3.27999968e+02
71              	3.28238205e+02
72              	3.28474443e+02
73              	3.28709023e+02
74              	3.28931745e+02
75              	3.29152992e+02
76              	3.29356703e+02
77              	3.29546713e+02
78              	3.29725967e+02
79              	3.29897751e+02
80              	3.30056227e+02
81              	3.30222510e+02
82              	3.30379819e+02
83              	3.30544123e+02
84              	3.30725418e+02
85              	3.30903965e+02
86              	3.31088746e+02
87              	3.31265620e+02
88              	3.31441825e+02
89              	3.31653995e+02
90              	3.31839811e+02
91              	3.32004470e+02
92              	3.32156347e+02
93              	3.32324311e+02
94              	3.32502241e+02
95              	3.32677511e+02
96              	3.32855533e+02
97              	3.33033189e+02
98              	3.33206346e+02
99              	3.33377095e+02
100             	3.33534661e+02
101             	3.33719094e+02
102             	3.33882532e+02
103             	3.34016977e+02
104             	3.34131398e+02
105             	3.34227611e+02
106             	3.34343325e+02
107             	3.34466555e+02
108             	3.34592261e+02
109             	3.34723318e+02
110             	3.34860263e+02
111             	3.35005274e+02
112             	3.35149249e+02
113             	3.35288592e+02
114             	3.35415418e+02
115             	3.35548760e+02
116             	3.35684948e+02
117             	3.35819780e+02
118             	3.35955834e+02
119             	3.36091340e+02
120             	3.36230263e+02
121             	3.36375737e+02
122             	3.36509074e+02
123             	3.36641046e+02
124             	3.36775673e+02
125             	3.36910552e+02
126             	3.37038862e+02
127             	3.37154289e+02
128             	3.37270337e+02
129             	3.37386811e+02
130             	3.37494236e+02
131             	3.37593872e+02
132             	3.37694324e+02
133             	3.37794575e+02
134             	3.37896109e+02
135             	3.38007415e+02
136             	3.38118703e+02
137             	3.38231578e+02
138             	3.38340542e+02
139             	3.38451009e+02
140             	3.38562053e+02
141             	3.38661828e+02
142             	3.38770280e+02
143             	3.38873607e+02
144             	3.38980098e+02
145             	3.39077582e+02
146             	3.39170056e+02
147             	3.39258218e+02
148             	3.39346883e+02
149             	3.39437419e+02
150             	3.39519144e+02
151             	3.39597643e+02
152             	3.39676248e+02
153             	3.39754453e+02
154             	3.39829867e+02
155             	3.39909545e+02
156             	3.39991115e+02
157             	3.40063218e+02
158             	3.40136450e+02
159             	3.40209731e+02
160             	3.40279121e+02
161             	3.40346959e+02
162             	3.40411569e+02
163             	3.40474135e+02
164             	3.40542904e+02
165             	3.40614450e+02
166             	3.40685328e+02
167             	3.40756294e+02
168             	3.40826730e+02
169             	3.40890870e+02
170             	3.40957773e+02
171             	3.41020885e+02
172             	3.41080513e+02
173             	3.41139492e+02
174             	3.41200811e+02
175             	3.41269552e+02
176             	3.41334916e+02
177             	3.41398027e+02
178             	3.41461540e+02
179             	3.41525316e+02
180             	3.41578942e+02
181             	3.41638774e+02
182             	3.41697773e+02
183             	3.41746128e+02
184             	3.41796756e+02
185             	3.41849240e+02
186             	3.41894970e+02
187             	3.41935213e+02
188             	3.41974566e+02
189             	3.42019084e+02
190             	3.42058327e+02
191             	3.42101892e+02
192             	3.42148757e+02
193             	3.42199372e+02
194             	3.42237253e+02
195             	3.42278747e+02
196             	3.42320949e+02
197             	3.42364087e+02
198             	3.42408065e+02
199             	3.42451830e+02
200             	3.42493556e+02
201             	3.42534391e+02
202             	3.42574713e+02
203             	3.42615838e+02
204             	3.42655949e+02
205             	3.42694680e+02
206             	3.42733976e+02
207             	3.42775810e+02
208             	3.42807543e+02
209             	3.42844845e+02
210             	3.42885330e+02
211             	3.42927534e+02
212             	3.42960245e+02
213             	3.42996385e+02
214             	3.43034744e+02
215             	3.43072722e+02
216             	3.43110248e+02
217             	3.43145592e+02
218             	3.43177478e+02
219             	3.43209393e+02
220             	3.43239470e+02
221             	3.43268009e+02
222             	3.43297128e+02
223             	3.43327213e+02
224             	3.43358924e+02
225             	3.43391196e+02
226             	3.43423049e+02
227             	3.43455086e+02
228             	3.43487177e+02
229             	3.43519125e+02
230             	3.43551305e+02
231             	3.43584266e+02
232             	3.43606101e+02
233             	3.43632105e+02
234             	3.43659243e+02
235             	3.43687168e+02
236             	3.43714760e+02
237             	3.43741685e+02
238             	3.43768413e+02
239             	3.43794562e+02
240             	3.43820802e+02
241             	3.43846717e+02
242             	3.43872694e+02
243             	3.43898586e+02
244             	3.43924236e+02
245             	3.43949717e+02
246             	3.43974588e+02
247             	3.43998601e+02
248             	3.44022038e+02
249             	3.44045278e+02
250             	3.44068411e+02
251             	3.44091061e+02
252             	3.44112678e+02
253             	3.44134117e+02
254             	3.44155142e+02
255             	3.44175797e+02
256             	3.44195990e+02
257             	3.44215394e+02
258             	3.44233738e+02
259             	3.44251442e+02
260             	3.44268783e+02
261             	3.44286084e+02
262             	3.44303814e+02
263             	3.44322246e+02
264             	3.44340896e+02
265             	3.44359547e+02
266             	3.44377980e+02
267             	3.44396068e+02
268             	3.44413664e+02
269             	3.44429396e+02
270             	3.44445215e+02
271             	3.44459776e+02
272             	3.44474602e+02
273             	3.44489193e+02
274             	3.44503601e+02
275             	3.44517647e+02
276             	3.44531722e+02
277             	3.44546860e+02
278             	3.44563164e+02
279             	3.44579363e+02
280             	3.44595366e+02
281             	3.44610490e+02
282             	3.44624103e+02
283             	3.44638071e+02
284             	3.44651825e+02
285             	3.44665445e+02
286             	3.44678375e+02
287             	3.44691041e+02
288             	3.44703549e+02
289             	3.44715887e+02
290             	3.44727902e+02
291             	3.44739922e+02
292             	3.44751924e+02
293             	3.44764229e+02
294             	3.44776773e+02
295             	3.44789245e+02
296             	3.44801550e+02
297             	3.44813360e+02
298             	3.44824091e+02
299             	3.44834056e+02
300             	3.44844108e+02
301             	3.44854115e+02
302             	3.44863655e+02
303             	3.44872728e+02
304             	3.44881658e+02
305             	3.44891088e+02
306             	3.44901238e+02
307             	3.44912016e+02
308             	3.44922428e+02
309             	3.44932909e+02
310             	3.44943031e+02
311             	3.44951729e+02
312             	3.44959523e+02
313             	3.44967347e+02
314             	3.44974892e+02
315             	3.44982103e+02
316             	3.44989085e+02
317             	3.44996367e+02
318             	3.45004339e+02
319             	3.45012066e+02
320             	3.45020034e+02
321             	3.45027925e+02
322             	3.45035910e+02
323             	3.45043465e+02
324             	3.45051134e+02
325             	3.45058401e+02
326             	3.45065429e+02
327             	3.45072222e+02
328             	3.45079219e+02
329             	3.45086123e+02
330             	3.45092872e+02
331             	3.45099557e+02
332             	3.45106286e+02
333             	3.45113054e+02
334             	3.45119833e+02
335             	3.45126389e+02
336             	3.45132852e+02
337             	3.45139208e+02
338             	3.45145439e+02
339             	3.45151657e+02
340             	3.45157891e+02
341             	3.45164147e+02
342             	3.45170353e+02
343             	3.45176381e+02
344             	3.45182160e+02
345             	3.45187605e+02
346             	3.45192971e+02
347             	3.45198208e+02
348             	3.45203180e+02
349             	3.45208049e+02
350             	3.45212988e+02
351             	3.45217885e+02
352             	3.45222801e+02
353             	3.45227720e+02
354             	3.45232696e+02
355             	3.45237684e+02
356             	3.45242496e+02
357             	3.45247232e+02
358             	3.45251867e+02
359             	3.45256388e+02
360             	3.45260768e+02
361             	3.45265045e+02
362             	3.45269303e+02
363             	3.45273559e+02
364             	3.45277790e+02
365             	3.45282026e+02
366             	3.45286316e+02
367             	3.45290636e+02
368             	3.45294964e+02
369             	3.45299148e+02
370             	3.45303192e+02
371             	3.45307142e+02
372             	3.45311051e+02
373             	3.45314923e+02
374             	3.45318753e+02
375             	3.45322476e+02
376             	3.45326135e+02
377             	3.45329805e+02
378             	3.45333423e+02
379             	3.45336865e+02
380             	3.45340138e+02
381             	3.45343362e+02
382             	3.45346486e+02
383             	3.45349618e+02
384             	3.45352824e+02
385             	3.45356030e+02
386             	3.45359196e+02
387             	3.45362338e+02
388             	3.45365487e+02
389             	3.45368662e+02
390             	3.45371690e+02
391             	3.45374656e+02
392             	3.45377549e+02
393             	3.45380372e+02
394             	3.45383130e+02
395             	3.45385882e+02
396             	3.45388637e+02
397             	3.45391423e+02
398             	3.45394201e+02
399             	3.45396930e+02
400             	3.45399575e+02
401             	3.45402138e+02
402             	3.45404635e+02
403             	3.45407029e+02
404             	3.45409398e+02
405             	3.45411719e+02
406             	3.45414064e+02
407             	3.45416392e+02
408             	3.45418679e+02
409             	3.45420926e+02
410             	3.45423178e+02
411             	3.45425431e+02
412             	3.45427638e+02
413             	3.45429800e+02
414             	3.45431931e+02
415             	3.45434038e+02
416             	3.45436131e+02
417             	3.45438224e+02
418             	3.45440301e+02
419             	3.45442344e+02
420             	3.45444232e+02
421             	3.45446131e+02
422             	3.45447997e+02
423             	3.45449833e+02
424             	3.45451619e+02
425             	3.45453385e+02
426             	3.45455159e+02
427             	3.45456969e+02
428             	3.45458769e+02
429             	3.45460570e+02
430             	3.45462353e+02
431             	3.45464050e+02
432             	3.45465610e+02
433             	3.45467069e+02
434             	3.45468510e+02
435             	3.45469979e+02
436             	3.45471462e+02
437             	3.45472975e+02
438             	3.45474538e+02
439             	3.45476177e+02
440             	3.45477798e+02
441             	3.45479382e+02
442             	3.45480882e+02
443             	3.45482320e+02
444             	3.45483525e+02
445             	3.45484785e+02
446             	3.45486023e+02
447             	3.45487217e+02
448             	3.45488351e+02
449             	3.45489493e+02
450             	3.45490663e+02
451             	3.45492007e+02
452             	3.45493341e+02
453             	3.45494763e+02
454             	3.45496145e+02
455             	3.45497526e+02
456             	3.45498694e+02
457             	3.45499855e+02
458             	3.45500903e+02
459             	3.45501906e+02
460             	3.45502884e+02
461             	3.45503835e+02
462             	3.45504726e+02
463             	3.45505702e+02
464             	3.45506650e+02
465             	3.45507626e+02
466             	3.45508584e+02
467             	3.45509601e+02
468             	3.45510664e+02
469             	3.45511740e+02
470             	3.45512751e+02
471             	3.45513737e+02
472             	3.45514615e+02
473             	3.45515500e+02
474             	3.45516335e+02
475             	3.45517157e+02
476             	3.45517974e+02
477             	3.45518803e+02
478             	3.45519629e+02
479             	3.45520490e+02
480             	3.45521346e+02
481             	3.45522216e+02
482             	3.45523077e+02
483             	3.45523931e+02
484             	3.45524725e+02
485             	3.45525514e+02
486             	3.45526281e+02
487             	3.45527030e+02
488             	3.45527773e+02
489             	3.45528534e+02
490             	3.45529280e+02
491             	3.45530007e+02
492             	3.45530712e+02
493             	3.45531406e+02
494             	3.45532091e+02
495             	3.45532747e+02
496             	3.45533382e+02
497             	3.45534011e+02
498             	3.45534639e+02
499             	3.45535273e+02
500             	3.45535929e+02
501             	3.45536590e+02
502             	3.45537248e+02
503             	3.45537867e+02
504             	3.45538455e+02
505             	3.45539027e+02
506             	3.45539597e+02
507             	3.45540154e+02
508             	3.45540708e+02
509             	3.45541276e+02
510             	3.45541849e+02
511             	3.45542411e+02
512             	3.45542975e+02
513             	3.45543517e+02
514             	3.45544056e+02
515             	3.45544564e+02
516             	3.45545073e+02
517             	3.45545571e+02
518             	3.45546060e+02
519             	3.45546527e+02
520             	3.45546981e+02
521             	3.45547433e+02
522             	3.45547889e+02
523             	3.45548365e+02
524             	3.45548839e+02
525             	3.45549317e+02
526             	3.45549795e+02
527             	3.45550271e+02
528             	3.45550727e+02
529             	3.45551163e+02
530             	3.45551594e+02
531             	3.45552015e+02
532             	3.45552398e+02
533             	3.45552780e+02
534             	3.45553150e+02
535             	3.45553517e+02
536             	3.45553873e+02
537             	3.45554227e+02
538             	3.45554583e+02
539             	3.45554955e+02
540             	3.45555338e+02
541             	3.45555716e+02
542             	3.45556093e+02
543             	3.45556460e+02
544             	3.45556818e+02
545             	3.45557166e+02
546             	3.45557485e+02
547             	3.45557832e+02
548             	3.45558175e+02
549             	3.45558512e+02
550             	3.45558840e+02
551             	3.45559147e+02
552             	3.45559453e+02
553             	3.45559751e+02
554             	3.45560047e+02
555             	3.45560337e+02
556             	3.45560622e+02
557             	3.45560907e+02
558             	3.45561190e+02
559             	3.45561468e+02
560             	3.45561748e+02
561             	3.45562034e+02
562             	3.45562300e+02
563             	3.45562569e+02
564             	3.45562841e+02
565             	3.45563102e+02
566             	3.45563365e+02
567             	3.45563619e+02
568             	3.45563867e+02
569             	3.45564109e+02
570             	3.45564355e+02
571             	3.45564594e+02
572             	3.45564834e+02
573             	3.45565074e+02
574             	3.45565313e+02
575             	3.45565550e+02
576             	3.45565783e+02
577             	3.45566010e+02
578             	3.45566226e+02
579             	3.45566447e+02
580             	3.45566669e+02
581             	3.45566888e+02
582             	3.45567106e+02
583             	3.45567320e+02
584             	3.45567531e+02
585             	3.45567738e+02
586             	3.45567942e+02
587             	3.45568140e+02
588             	3.45568329e+02
589             	3.45568513e+02
590             	3.45568696e+02
591             	3.45568875e+02
592             	3.45569048e+02
593             	3.45569218e+02
594             	3.45569385e+02
595             	3.45569549e+02
596             	3.45569711e+02
597             	3.45569873e+02
598             	3.45570033e+02
599             	3.45570192e+02
600             	3.45570349e+02
601             	3.45570503e+02
602             	3.45570653e+02
603             	3.45570801e+02
604             	3.45570946e+02
605             	3.45571091e+02
606             	3.45571235e+02
607             	3.45571380e+02
608             	3.45571525e+02
609             	3.45571668e+02
610             	3.45571803e+02
611             	3.45571933e+02
612             	3.45572062e+02
613             	3.45572191e+02
614             	3.45572319e+02
615             	3.45572443e+02
616             	3.45572568e+02
617             	3.45572692e+02
618             	3.45572816e+02
619             	3.45572939e+02
620             	3.45573061e+02
621             	3.45573185e+02
