# Region        : cellZone component_4
# Cells         : 22
# Volume        : 2.74060617e-02
# Time          	volAverage(T)
1               	3.04921429e+02
2               	3.09679301e+02
3               	3.13674337e+02
4               	3.17345351e+02
5               	3.20891463e+02
6               	3.24356096e+02
7               	3.27795696e+02
8               	3.31234452e+02
9               	3.34644841e+02
10              	3.38032070e+02
11              	3.41294299e+02
12              	3.44497213e+02
13              	3.47591517e+02
14              	3.50670375e+02
15              	3.53623527e+02
16              	3.56360184e+02
17              	3.58930819e+02
18              	3.61362084e+02
19              	3.63772687e+02
20              	3.66091679e+02
21              	3.68342340e+02
22              	3.70530884e+02
23              	3.72668759e+02
24              	3.74796114e+02
25              	3.76736285e+02
26              	3.78475481e+02
27              	3.80086891e+02
28              	3.81651726e+02
29              	3.83238078e+02
30              	3.84796291e+02
31              	3.86110564e+02
32              	3.87255530e+02
33              	3.88244164e+02
34              	3.89255812e+02
35              	3.90288746e+02
36              	3.91356016e+02
37              	3.92380446e+02
38              	3.93470501e+02
39              	3.94569304e+02
40              	3.95634529e+02
41              	3.96714423e+02
42              	3.97840054e+02
43              	3.99038669e+02
44              	4.00223856e+02
45              	4.01414273e+02
46              	4.02604469e+02
47              	4.03832936e+02
48              	4.05092884e+02
49              	4.06387963e+02
50              	4.07741139e+02
51              	4.09126339e+02
52              	4.10437915e+02
53              	4.11685280e+02
54              	4.12843712e+02
55              	4.13957154e+02
56              	4.14997985e+02
57              	4.15950792e+02
58              	4.16854989e+02
59              	4.17737950e+02
60              	4.18666357e+02
61              	4.19464658e+02
62              	4.20258200e+02
63              	4.20933444e+02
64              	4.21701476e+02
65              	4.22600432e+02
66              	4.23594714e+02
67              	4.24477722e+02
68              	4.25395096e+02
69              	4.26229194e+02
70              	4.27095015e+02
71              	4.27916727e+02
72              	4.28856983e+02
73              	4.29811488e+02
74              	4.30872059e+02
75              	4.31935314e+02
76              	4.32968930e+02
77              	4.33949356e+02
78              	4.34852508e+02
79              	4.35673946e+02
80              	4.36454611e+02
81              	4.37223467e+02
82              	4.38011553e+02
83              	4.38794189e+02
84              	4.39557233e+02
85              	4.40313342e+02
86              	4.41098618e+02
87              	4.41926153e+02
88              	4.42799879e+02
89              	4.43735253e+02
90              	4.44725726e+02
91              	4.45755464e+02
92              	4.46823050e+02
93              	4.47831106e+02
94              	4.48904480e+02
95              	4.50009856e+02
96              	4.51117033e+02
97              	4.52060875e+02
98              	4.52990961e+02
99              	4.53899130e+02
100             	4.54754166e+02
101             	4.55530409e+02
102             	4.56220668e+02
103             	4.56835728e+02
104             	4.57392635e+02
105             	4.57865446e+02
106             	4.58318903e+02
107             	4.58774161e+02
108             	4.59236226e+02
109             	4.59704460e+02
110             	4.60185890e+02
111             	4.60691851e+02
112             	4.61230471e+02
113             	4.61814446e+02
114             	4.62322880e+02
115             	4.62906101e+02
116             	4.63431747e+02
117             	4.64032456e+02
118             	4.64566054e+02
119             	4.65157953e+02
120             	4.65647261e+02
121             	4.66161972e+02
122             	4.66674672e+02
123             	4.67075711e+02
124             	4.67487455e+02
125             	4.67888263e+02
126             	4.68194702e+02
127             	4.68490373e+02
128             	4.68776661e+02
129             	4.69068551e+02
130             	4.69379880e+02
131             	4.69713784e+02
132             	4.70079315e+02
133             	4.70487762e+02
134             	4.70810735e+02
135             	4.71217208e+02
136             	4.71563349e+02
137             	4.71994804e+02
138             	4.72302512e+02
139             	4.72570077e+02
140             	4.72898650e+02
141             	4.73141463e+02
142             	4.73423372e+02
143             	4.73605074e+02
144             	4.73826222e+02
145             	4.74039390e+02
146             	4.74259096e+02
147             	4.74478945e+02
148             	4.74684765e+02
149             	4.74889933e+02
150             	4.75102423e+02
151             	4.75339227e+02
152             	4.75582478e+02
153             	4.75872490e+02
154             	4.76073034e+02
155             	4.76349127e+02
156             	4.76563864e+02
157             	4.76859095e+02
158             	4.77073532e+02
159             	4.77348435e+02
160             	4.77517248e+02
161             	4.77736137e+02
162             	4.77880879e+02
163             	4.78067217e+02
164             	4.78150670e+02
165             	4.78269982e+02
166             	4.78413578e+02
167             	4.78560939e+02
168             	4.78707308e+02
169             	4.78860602e+02
170             	4.79031772e+02
171             	4.79222903e+02
172             	4.79321173e+02
173             	4.79488480e+02
174             	4.79599122e+02
175             	4.79785897e+02
176             	4.79894370e+02
177             	4.80084035e+02
178             	4.80162947e+02
179             	4.80311096e+02
180             	4.80395413e+02
181             	4.80544231e+02
182             	4.80618895e+02
183             	4.80746651e+02
184             	4.80904310e+02
185             	4.80954346e+02
186             	4.81048837e+02
187             	4.81178247e+02
188             	4.81201291e+02
189             	4.81281135e+02
190             	4.81405376e+02
191             	4.81546774e+02
192             	4.81597257e+02
193             	4.81720574e+02
194             	4.81890965e+02
195             	4.81966533e+02
196             	4.82105097e+02
197             	4.82157721e+02
198             	4.82275911e+02
199             	4.82302225e+02
200             	4.82395177e+02
201             	4.82395272e+02
202             	4.82460918e+02
203             	4.82453532e+02
204             	4.82502526e+02
205             	4.82596883e+02
206             	4.82589217e+02
207             	4.82638004e+02
208             	4.82618894e+02
209             	4.82660193e+02
210             	4.82622830e+02
211             	4.82650957e+02
212             	4.82602071e+02
213             	4.82617450e+02
214             	4.82561852e+02
215             	4.82576242e+02
216             	4.82527178e+02
217             	4.82543003e+02
218             	4.82500995e+02
219             	4.82526141e+02
220             	4.82491916e+02
221             	4.82522622e+02
222             	4.82492775e+02
223             	4.82527759e+02
224             	4.82496557e+02
225             	4.82531280e+02
226             	4.82496113e+02
227             	4.82528179e+02
228             	4.82490998e+02
229             	4.82522365e+02
230             	4.82597361e+02
231             	4.82579574e+02
232             	4.82630846e+02
233             	4.82616902e+02
234             	4.82670411e+02
235             	4.82649806e+02
236             	4.82698046e+02
237             	4.82660769e+02
238             	4.82691443e+02
239             	4.82646576e+02
240             	4.82668792e+02
241             	4.82611925e+02
242             	4.82622210e+02
243             	4.82558542e+02
244             	4.82558817e+02
245             	4.82490707e+02
246             	4.82484960e+02
247             	4.82412912e+02
248             	4.82406177e+02
249             	4.82329367e+02
250             	4.82314882e+02
251             	4.82232221e+02
252             	4.82216215e+02
253             	4.82132640e+02
254             	4.82116959e+02
255             	4.82043821e+02
256             	4.82038861e+02
257             	4.81972947e+02
258             	4.81975616e+02
259             	4.81912074e+02
260             	4.81917403e+02
261             	4.81851368e+02
262             	4.81853605e+02
263             	4.81785298e+02
264             	4.81786077e+02
265             	4.81717660e+02
266             	4.81720144e+02
267             	4.81653369e+02
268             	4.81655707e+02
269             	4.81590874e+02
270             	4.81593052e+02
271             	4.81526367e+02
272             	4.81526078e+02
273             	4.81455926e+02
274             	4.81452629e+02
275             	4.81377918e+02
276             	4.81370920e+02
277             	4.81291032e+02
278             	4.81278576e+02
279             	4.81196087e+02
280             	4.81180380e+02
281             	4.81094540e+02
282             	4.81074542e+02
283             	4.80987376e+02
284             	4.80966288e+02
285             	4.80878667e+02
286             	4.80857839e+02
287             	4.80770901e+02
288             	4.80751148e+02
289             	4.80664950e+02
290             	4.80646036e+02
291             	4.80560706e+02
292             	4.80543149e+02
293             	4.80458994e+02
294             	4.80443356e+02
295             	4.80360491e+02
296             	4.80346468e+02
297             	4.80264872e+02
298             	4.80252298e+02
299             	4.80171688e+02
300             	4.80160204e+02
301             	4.80079782e+02
302             	4.80068098e+02
303             	4.79987280e+02
304             	4.79974649e+02
305             	4.79893997e+02
306             	4.79881235e+02
307             	4.79800574e+02
308             	4.79787440e+02
309             	4.79707019e+02
310             	4.79693618e+02
311             	4.79613536e+02
312             	4.79600193e+02
313             	4.79521160e+02
314             	4.79508538e+02
315             	4.79430638e+02
316             	4.79420318e+02
317             	4.79343120e+02
318             	4.79333165e+02
319             	4.79256264e+02
320             	4.79247419e+02
321             	4.79171036e+02
322             	4.79162659e+02
323             	4.79086790e+02
324             	4.79078680e+02
325             	4.79003439e+02
326             	4.78995834e+02
327             	4.78920637e+02
328             	4.78913032e+02
329             	4.78838191e+02
330             	4.78830551e+02
331             	4.78755446e+02
332             	4.78747197e+02
333             	4.78671278e+02
334             	4.78662072e+02
335             	4.78585042e+02
336             	4.78574864e+02
337             	4.78496810e+02
338             	4.78485845e+02
339             	4.78406114e+02
340             	4.78392867e+02
341             	4.78313057e+02
342             	4.78300432e+02
343             	4.78221025e+02
344             	4.78209037e+02
345             	4.78130769e+02
346             	4.78120019e+02
347             	4.78043813e+02
348             	4.78035011e+02
349             	4.77962838e+02
350             	4.77958287e+02
351             	4.77888677e+02
352             	4.77886384e+02
353             	4.77819176e+02
354             	4.77819112e+02
355             	4.77752715e+02
356             	4.77753442e+02
357             	4.77686593e+02
358             	4.77686922e+02
359             	4.77618967e+02
360             	4.77618118e+02
361             	4.77548023e+02
362             	4.77544580e+02
363             	4.77473929e+02
364             	4.77469754e+02
365             	4.77398787e+02
366             	4.77394272e+02
367             	4.77323656e+02
368             	4.77319740e+02
369             	4.77250660e+02
370             	4.77248640e+02
371             	4.77181566e+02
372             	4.77181624e+02
373             	4.77116015e+02
374             	4.77117296e+02
375             	4.77052531e+02
376             	4.77054751e+02
377             	4.76990290e+02
378             	4.76992731e+02
379             	4.76928182e+02
380             	4.76930429e+02
381             	4.76865919e+02
382             	4.76867834e+02
383             	4.76803296e+02
384             	4.76805027e+02
385             	4.76740266e+02
386             	4.76741601e+02
387             	4.76676720e+02
388             	4.76678082e+02
389             	4.76613389e+02
390             	4.76615299e+02
391             	4.76550813e+02
392             	4.76552954e+02
393             	4.76489331e+02
394             	4.76492292e+02
395             	4.76429454e+02
396             	4.76433218e+02
397             	4.76371246e+02
398             	4.76375777e+02
399             	4.76314636e+02
400             	4.76319928e+02
401             	4.76259569e+02
402             	4.76265735e+02
403             	4.76206195e+02
404             	4.76213196e+02
405             	4.76154479e+02
406             	4.76162131e+02
407             	4.76104057e+02
408             	4.76112324e+02
409             	4.76054682e+02
410             	4.76063133e+02
411             	4.76005753e+02
412             	4.76014476e+02
413             	4.75957514e+02
414             	4.75966677e+02
415             	4.75909930e+02
416             	4.75919233e+02
417             	4.75862789e+02
418             	4.75872430e+02
419             	4.75816423e+02
420             	4.75826395e+02
421             	4.75770752e+02
422             	4.75781111e+02
423             	4.75725438e+02
424             	4.75735816e+02
425             	4.75680512e+02
426             	4.75691179e+02
427             	4.75635984e+02
428             	4.75646702e+02
429             	4.75591672e+02
430             	4.75602467e+02
431             	4.75547778e+02
432             	4.75559045e+02
433             	4.75504653e+02
434             	4.75515946e+02
435             	4.75461824e+02
436             	4.75473529e+02
437             	4.75419671e+02
438             	4.75431705e+02
439             	4.75378082e+02
440             	4.75390353e+02
441             	4.75337093e+02
442             	4.75349711e+02
443             	4.75296871e+02
444             	4.75309949e+02
445             	4.75257624e+02
446             	4.75271229e+02
447             	4.75219636e+02
448             	4.75233796e+02
449             	4.75182852e+02
450             	4.75197710e+02
451             	4.75147439e+02
452             	4.75162839e+02
453             	4.75113211e+02
454             	4.75129103e+02
455             	4.75079777e+02
456             	4.75096194e+02
457             	4.75047003e+02
458             	4.75063511e+02
459             	4.75014452e+02
460             	4.75031027e+02
461             	4.74982140e+02
462             	4.74998885e+02
463             	4.74949932e+02
464             	4.74966607e+02
465             	4.74917976e+02
466             	4.74934985e+02
467             	4.74886479e+02
468             	4.74903422e+02
469             	4.74855110e+02
470             	4.74872282e+02
471             	4.74824218e+02
472             	4.74841565e+02
473             	4.74793743e+02
474             	4.74811347e+02
475             	4.74763755e+02
476             	4.74781580e+02
477             	4.74734244e+02
478             	4.74752238e+02
479             	4.74705203e+02
480             	4.74723594e+02
481             	4.74677046e+02
482             	4.74696034e+02
483             	4.74649906e+02
484             	4.74669194e+02
485             	4.74623466e+02
486             	4.74643189e+02
487             	4.74597811e+02
488             	4.74617931e+02
489             	4.74572908e+02
490             	4.74593296e+02
491             	4.74548600e+02
492             	4.74569372e+02
493             	4.74524928e+02
494             	4.74545950e+02
495             	4.74501763e+02
496             	4.74522910e+02
497             	4.74478983e+02
498             	4.74500406e+02
499             	4.74456621e+02
500             	4.74478023e+02
501             	4.74434414e+02
502             	4.74455989e+02
503             	4.74412478e+02
504             	4.74434207e+02
505             	4.74390807e+02
506             	4.74412629e+02
507             	4.74369260e+02
508             	4.74391024e+02
509             	4.74347688e+02
510             	4.74369605e+02
511             	4.74326326e+02
512             	4.74348216e+02
513             	4.74305095e+02
514             	4.74327104e+02
515             	4.74284143e+02
516             	4.74306433e+02
517             	4.74263702e+02
518             	4.74286158e+02
519             	4.74243678e+02
520             	4.74266364e+02
521             	4.74224107e+02
522             	4.74247063e+02
523             	4.74204981e+02
524             	4.74228110e+02
525             	4.74186312e+02
526             	4.74209605e+02
527             	4.74168030e+02
528             	4.74191680e+02
529             	4.74150289e+02
530             	4.74174111e+02
531             	4.74132743e+02
532             	4.74156531e+02
533             	4.74115355e+02
534             	4.74139394e+02
535             	4.74098079e+02
536             	4.74121862e+02
537             	4.74080702e+02
538             	4.74104602e+02
539             	4.74063594e+02
540             	4.74087737e+02
541             	4.74046973e+02
542             	4.74071346e+02
543             	4.74030935e+02
544             	4.74055636e+02
545             	4.74015666e+02
546             	4.74040876e+02
547             	4.74001429e+02
548             	4.74026869e+02
549             	4.73987663e+02
550             	4.74013614e+02
551             	4.73974647e+02
552             	4.74000895e+02
553             	4.73962092e+02
554             	4.73988242e+02
555             	4.73949547e+02
556             	4.73975957e+02
557             	4.73937284e+02
558             	4.73963721e+02
559             	4.73924952e+02
560             	4.73950969e+02
561             	4.73911994e+02
562             	4.73937992e+02
563             	4.73898956e+02
564             	4.73924995e+02
565             	4.73885758e+02
566             	4.73911220e+02
567             	4.73872005e+02
568             	4.73897734e+02
569             	4.73858574e+02
570             	4.73884507e+02
571             	4.73845463e+02
572             	4.73871162e+02
573             	4.73832395e+02
574             	4.73858630e+02
575             	4.73820229e+02
576             	4.73847032e+02
577             	4.73808938e+02
578             	4.73835755e+02
579             	4.73797995e+02
580             	4.73825292e+02
581             	4.73787714e+02
582             	4.73815357e+02
583             	4.73777900e+02
584             	4.73805305e+02
585             	4.73768030e+02
586             	4.73795766e+02
587             	4.73758655e+02
588             	4.73786658e+02
589             	4.73749745e+02
590             	4.73777617e+02
591             	4.73740837e+02
592             	4.73768969e+02
593             	4.73732328e+02
594             	4.73760681e+02
595             	4.73724060e+02
596             	4.73752214e+02
597             	4.73715608e+02
598             	4.73743911e+02
599             	4.73707267e+02
600             	4.73735700e+02
601             	4.73699097e+02
602             	4.73727245e+02
603             	4.73690693e+02
604             	4.73719021e+02
605             	4.73682502e+02
606             	4.73711021e+02
607             	4.73674438e+02
608             	4.73702622e+02
609             	4.73666108e+02
610             	4.73694558e+02
611             	4.73658009e+02
612             	4.73686529e+02
613             	4.73649820e+02
614             	4.73677809e+02
615             	4.73641132e+02
616             	4.73669314e+02
617             	4.73632633e+02
618             	4.73660984e+02
619             	4.73624344e+02
620             	4.73652394e+02
621             	4.73615942e+02
