# Region        : cellZone component_0
# Cells         : 227
# Volume        : 4.00138647e-01
# Time          	volAverage(T)
1               	3.02435817e+02
2               	3.04820473e+02
3               	3.06784197e+02
4               	3.08470891e+02
5               	3.10122759e+02
6               	3.11803096e+02
7               	3.13461884e+02
8               	3.15076382e+02
9               	3.16641000e+02
10              	3.18172066e+02
11              	3.19656257e+02
12              	3.21090857e+02
13              	3.22501126e+02
14              	3.23865477e+02
15              	3.25174274e+02
16              	3.26421733e+02
17              	3.27568641e+02
18              	3.28709572e+02
19              	3.29884346e+02
20              	3.31039682e+02
21              	3.32189803e+02
22              	3.33285976e+02
23              	3.34367499e+02
24              	3.35411565e+02
25              	3.36436490e+02
26              	3.37403718e+02
27              	3.38307962e+02
28              	3.39177205e+02
29              	3.40034635e+02
30              	3.40880091e+02
31              	3.41705285e+02
32              	3.42528073e+02
33              	3.43339450e+02
34              	3.44119800e+02
35              	3.44887853e+02
36              	3.45608648e+02
37              	3.46311876e+02
38              	3.46992913e+02
39              	3.47641051e+02
40              	3.48279940e+02
41              	3.48888921e+02
42              	3.49487407e+02
43              	3.49846353e+02
44              	3.50132770e+02
45              	3.50482695e+02
46              	3.50884706e+02
47              	3.51323387e+02
48              	3.51812169e+02
49              	3.52352350e+02
50              	3.52902695e+02
51              	3.53430714e+02
52              	3.53944822e+02
53              	3.54438222e+02
54              	3.54988515e+02
55              	3.55494270e+02
56              	3.55995384e+02
57              	3.56428580e+02
58              	3.56774082e+02
59              	3.57073293e+02
60              	3.57373182e+02
61              	3.57679558e+02
62              	3.58046693e+02
63              	3.58416015e+02
64              	3.58763830e+02
65              	3.59114223e+02
66              	3.59492736e+02
67              	3.59837133e+02
68              	3.60273136e+02
69              	3.60629546e+02
70              	3.60872317e+02
71              	3.61057749e+02
72              	3.61288411e+02
73              	3.61559641e+02
74              	3.61847190e+02
75              	3.62164913e+02
76              	3.62440395e+02
77              	3.62705103e+02
78              	3.63013418e+02
79              	3.63275248e+02
80              	3.63556560e+02
81              	3.63818640e+02
82              	3.64067753e+02
83              	3.64304703e+02
84              	3.64554719e+02
85              	3.64827980e+02
86              	3.65102252e+02
87              	3.65366790e+02
88              	3.65592870e+02
89              	3.65792893e+02
90              	3.66060226e+02
91              	3.66273397e+02
92              	3.66475441e+02
93              	3.66486081e+02
94              	3.66368948e+02
95              	3.66211520e+02
96              	3.66127737e+02
97              	3.66057905e+02
98              	3.66092187e+02
99              	3.66256492e+02
100             	3.66457325e+02
101             	3.66668940e+02
102             	3.66887423e+02
103             	3.67121217e+02
104             	3.67368128e+02
105             	3.67666639e+02
106             	3.67937688e+02
107             	3.68084063e+02
108             	3.68158664e+02
109             	3.68178892e+02
110             	3.68205358e+02
111             	3.68290160e+02
112             	3.68397835e+02
113             	3.68501463e+02
114             	3.68587883e+02
115             	3.68694449e+02
116             	3.68826690e+02
117             	3.69078450e+02
118             	3.69287866e+02
119             	3.69321992e+02
120             	3.69163575e+02
121             	3.68948770e+02
122             	3.68768403e+02
123             	3.68700647e+02
124             	3.68760774e+02
125             	3.68833899e+02
126             	3.68883117e+02
127             	3.68930298e+02
128             	3.69007689e+02
129             	3.69152658e+02
130             	3.69295380e+02
131             	3.69402715e+02
132             	3.69448256e+02
133             	3.69497601e+02
134             	3.69498216e+02
135             	3.69559673e+02
136             	3.69672928e+02
137             	3.69784920e+02
138             	3.69877597e+02
139             	3.69961060e+02
140             	3.70029912e+02
141             	3.70114198e+02
142             	3.70261229e+02
143             	3.70361711e+02
144             	3.70255509e+02
145             	3.69982094e+02
146             	3.69714149e+02
147             	3.69587839e+02
148             	3.69665972e+02
149             	3.69785352e+02
150             	3.69900933e+02
151             	3.70013016e+02
152             	3.70135006e+02
153             	3.70273522e+02
154             	3.70398935e+02
155             	3.70581137e+02
156             	3.70673866e+02
157             	3.70668620e+02
158             	3.70670540e+02
159             	3.70690789e+02
160             	3.70687363e+02
161             	3.70699398e+02
162             	3.70738784e+02
163             	3.70769849e+02
164             	3.70810486e+02
165             	3.70845740e+02
166             	3.70867001e+02
167             	3.70968147e+02
168             	3.71075523e+02
169             	3.71170664e+02
170             	3.71234295e+02
171             	3.71258426e+02
172             	3.71262031e+02
173             	3.71311435e+02
174             	3.71391893e+02
175             	3.71499392e+02
176             	3.71585419e+02
177             	3.71660620e+02
178             	3.71738914e+02
179             	3.71818718e+02
180             	3.71961289e+02
181             	3.72064080e+02
182             	3.72124352e+02
183             	3.72111598e+02
184             	3.72032196e+02
185             	3.71899586e+02
186             	3.71786943e+02
187             	3.71736417e+02
188             	3.71723547e+02
189             	3.71736240e+02
190             	3.71769131e+02
191             	3.71828526e+02
192             	3.71877879e+02
193             	3.71912942e+02
194             	3.72037900e+02
195             	3.72142655e+02
196             	3.72171487e+02
197             	3.72098367e+02
198             	3.72020810e+02
199             	3.72019162e+02
200             	3.72075300e+02
201             	3.72148130e+02
202             	3.72213288e+02
203             	3.72262888e+02
204             	3.72316413e+02
205             	3.72488049e+02
206             	3.72542584e+02
207             	3.72459373e+02
208             	3.72314664e+02
209             	3.72210280e+02
210             	3.72202378e+02
211             	3.72256305e+02
212             	3.72323446e+02
213             	3.72385436e+02
214             	3.72443957e+02
215             	3.72462180e+02
216             	3.72575335e+02
217             	3.72612953e+02
218             	3.72596875e+02
219             	3.72552656e+02
220             	3.72492208e+02
221             	3.72392599e+02
222             	3.72225561e+02
223             	3.72102051e+02
224             	3.72031495e+02
225             	3.71990888e+02
226             	3.71956641e+02
227             	3.71934446e+02
228             	3.71916094e+02
229             	3.71906247e+02
230             	3.71973136e+02
231             	3.72068912e+02
232             	3.72133350e+02
233             	3.72156897e+02
234             	3.72143038e+02
235             	3.72148170e+02
236             	3.72188535e+02
237             	3.72223635e+02
238             	3.72275026e+02
239             	3.72346293e+02
240             	3.72421728e+02
241             	3.72456321e+02
242             	3.72499447e+02
243             	3.72585547e+02
244             	3.72641612e+02
245             	3.72634206e+02
246             	3.72557047e+02
247             	3.72417574e+02
248             	3.72361164e+02
249             	3.72359286e+02
250             	3.72390230e+02
251             	3.72452671e+02
252             	3.72518060e+02
253             	3.72571500e+02
254             	3.72614463e+02
255             	3.72668708e+02
256             	3.72767809e+02
257             	3.72840898e+02
258             	3.72874118e+02
259             	3.72897462e+02
260             	3.72911961e+02
261             	3.72913459e+02
262             	3.72939401e+02
263             	3.72992556e+02
264             	3.73027009e+02
265             	3.73066457e+02
266             	3.73109785e+02
267             	3.73156354e+02
268             	3.73191199e+02
269             	3.73244642e+02
270             	3.73322957e+02
271             	3.73374146e+02
272             	3.73358249e+02
273             	3.73291995e+02
274             	3.73213169e+02
275             	3.73181537e+02
276             	3.73186547e+02
277             	3.73203842e+02
278             	3.73224797e+02
279             	3.73235900e+02
280             	3.73252570e+02
281             	3.73268343e+02
282             	3.73304052e+02
283             	3.73400133e+02
284             	3.73433526e+02
285             	3.73397714e+02
286             	3.73269496e+02
287             	3.73199004e+02
288             	3.73174065e+02
289             	3.73194538e+02
290             	3.73242612e+02
291             	3.73302716e+02
292             	3.73360061e+02
293             	3.73403844e+02
294             	3.73429546e+02
295             	3.73446485e+02
296             	3.73506844e+02
297             	3.73532834e+02
298             	3.73529497e+02
299             	3.73511520e+02
300             	3.73497079e+02
301             	3.73527830e+02
302             	3.73576212e+02
303             	3.73575775e+02
304             	3.73605251e+02
305             	3.73643752e+02
306             	3.73688299e+02
307             	3.73705871e+02
308             	3.73742450e+02
309             	3.73796998e+02
310             	3.73788099e+02
311             	3.73765107e+02
312             	3.73715971e+02
313             	3.73649855e+02
314             	3.73618678e+02
315             	3.73642786e+02
316             	3.73686599e+02
317             	3.73734406e+02
318             	3.73772878e+02
319             	3.73783184e+02
320             	3.73854339e+02
321             	3.73914326e+02
322             	3.73960932e+02
323             	3.73995892e+02
324             	3.74037070e+02
325             	3.74055466e+02
326             	3.74042857e+02
327             	3.74030045e+02
328             	3.74019113e+02
329             	3.74003345e+02
330             	3.73983609e+02
331             	3.73967766e+02
332             	3.73968509e+02
333             	3.73982189e+02
334             	3.74013618e+02
335             	3.74049316e+02
336             	3.74091705e+02
337             	3.74134754e+02
338             	3.74176534e+02
339             	3.74216020e+02
340             	3.74246792e+02
341             	3.74275567e+02
342             	3.74279126e+02
343             	3.74281874e+02
344             	3.74287918e+02
345             	3.74289046e+02
346             	3.74287373e+02
347             	3.74278769e+02
348             	3.74264974e+02
349             	3.74237850e+02
350             	3.74218721e+02
351             	3.74211073e+02
352             	3.74212195e+02
353             	3.74219933e+02
354             	3.74232646e+02
355             	3.74245161e+02
356             	3.74259512e+02
357             	3.74277785e+02
358             	3.74296922e+02
359             	3.74309232e+02
360             	3.74321473e+02
361             	3.74338933e+02
362             	3.74355830e+02
363             	3.74365570e+02
364             	3.74371760e+02
365             	3.74372562e+02
366             	3.74366746e+02
367             	3.74358729e+02
368             	3.74355534e+02
369             	3.74361342e+02
370             	3.74367017e+02
371             	3.74374799e+02
372             	3.74379703e+02
373             	3.74387311e+02
374             	3.74398420e+02
375             	3.74406266e+02
376             	3.74409712e+02
377             	3.74412031e+02
378             	3.74414551e+02
379             	3.74413701e+02
380             	3.74412447e+02
381             	3.74412958e+02
382             	3.74414907e+02
383             	3.74416579e+02
384             	3.74420544e+02
385             	3.74428684e+02
386             	3.74438781e+02
387             	3.74448557e+02
388             	3.74458579e+02
389             	3.74465382e+02
390             	3.74476199e+02
391             	3.74486054e+02
392             	3.74492092e+02
393             	3.74494652e+02
394             	3.74494785e+02
395             	3.74493094e+02
396             	3.74490061e+02
397             	3.74486021e+02
398             	3.74480401e+02
399             	3.74472573e+02
400             	3.74465247e+02
401             	3.74462096e+02
402             	3.74461559e+02
403             	3.74461179e+02
404             	3.74462145e+02
405             	3.74463906e+02
406             	3.74464571e+02
407             	3.74464841e+02
408             	3.74466002e+02
409             	3.74467328e+02
410             	3.74468613e+02
411             	3.74468989e+02
412             	3.74468504e+02
413             	3.74464741e+02
414             	3.74462001e+02
415             	3.74460105e+02
416             	3.74459506e+02
417             	3.74461364e+02
418             	3.74465431e+02
419             	3.74470782e+02
420             	3.74476652e+02
421             	3.74482394e+02
422             	3.74487904e+02
423             	3.74492401e+02
424             	3.74494620e+02
425             	3.74494711e+02
426             	3.74492725e+02
427             	3.74490377e+02
428             	3.74489326e+02
429             	3.74486747e+02
430             	3.74481372e+02
431             	3.74474677e+02
432             	3.74466492e+02
433             	3.74458338e+02
434             	3.74451866e+02
435             	3.74447793e+02
436             	3.74445840e+02
437             	3.74445760e+02
438             	3.74447016e+02
439             	3.74450041e+02
440             	3.74452908e+02
441             	3.74455789e+02
442             	3.74458332e+02
443             	3.74462486e+02
444             	3.74467059e+02
445             	3.74470643e+02
446             	3.74473695e+02
447             	3.74476670e+02
448             	3.74479816e+02
449             	3.74483043e+02
450             	3.74486243e+02
451             	3.74489411e+02
452             	3.74493467e+02
453             	3.74497251e+02
454             	3.74500100e+02
455             	3.74503014e+02
456             	3.74505873e+02
457             	3.74508656e+02
458             	3.74511442e+02
459             	3.74513373e+02
460             	3.74515949e+02
461             	3.74517903e+02
462             	3.74519011e+02
463             	3.74519420e+02
464             	3.74518285e+02
465             	3.74515358e+02
466             	3.74512253e+02
467             	3.74510760e+02
468             	3.74510389e+02
469             	3.74511070e+02
470             	3.74514017e+02
471             	3.74520682e+02
472             	3.74527900e+02
473             	3.74535097e+02
474             	3.74541586e+02
475             	3.74548589e+02
476             	3.74555130e+02
477             	3.74561063e+02
478             	3.74567377e+02
479             	3.74571299e+02
480             	3.74572667e+02
481             	3.74572198e+02
482             	3.74571162e+02
483             	3.74570082e+02
484             	3.74568180e+02
485             	3.74566109e+02
486             	3.74564287e+02
487             	3.74562659e+02
488             	3.74561209e+02
489             	3.74560253e+02
490             	3.74560191e+02
491             	3.74560721e+02
492             	3.74561881e+02
493             	3.74563239e+02
494             	3.74564613e+02
495             	3.74565940e+02
496             	3.74566995e+02
497             	3.74567721e+02
498             	3.74568107e+02
499             	3.74567921e+02
500             	3.74567335e+02
501             	3.74566997e+02
502             	3.74566832e+02
503             	3.74566738e+02
504             	3.74566670e+02
505             	3.74567242e+02
506             	3.74568341e+02
507             	3.74569415e+02
508             	3.74570508e+02
509             	3.74571677e+02
510             	3.74573166e+02
511             	3.74574768e+02
512             	3.74576207e+02
513             	3.74577701e+02
514             	3.74579282e+02
515             	3.74580926e+02
516             	3.74582988e+02
517             	3.74584933e+02
518             	3.74585708e+02
519             	3.74585637e+02
520             	3.74585092e+02
521             	3.74584504e+02
522             	3.74583688e+02
523             	3.74582365e+02
524             	3.74580315e+02
525             	3.74577843e+02
526             	3.74575149e+02
527             	3.74572685e+02
528             	3.74570267e+02
529             	3.74567853e+02
530             	3.74565836e+02
531             	3.74564310e+02
532             	3.74563258e+02
533             	3.74562760e+02
534             	3.74563075e+02
535             	3.74563964e+02
536             	3.74565359e+02
537             	3.74566396e+02
538             	3.74567678e+02
539             	3.74569095e+02
540             	3.74570918e+02
541             	3.74572667e+02
542             	3.74574134e+02
543             	3.74575244e+02
544             	3.74575965e+02
545             	3.74576285e+02
546             	3.74576385e+02
547             	3.74575978e+02
548             	3.74575088e+02
549             	3.74573617e+02
550             	3.74572128e+02
551             	3.74571083e+02
552             	3.74570044e+02
553             	3.74569034e+02
554             	3.74568100e+02
555             	3.74567451e+02
556             	3.74566835e+02
557             	3.74566477e+02
558             	3.74566558e+02
559             	3.74567031e+02
560             	3.74567890e+02
561             	3.74568698e+02
562             	3.74569596e+02
563             	3.74570484e+02
564             	3.74571269e+02
565             	3.74571930e+02
566             	3.74572530e+02
567             	3.74573186e+02
568             	3.74573775e+02
569             	3.74574301e+02
570             	3.74574775e+02
571             	3.74575412e+02
572             	3.74576074e+02
573             	3.74576501e+02
574             	3.74576911e+02
575             	3.74577406e+02
576             	3.74578000e+02
577             	3.74578638e+02
578             	3.74579272e+02
579             	3.74579828e+02
580             	3.74580279e+02
581             	3.74580468e+02
582             	3.74580379e+02
583             	3.74580064e+02
584             	3.74579583e+02
585             	3.74579009e+02
586             	3.74578327e+02
587             	3.74577530e+02
588             	3.74576711e+02
589             	3.74576004e+02
590             	3.74575417e+02
591             	3.74575305e+02
592             	3.74575698e+02
593             	3.74576537e+02
594             	3.74577615e+02
595             	3.74578803e+02
596             	3.74580122e+02
597             	3.74581651e+02
598             	3.74583122e+02
599             	3.74584194e+02
600             	3.74584714e+02
601             	3.74585019e+02
602             	3.74585023e+02
603             	3.74584599e+02
604             	3.74583720e+02
605             	3.74582889e+02
606             	3.74582350e+02
607             	3.74581814e+02
608             	3.74581183e+02
609             	3.74580308e+02
610             	3.74579617e+02
611             	3.74579304e+02
612             	3.74579243e+02
613             	3.74579289e+02
614             	3.74579383e+02
615             	3.74579684e+02
616             	3.74580045e+02
617             	3.74580423e+02
618             	3.74580821e+02
619             	3.74581229e+02
620             	3.74581793e+02
621             	3.74582438e+02
