# Region        : cellZone component_3
# Cells         : 89
# Volume        : 1.50408841e-01
# Time          	volAverage(T)
1               	3.00225428e+02
2               	3.00448059e+02
3               	3.00658883e+02
4               	3.00862935e+02
5               	3.01063122e+02
6               	3.01260537e+02
7               	3.01455683e+02
8               	3.01649122e+02
9               	3.01842219e+02
10              	3.02034085e+02
11              	3.02222072e+02
12              	3.02406022e+02
13              	3.02587056e+02
14              	3.02766901e+02
15              	3.02944113e+02
16              	3.03118902e+02
17              	3.03290191e+02
18              	3.03457290e+02
19              	3.03620197e+02
20              	3.03782030e+02
21              	3.03944633e+02
22              	3.04106163e+02
23              	3.04267267e+02
24              	3.04427757e+02
25              	3.04585940e+02
26              	3.04744084e+02
27              	3.04899733e+02
28              	3.05051760e+02
29              	3.05201259e+02
30              	3.05347556e+02
31              	3.05490155e+02
32              	3.05630139e+02
33              	3.05768055e+02
34              	3.05903941e+02
35              	3.06038039e+02
36              	3.06169974e+02
37              	3.06299392e+02
38              	3.06427494e+02
39              	3.06554568e+02
40              	3.06682008e+02
41              	3.06809644e+02
42              	3.06934780e+02
43              	3.07055700e+02
44              	3.07177384e+02
45              	3.07303857e+02
46              	3.07419339e+02
47              	3.07524360e+02
48              	3.07625441e+02
49              	3.07725011e+02
50              	3.07822557e+02
51              	3.07918567e+02
52              	3.08012808e+02
53              	3.08103948e+02
54              	3.08192435e+02
55              	3.08279726e+02
56              	3.08364912e+02
57              	3.08454196e+02
58              	3.08545853e+02
59              	3.08636694e+02
60              	3.08725508e+02
61              	3.08816365e+02
62              	3.08911443e+02
63              	3.09007147e+02
64              	3.09094803e+02
65              	3.09178429e+02
66              	3.09268476e+02
67              	3.09359956e+02
68              	3.09447227e+02
69              	3.09524657e+02
70              	3.09596271e+02
71              	3.09656993e+02
72              	3.09709789e+02
73              	3.09760740e+02
74              	3.09813150e+02
75              	3.09864378e+02
76              	3.09911674e+02
77              	3.09955675e+02
78              	3.09999530e+02
79              	3.10043904e+02
80              	3.10088687e+02
81              	3.10132845e+02
82              	3.10179970e+02
83              	3.10228509e+02
84              	3.10279131e+02
85              	3.10330385e+02
86              	3.10381018e+02
87              	3.10431213e+02
88              	3.10481531e+02
89              	3.10532066e+02
90              	3.10582382e+02
91              	3.10631599e+02
92              	3.10678874e+02
93              	3.10724154e+02
94              	3.10768604e+02
95              	3.10812324e+02
96              	3.10856368e+02
97              	3.10900815e+02
98              	3.10945243e+02
99              	3.10990000e+02
100             	3.11035715e+02
101             	3.11082696e+02
102             	3.11130936e+02
103             	3.11178576e+02
104             	3.11226853e+02
105             	3.11276067e+02
106             	3.11325526e+02
107             	3.11373456e+02
108             	3.11418976e+02
109             	3.11463328e+02
110             	3.11504610e+02
111             	3.11546283e+02
112             	3.11586771e+02
113             	3.11623492e+02
114             	3.11660000e+02
115             	3.11694344e+02
116             	3.11726909e+02
117             	3.11758166e+02
118             	3.11788811e+02
119             	3.11817845e+02
120             	3.11846242e+02
121             	3.11871981e+02
122             	3.11897960e+02
123             	3.11923178e+02
124             	3.11949286e+02
125             	3.11974482e+02
126             	3.12002383e+02
127             	3.12027720e+02
128             	3.12048331e+02
129             	3.12070036e+02
130             	3.12091882e+02
131             	3.12113762e+02
132             	3.12135727e+02
133             	3.12157000e+02
134             	3.12178132e+02
135             	3.12199086e+02
136             	3.12219970e+02
137             	3.12243572e+02
138             	3.12264453e+02
139             	3.12286528e+02
140             	3.12308375e+02
141             	3.12330750e+02
142             	3.12353135e+02
143             	3.12376251e+02
144             	3.12395638e+02
145             	3.12416494e+02
146             	3.12435882e+02
147             	3.12455097e+02
148             	3.12473899e+02
149             	3.12489173e+02
150             	3.12505515e+02
151             	3.12522508e+02
152             	3.12537930e+02
153             	3.12555403e+02
154             	3.12571444e+02
155             	3.12588695e+02
156             	3.12606804e+02
157             	3.12624155e+02
158             	3.12642459e+02
159             	3.12659125e+02
160             	3.12675548e+02
161             	3.12690869e+02
162             	3.12705064e+02
163             	3.12719093e+02
164             	3.12732147e+02
165             	3.12744475e+02
166             	3.12756423e+02
167             	3.12768253e+02
168             	3.12780473e+02
169             	3.12789886e+02
170             	3.12800685e+02
171             	3.12811924e+02
172             	3.12821916e+02
173             	3.12831503e+02
174             	3.12842408e+02
175             	3.12853575e+02
176             	3.12864598e+02
177             	3.12875767e+02
178             	3.12887196e+02
179             	3.12896103e+02
180             	3.12906539e+02
181             	3.12916456e+02
182             	3.12924185e+02
183             	3.12932992e+02
184             	3.12941705e+02
185             	3.12949566e+02
186             	3.12956462e+02
187             	3.12965204e+02
188             	3.12972208e+02
189             	3.12980046e+02
190             	3.12989548e+02
191             	3.12998598e+02
192             	3.13008649e+02
193             	3.13018683e+02
194             	3.13027756e+02
195             	3.13038047e+02
196             	3.13046890e+02
197             	3.13055481e+02
198             	3.13062697e+02
199             	3.13069313e+02
200             	3.13074583e+02
201             	3.13079981e+02
202             	3.13086858e+02
203             	3.13095107e+02
204             	3.13100778e+02
205             	3.13107205e+02
206             	3.13114468e+02
207             	3.13121980e+02
208             	3.13129894e+02
209             	3.13139032e+02
210             	3.13147874e+02
211             	3.13154699e+02
212             	3.13162570e+02
213             	3.13170711e+02
214             	3.13177909e+02
215             	3.13184346e+02
216             	3.13190314e+02
217             	3.13195248e+02
218             	3.13201198e+02
219             	3.13207879e+02
220             	3.13212555e+02
221             	3.13217437e+02
222             	3.13223498e+02
223             	3.13229971e+02
224             	3.13236867e+02
225             	3.13243694e+02
226             	3.13250212e+02
227             	3.13256063e+02
228             	3.13261962e+02
229             	3.13267593e+02
230             	3.13272332e+02
231             	3.13276882e+02
232             	3.13281811e+02
233             	3.13287265e+02
234             	3.13291617e+02
235             	3.13296120e+02
236             	3.13301107e+02
237             	3.13304825e+02
238             	3.13309473e+02
239             	3.13312985e+02
240             	3.13316747e+02
241             	3.13322034e+02
242             	3.13325651e+02
243             	3.13330031e+02
244             	3.13334299e+02
245             	3.13338899e+02
246             	3.13343890e+02
247             	3.13347796e+02
248             	3.13349583e+02
249             	3.13353759e+02
250             	3.13356283e+02
251             	3.13359134e+02
252             	3.13361971e+02
253             	3.13364804e+02
254             	3.13368338e+02
255             	3.13370099e+02
256             	3.13371850e+02
257             	3.13374324e+02
258             	3.13377172e+02
259             	3.13379891e+02
260             	3.13382167e+02
261             	3.13384923e+02
262             	3.13387343e+02
263             	3.13390320e+02
264             	3.13393021e+02
265             	3.13395798e+02
266             	3.13398669e+02
267             	3.13402097e+02
268             	3.13404831e+02
269             	3.13406067e+02
270             	3.13407762e+02
271             	3.13409801e+02
272             	3.13411876e+02
273             	3.13414683e+02
274             	3.13417411e+02
275             	3.13419764e+02
276             	3.13421886e+02
277             	3.13423807e+02
278             	3.13425688e+02
279             	3.13428658e+02
280             	3.13431290e+02
281             	3.13432930e+02
282             	3.13434645e+02
283             	3.13436650e+02
284             	3.13439180e+02
285             	3.13442037e+02
286             	3.13444898e+02
287             	3.13446891e+02
288             	3.13447884e+02
289             	3.13450362e+02
290             	3.13452972e+02
291             	3.13455077e+02
292             	3.13456708e+02
293             	3.13458082e+02
294             	3.13459356e+02
295             	3.13460966e+02
296             	3.13463300e+02
297             	3.13464801e+02
298             	3.13466153e+02
299             	3.13467958e+02
300             	3.13470165e+02
301             	3.13472690e+02
302             	3.13475235e+02
303             	3.13477187e+02
304             	3.13478839e+02
305             	3.13480862e+02
306             	3.13482830e+02
307             	3.13484547e+02
308             	3.13485989e+02
309             	3.13487081e+02
310             	3.13488119e+02
311             	3.13489788e+02
312             	3.13491667e+02
313             	3.13492778e+02
314             	3.13493900e+02
315             	3.13495379e+02
316             	3.13497431e+02
317             	3.13499540e+02
318             	3.13500895e+02
319             	3.13501806e+02
320             	3.13503610e+02
321             	3.13505498e+02
322             	3.13507095e+02
323             	3.13508351e+02
324             	3.13509181e+02
325             	3.13510418e+02
326             	3.13511928e+02
327             	3.13512697e+02
328             	3.13513546e+02
329             	3.13514728e+02
330             	3.13516349e+02
331             	3.13517991e+02
332             	3.13519667e+02
333             	3.13521346e+02
334             	3.13522778e+02
335             	3.13523809e+02
336             	3.13525250e+02
337             	3.13526675e+02
338             	3.13528027e+02
339             	3.13529083e+02
340             	3.13530059e+02
341             	3.13530863e+02
342             	3.13531650e+02
343             	3.13532398e+02
344             	3.13533148e+02
345             	3.13534009e+02
346             	3.13535195e+02
347             	3.13536445e+02
348             	3.13537513e+02
349             	3.13538649e+02
350             	3.13539882e+02
351             	3.13541153e+02
352             	3.13542323e+02
353             	3.13543347e+02
354             	3.13544376e+02
355             	3.13545572e+02
356             	3.13546843e+02
357             	3.13548032e+02
358             	3.13549044e+02
359             	3.13549825e+02
360             	3.13550671e+02
361             	3.13551539e+02
362             	3.13552331e+02
363             	3.13552990e+02
364             	3.13553617e+02
365             	3.13554542e+02
366             	3.13555432e+02
367             	3.13556582e+02
368             	3.13557516e+02
369             	3.13558407e+02
370             	3.13559395e+02
371             	3.13560438e+02
372             	3.13561403e+02
373             	3.13562495e+02
374             	3.13563462e+02
375             	3.13564490e+02
376             	3.13565420e+02
377             	3.13566327e+02
378             	3.13567190e+02
379             	3.13567989e+02
380             	3.13568773e+02
381             	3.13569559e+02
382             	3.13570345e+02
383             	3.13571157e+02
384             	3.13571988e+02
385             	3.13572695e+02
386             	3.13573378e+02
387             	3.13574115e+02
388             	3.13575015e+02
389             	3.13575957e+02
390             	3.13576808e+02
391             	3.13577645e+02
392             	3.13578564e+02
393             	3.13579335e+02
394             	3.13580223e+02
395             	3.13581020e+02
396             	3.13581824e+02
397             	3.13582359e+02
398             	3.13583162e+02
399             	3.13583551e+02
400             	3.13584224e+02
401             	3.13584953e+02
402             	3.13585663e+02
403             	3.13586372e+02
404             	3.13587124e+02
405             	3.13587963e+02
406             	3.13588543e+02
407             	3.13588933e+02
408             	3.13589424e+02
409             	3.13590026e+02
410             	3.13590816e+02
411             	3.13591555e+02
412             	3.13592285e+02
413             	3.13593015e+02
414             	3.13593743e+02
415             	3.13594460e+02
416             	3.13595142e+02
417             	3.13595770e+02
418             	3.13596399e+02
419             	3.13597013e+02
420             	3.13597556e+02
421             	3.13598181e+02
422             	3.13598722e+02
423             	3.13599189e+02
424             	3.13599738e+02
425             	3.13600290e+02
426             	3.13600823e+02
427             	3.13601382e+02
428             	3.13602035e+02
429             	3.13602578e+02
430             	3.13603106e+02
431             	3.13603698e+02
432             	3.13604311e+02
433             	3.13604936e+02
434             	3.13605593e+02
435             	3.13606252e+02
436             	3.13606820e+02
437             	3.13607421e+02
438             	3.13608046e+02
439             	3.13608671e+02
440             	3.13609226e+02
441             	3.13609736e+02
442             	3.13610259e+02
443             	3.13610802e+02
444             	3.13611350e+02
445             	3.13611904e+02
446             	3.13612471e+02
447             	3.13612986e+02
448             	3.13613495e+02
449             	3.13614068e+02
450             	3.13614659e+02
451             	3.13615162e+02
452             	3.13615641e+02
453             	3.13616178e+02
454             	3.13616788e+02
455             	3.13617388e+02
456             	3.13617935e+02
457             	3.13618404e+02
458             	3.13618965e+02
459             	3.13619514e+02
460             	3.13620082e+02
461             	3.13620528e+02
462             	3.13621019e+02
463             	3.13621519e+02
464             	3.13622080e+02
465             	3.13622684e+02
466             	3.13623149e+02
467             	3.13623593e+02
468             	3.13624091e+02
469             	3.13624598e+02
470             	3.13625101e+02
471             	3.13625560e+02
472             	3.13626060e+02
473             	3.13626541e+02
474             	3.13627028e+02
475             	3.13627513e+02
476             	3.13627941e+02
477             	3.13628263e+02
478             	3.13628654e+02
479             	3.13629067e+02
480             	3.13629474e+02
481             	3.13629854e+02
482             	3.13630252e+02
483             	3.13630711e+02
484             	3.13631064e+02
485             	3.13631430e+02
486             	3.13631838e+02
487             	3.13632217e+02
488             	3.13632633e+02
489             	3.13632929e+02
490             	3.13633257e+02
491             	3.13633634e+02
492             	3.13634000e+02
493             	3.13634338e+02
494             	3.13634657e+02
495             	3.13634974e+02
496             	3.13635299e+02
497             	3.13635675e+02
498             	3.13635954e+02
499             	3.13636244e+02
500             	3.13636570e+02
501             	3.13636921e+02
502             	3.13637309e+02
503             	3.13637688e+02
504             	3.13637953e+02
505             	3.13638252e+02
506             	3.13638599e+02
507             	3.13638951e+02
508             	3.13639294e+02
509             	3.13639623e+02
510             	3.13639936e+02
511             	3.13640225e+02
512             	3.13640505e+02
513             	3.13640798e+02
514             	3.13641151e+02
515             	3.13641473e+02
516             	3.13641786e+02
517             	3.13642127e+02
518             	3.13642462e+02
519             	3.13642803e+02
520             	3.13643145e+02
521             	3.13643475e+02
522             	3.13643801e+02
523             	3.13644158e+02
524             	3.13644514e+02
525             	3.13644757e+02
526             	3.13645057e+02
527             	3.13645372e+02
528             	3.13645708e+02
529             	3.13646022e+02
530             	3.13646276e+02
531             	3.13646553e+02
532             	3.13646853e+02
533             	3.13647231e+02
534             	3.13647530e+02
535             	3.13647811e+02
536             	3.13648097e+02
537             	3.13648446e+02
538             	3.13648786e+02
539             	3.13649047e+02
540             	3.13649364e+02
541             	3.13649633e+02
542             	3.13649953e+02
543             	3.13650281e+02
544             	3.13650580e+02
545             	3.13650873e+02
546             	3.13651137e+02
547             	3.13651397e+02
548             	3.13651660e+02
549             	3.13651922e+02
550             	3.13652242e+02
551             	3.13652544e+02
552             	3.13652837e+02
553             	3.13653120e+02
554             	3.13653403e+02
555             	3.13653699e+02
556             	3.13654006e+02
557             	3.13654317e+02
558             	3.13654569e+02
559             	3.13654851e+02
560             	3.13655131e+02
561             	3.13655398e+02
562             	3.13655640e+02
563             	3.13655848e+02
564             	3.13656099e+02
565             	3.13656337e+02
566             	3.13656564e+02
567             	3.13656818e+02
568             	3.13657068e+02
569             	3.13657354e+02
570             	3.13657608e+02
571             	3.13657817e+02
572             	3.13658051e+02
573             	3.13658282e+02
574             	3.13658499e+02
575             	3.13658674e+02
576             	3.13658917e+02
577             	3.13659196e+02
578             	3.13659468e+02
579             	3.13659718e+02
580             	3.13659945e+02
581             	3.13660158e+02
582             	3.13660348e+02
583             	3.13660545e+02
584             	3.13660725e+02
585             	3.13660878e+02
586             	3.13661059e+02
587             	3.13661243e+02
588             	3.13661424e+02
589             	3.13661601e+02
590             	3.13661785e+02
591             	3.13661966e+02
592             	3.13662168e+02
593             	3.13662394e+02
594             	3.13662581e+02
595             	3.13662768e+02
596             	3.13662971e+02
597             	3.13663156e+02
598             	3.13663329e+02
599             	3.13663523e+02
600             	3.13663659e+02
601             	3.13663822e+02
602             	3.13663991e+02
603             	3.13664166e+02
604             	3.13664325e+02
605             	3.13664510e+02
606             	3.13664707e+02
607             	3.13664878e+02
608             	3.13665024e+02
609             	3.13665191e+02
610             	3.13665355e+02
611             	3.13665518e+02
612             	3.13665690e+02
613             	3.13665872e+02
614             	3.13666052e+02
615             	3.13666227e+02
616             	3.13666417e+02
617             	3.13666591e+02
618             	3.13666772e+02
619             	3.13666920e+02
620             	3.13667070e+02
621             	3.13667170e+02
