# Region        : cellZone component_3
# Cells         : 85
# Volume        : 1.38495781e-01
# Time          	volAverage(T)
1               	3.00344301e+02
2               	3.00682962e+02
3               	3.01000267e+02
4               	3.01303218e+02
5               	3.01598849e+02
6               	3.01887711e+02
7               	3.02171339e+02
8               	3.02449534e+02
9               	3.02723912e+02
10              	3.02994921e+02
11              	3.03262545e+02
12              	3.03528327e+02
13              	3.03789203e+02
14              	3.04046585e+02
15              	3.04298170e+02
16              	3.04542144e+02
17              	3.04774096e+02
18              	3.04993268e+02
19              	3.05199617e+02
20              	3.05388902e+02
21              	3.05582339e+02
22              	3.05784037e+02
23              	3.05981575e+02
24              	3.06175072e+02
25              	3.06365777e+02
26              	3.06544606e+02
27              	3.06715496e+02
28              	3.06884653e+02
29              	3.07056548e+02
30              	3.07228221e+02
31              	3.07395317e+02
32              	3.07542751e+02
33              	3.07675684e+02
34              	3.07797004e+02
35              	3.07910153e+02
36              	3.08020561e+02
37              	3.08141017e+02
38              	3.08279310e+02
39              	3.08419500e+02
40              	3.08558658e+02
41              	3.08693196e+02
42              	3.08818462e+02
43              	3.08949903e+02
44              	3.09081035e+02
45              	3.09223935e+02
46              	3.09342943e+02
47              	3.09438916e+02
48              	3.09509283e+02
49              	3.09577707e+02
50              	3.09678481e+02
51              	3.09778177e+02
52              	3.09874576e+02
53              	3.09973631e+02
54              	3.10068940e+02
55              	3.10160091e+02
56              	3.10254333e+02
57              	3.10346070e+02
58              	3.10434983e+02
59              	3.10505194e+02
60              	3.10564334e+02
61              	3.10609032e+02
62              	3.10631482e+02
63              	3.10637896e+02
64              	3.10666523e+02
65              	3.10708323e+02
66              	3.10759624e+02
67              	3.10815043e+02
68              	3.10872719e+02
69              	3.10932920e+02
70              	3.10993809e+02
71              	3.11052639e+02
72              	3.11110371e+02
73              	3.11168172e+02
74              	3.11232317e+02
75              	3.11298471e+02
76              	3.11360207e+02
77              	3.11403284e+02
78              	3.11425583e+02
79              	3.11457895e+02
80              	3.11507653e+02
81              	3.11565399e+02
82              	3.11620461e+02
83              	3.11673683e+02
84              	3.11727811e+02
85              	3.11784283e+02
86              	3.11837916e+02
87              	3.11890223e+02
88              	3.11947405e+02
89              	3.12009121e+02
90              	3.12069993e+02
91              	3.12134394e+02
92              	3.12204098e+02
93              	3.12275645e+02
94              	3.12345546e+02
95              	3.12407089e+02
96              	3.12456063e+02
97              	3.12498961e+02
98              	3.12547922e+02
99              	3.12592765e+02
100             	3.12631766e+02
101             	3.12667418e+02
102             	3.12701524e+02
103             	3.12737404e+02
104             	3.12776755e+02
105             	3.12819548e+02
106             	3.12863035e+02
107             	3.12913212e+02
108             	3.12958246e+02
109             	3.12985091e+02
110             	3.13006470e+02
111             	3.13036723e+02
112             	3.13073677e+02
113             	3.13110176e+02
114             	3.13143162e+02
115             	3.13174005e+02
116             	3.13203703e+02
117             	3.13232991e+02
118             	3.13258941e+02
119             	3.13287184e+02
120             	3.13318476e+02
121             	3.13352659e+02
122             	3.13393054e+02
123             	3.13438012e+02
124             	3.13476817e+02
125             	3.13502752e+02
126             	3.13528040e+02
127             	3.13560704e+02
128             	3.13591616e+02
129             	3.13617828e+02
130             	3.13638362e+02
131             	3.13657098e+02
132             	3.13673215e+02
133             	3.13689521e+02
134             	3.13709999e+02
135             	3.13733116e+02
136             	3.13762143e+02
137             	3.13800384e+02
138             	3.13819945e+02
139             	3.13825227e+02
140             	3.13837969e+02
141             	3.13855299e+02
142             	3.13868367e+02
143             	3.13878086e+02
144             	3.13886515e+02
145             	3.13893259e+02
146             	3.13898840e+02
147             	3.13902356e+02
148             	3.13904435e+02
149             	3.13907352e+02
150             	3.13913716e+02
151             	3.13922140e+02
152             	3.13938715e+02
153             	3.13957870e+02
154             	3.13984049e+02
155             	3.14009532e+02
156             	3.14037565e+02
157             	3.14066965e+02
158             	3.14095532e+02
159             	3.14122581e+02
160             	3.14148397e+02
161             	3.14172600e+02
162             	3.14194476e+02
163             	3.14214404e+02
164             	3.14232288e+02
165             	3.14249847e+02
166             	3.14268498e+02
167             	3.14290747e+02
168             	3.14316194e+02
169             	3.14344698e+02
170             	3.14376300e+02
171             	3.14409870e+02
172             	3.14443458e+02
173             	3.14479340e+02
174             	3.14513402e+02
175             	3.14546289e+02
176             	3.14577221e+02
177             	3.14606325e+02
178             	3.14633124e+02
179             	3.14658418e+02
180             	3.14682280e+02
181             	3.14704838e+02
182             	3.14724929e+02
183             	3.14742809e+02
184             	3.14762041e+02
185             	3.14782380e+02
186             	3.14804191e+02
187             	3.14828272e+02
188             	3.14852715e+02
189             	3.14880282e+02
190             	3.14908823e+02
191             	3.14938090e+02
192             	3.14968782e+02
193             	3.14997085e+02
194             	3.15022680e+02
195             	3.15044799e+02
196             	3.15063880e+02
197             	3.15080643e+02
198             	3.15095378e+02
199             	3.15107724e+02
200             	3.15117523e+02
201             	3.15125390e+02
202             	3.15134048e+02
203             	3.15146220e+02
204             	3.15161575e+02
205             	3.15180304e+02
206             	3.15201474e+02
207             	3.15218493e+02
208             	3.15240593e+02
209             	3.15260629e+02
210             	3.15276342e+02
211             	3.15285837e+02
212             	3.15292849e+02
213             	3.15299091e+02
214             	3.15304409e+02
215             	3.15310931e+02
216             	3.15318667e+02
217             	3.15324924e+02
218             	3.15334550e+02
219             	3.15345131e+02
220             	3.15361163e+02
221             	3.15379011e+02
222             	3.15400024e+02
223             	3.15424145e+02
224             	3.15448271e+02
225             	3.15471227e+02
226             	3.15492421e+02
227             	3.15511527e+02
228             	3.15528074e+02
229             	3.15541819e+02
230             	3.15553590e+02
231             	3.15563760e+02
232             	3.15572259e+02
233             	3.15579233e+02
234             	3.15585208e+02
235             	3.15591735e+02
236             	3.15599807e+02
237             	3.15610004e+02
238             	3.15622035e+02
239             	3.15636327e+02
240             	3.15653177e+02
241             	3.15672320e+02
242             	3.15689124e+02
243             	3.15703873e+02
244             	3.15719217e+02
245             	3.15730788e+02
246             	3.15738481e+02
247             	3.15743279e+02
248             	3.15745769e+02
249             	3.15747417e+02
250             	3.15749291e+02
251             	3.15752008e+02
252             	3.15755815e+02
253             	3.15763002e+02
254             	3.15773527e+02
255             	3.15785350e+02
256             	3.15797630e+02
257             	3.15810317e+02
258             	3.15822149e+02
259             	3.15830151e+02
260             	3.15836363e+02
261             	3.15840043e+02
262             	3.15842367e+02
263             	3.15844900e+02
264             	3.15846017e+02
265             	3.15846443e+02
266             	3.15848516e+02
267             	3.15853273e+02
268             	3.15859426e+02
269             	3.15871389e+02
270             	3.15884084e+02
271             	3.15895375e+02
272             	3.15904450e+02
273             	3.15912624e+02
274             	3.15919772e+02
275             	3.15925011e+02
276             	3.15928932e+02
277             	3.15932136e+02
278             	3.15934460e+02
279             	3.15938125e+02
280             	3.15943790e+02
281             	3.15951524e+02
282             	3.15960785e+02
283             	3.15971924e+02
284             	3.15985504e+02
285             	3.16000535e+02
286             	3.16015886e+02
287             	3.16031857e+02
288             	3.16046007e+02
289             	3.16060102e+02
290             	3.16072455e+02
291             	3.16082983e+02
292             	3.16092292e+02
293             	3.16100553e+02
294             	3.16108445e+02
295             	3.16116844e+02
296             	3.16125764e+02
297             	3.16134634e+02
298             	3.16144557e+02
299             	3.16156525e+02
300             	3.16169963e+02
301             	3.16184837e+02
302             	3.16197131e+02
303             	3.16209997e+02
304             	3.16222241e+02
305             	3.16233879e+02
306             	3.16242938e+02
307             	3.16251403e+02
308             	3.16259316e+02
309             	3.16265854e+02
310             	3.16271906e+02
311             	3.16278456e+02
312             	3.16283512e+02
313             	3.16289499e+02
314             	3.16297320e+02
315             	3.16307066e+02
316             	3.16316957e+02
317             	3.16325830e+02
318             	3.16336442e+02
319             	3.16347502e+02
320             	3.16357856e+02
321             	3.16366852e+02
322             	3.16374739e+02
323             	3.16381337e+02
324             	3.16386710e+02
325             	3.16391111e+02
326             	3.16394822e+02
327             	3.16398693e+02
328             	3.16403976e+02
329             	3.16410669e+02
330             	3.16416044e+02
331             	3.16422506e+02
332             	3.16430295e+02
333             	3.16438794e+02
334             	3.16447421e+02
335             	3.16455701e+02
336             	3.16462893e+02
337             	3.16469712e+02
338             	3.16475459e+02
339             	3.16480174e+02
340             	3.16484200e+02
341             	3.16486960e+02
342             	3.16489835e+02
343             	3.16493457e+02
344             	3.16496183e+02
345             	3.16499546e+02
346             	3.16504406e+02
347             	3.16510557e+02
348             	3.16517462e+02
349             	3.16523043e+02
350             	3.16528152e+02
351             	3.16533665e+02
352             	3.16538481e+02
353             	3.16542625e+02
354             	3.16546189e+02
355             	3.16549718e+02
356             	3.16551978e+02
357             	3.16554613e+02
358             	3.16558505e+02
359             	3.16562764e+02
360             	3.16567113e+02
361             	3.16572410e+02
362             	3.16578305e+02
363             	3.16584739e+02
364             	3.16592111e+02
365             	3.16597546e+02
366             	3.16603813e+02
367             	3.16610073e+02
368             	3.16615534e+02
369             	3.16620379e+02
370             	3.16624532e+02
371             	3.16628222e+02
372             	3.16631749e+02
373             	3.16635017e+02
374             	3.16638220e+02
375             	3.16641239e+02
376             	3.16644692e+02
377             	3.16648066e+02
378             	3.16651718e+02
379             	3.16655600e+02
380             	3.16659549e+02
381             	3.16663724e+02
382             	3.16667925e+02
383             	3.16672062e+02
384             	3.16676010e+02
385             	3.16679879e+02
386             	3.16683658e+02
387             	3.16687420e+02
388             	3.16691201e+02
389             	3.16695036e+02
390             	3.16698965e+02
391             	3.16701339e+02
392             	3.16704158e+02
393             	3.16706819e+02
394             	3.16709120e+02
395             	3.16711136e+02
396             	3.16712983e+02
397             	3.16714620e+02
398             	3.16715943e+02
399             	3.16717269e+02
400             	3.16719519e+02
401             	3.16721470e+02
402             	3.16723739e+02
403             	3.16726664e+02
404             	3.16730093e+02
405             	3.16733634e+02
406             	3.16737414e+02
407             	3.16741348e+02
408             	3.16745271e+02
409             	3.16749109e+02
410             	3.16751929e+02
411             	3.16754953e+02
412             	3.16757892e+02
413             	3.16760477e+02
414             	3.16762713e+02
415             	3.16764802e+02
416             	3.16766647e+02
417             	3.16768116e+02
418             	3.16770126e+02
419             	3.16771836e+02
420             	3.16773220e+02
421             	3.16774904e+02
422             	3.16777043e+02
423             	3.16779633e+02
424             	3.16782609e+02
425             	3.16785189e+02
426             	3.16788363e+02
427             	3.16790767e+02
428             	3.16793091e+02
429             	3.16795496e+02
430             	3.16797580e+02
431             	3.16799679e+02
432             	3.16801792e+02
433             	3.16803117e+02
434             	3.16804197e+02
435             	3.16805291e+02
436             	3.16806442e+02
437             	3.16807293e+02
438             	3.16808126e+02
439             	3.16809179e+02
440             	3.16810267e+02
441             	3.16811507e+02
442             	3.16812886e+02
443             	3.16814367e+02
444             	3.16815991e+02
445             	3.16817384e+02
446             	3.16818513e+02
447             	3.16819850e+02
448             	3.16821413e+02
449             	3.16822840e+02
450             	3.16824204e+02
451             	3.16825662e+02
452             	3.16827054e+02
453             	3.16828343e+02
454             	3.16829508e+02
455             	3.16830828e+02
456             	3.16831995e+02
457             	3.16833272e+02
458             	3.16834658e+02
459             	3.16836224e+02
460             	3.16837768e+02
461             	3.16839410e+02
462             	3.16841106e+02
463             	3.16842695e+02
464             	3.16844173e+02
465             	3.16845300e+02
466             	3.16846539e+02
467             	3.16847796e+02
468             	3.16849093e+02
469             	3.16850338e+02
470             	3.16851556e+02
471             	3.16852845e+02
472             	3.16854136e+02
473             	3.16855259e+02
474             	3.16856595e+02
475             	3.16857955e+02
476             	3.16859434e+02
477             	3.16860990e+02
478             	3.16862605e+02
479             	3.16864163e+02
480             	3.16865634e+02
481             	3.16867106e+02
482             	3.16868495e+02
483             	3.16869689e+02
484             	3.16870812e+02
485             	3.16871885e+02
486             	3.16872895e+02
487             	3.16873711e+02
488             	3.16874615e+02
489             	3.16875429e+02
490             	3.16876243e+02
491             	3.16877104e+02
492             	3.16878074e+02
493             	3.16879107e+02
494             	3.16880173e+02
495             	3.16881216e+02
496             	3.16882311e+02
497             	3.16883413e+02
498             	3.16884522e+02
499             	3.16885629e+02
500             	3.16886732e+02
501             	3.16887831e+02
502             	3.16888695e+02
503             	3.16889608e+02
504             	3.16890529e+02
505             	3.16891409e+02
506             	3.16892251e+02
507             	3.16893084e+02
508             	3.16893906e+02
509             	3.16894785e+02
510             	3.16895767e+02
511             	3.16896612e+02
512             	3.16897477e+02
513             	3.16898343e+02
514             	3.16899272e+02
515             	3.16900193e+02
516             	3.16901115e+02
517             	3.16902056e+02
518             	3.16903000e+02
519             	3.16903747e+02
520             	3.16904571e+02
521             	3.16905394e+02
522             	3.16905830e+02
523             	3.16906264e+02
524             	3.16906636e+02
525             	3.16906910e+02
526             	3.16907076e+02
527             	3.16907164e+02
528             	3.16907423e+02
529             	3.16907570e+02
530             	3.16907723e+02
531             	3.16907979e+02
532             	3.16908316e+02
533             	3.16908714e+02
534             	3.16909148e+02
535             	3.16909594e+02
536             	3.16910041e+02
537             	3.16910495e+02
538             	3.16910951e+02
539             	3.16911412e+02
540             	3.16911888e+02
541             	3.16912377e+02
542             	3.16912828e+02
543             	3.16913136e+02
544             	3.16913521e+02
545             	3.16913898e+02
546             	3.16914259e+02
547             	3.16914608e+02
548             	3.16914953e+02
549             	3.16915318e+02
550             	3.16915668e+02
551             	3.16916049e+02
552             	3.16916422e+02
553             	3.16916778e+02
554             	3.16917143e+02
555             	3.16917486e+02
556             	3.16917818e+02
557             	3.16918180e+02
558             	3.16918550e+02
559             	3.16918942e+02
560             	3.16919332e+02
561             	3.16919726e+02
562             	3.16920121e+02
563             	3.16920528e+02
564             	3.16920933e+02
565             	3.16921336e+02
566             	3.16921746e+02
567             	3.16922155e+02
568             	3.16922530e+02
569             	3.16922843e+02
570             	3.16923150e+02
571             	3.16923438e+02
572             	3.16923716e+02
573             	3.16923976e+02
574             	3.16924208e+02
575             	3.16924425e+02
576             	3.16924668e+02
577             	3.16924894e+02
578             	3.16925125e+02
579             	3.16925352e+02
580             	3.16925579e+02
581             	3.16925803e+02
582             	3.16926022e+02
583             	3.16926220e+02
584             	3.16926383e+02
585             	3.16926568e+02
586             	3.16926762e+02
587             	3.16926972e+02
588             	3.16927203e+02
589             	3.16927445e+02
590             	3.16927699e+02
591             	3.16927919e+02
592             	3.16928127e+02
593             	3.16928337e+02
594             	3.16928550e+02
595             	3.16928765e+02
596             	3.16928973e+02
597             	3.16929175e+02
598             	3.16929374e+02
599             	3.16929549e+02
600             	3.16929693e+02
601             	3.16929847e+02
602             	3.16929968e+02
603             	3.16930091e+02
604             	3.16930204e+02
605             	3.16930324e+02
606             	3.16930433e+02
607             	3.16930552e+02
608             	3.16930660e+02
609             	3.16930762e+02
610             	3.16930870e+02
611             	3.16930981e+02
612             	3.16931099e+02
613             	3.16931222e+02
614             	3.16931351e+02
615             	3.16931480e+02
616             	3.16931603e+02
617             	3.16931732e+02
618             	3.16931853e+02
619             	3.16931968e+02
620             	3.16932083e+02
621             	3.16932193e+02
