# Region        : cellZone pcb
# Cells         : 671
# Volume        : 1.36128857e+00
# Time          	volAverage(T)
1               	3.00004847e+02
2               	3.00014059e+02
3               	3.00026868e+02
4               	3.00043002e+02
5               	3.00062073e+02
6               	3.00084075e+02
7               	3.00108844e+02
8               	3.00136269e+02
9               	3.00166229e+02
10              	3.00198635e+02
11              	3.00233397e+02
12              	3.00270288e+02
13              	3.00309457e+02
14              	3.00350638e+02
15              	3.00393334e+02
16              	3.00437771e+02
17              	3.00483511e+02
18              	3.00530836e+02
19              	3.00579796e+02
20              	3.00630454e+02
21              	3.00682640e+02
22              	3.00735660e+02
23              	3.00790217e+02
24              	3.00846021e+02
25              	3.00902925e+02
26              	3.00960316e+02
27              	3.01018575e+02
28              	3.01077599e+02
29              	3.01137640e+02
30              	3.01198960e+02
31              	3.01260675e+02
32              	3.01323081e+02
33              	3.01387126e+02
34              	3.01451363e+02
35              	3.01516095e+02
36              	3.01581553e+02
37              	3.01647906e+02
38              	3.01713752e+02
39              	3.01780753e+02
40              	3.01848354e+02
41              	3.01915793e+02
42              	3.01984156e+02
43              	3.02052985e+02
44              	3.02122380e+02
45              	3.02191433e+02
46              	3.02261073e+02
47              	3.02331189e+02
48              	3.02401254e+02
49              	3.02471187e+02
50              	3.02540868e+02
51              	3.02610593e+02
52              	3.02680580e+02
53              	3.02750429e+02
54              	3.02820333e+02
55              	3.02889333e+02
56              	3.02958188e+02
57              	3.03026693e+02
58              	3.03095662e+02
59              	3.03164837e+02
60              	3.03235398e+02
61              	3.03306215e+02
62              	3.03376525e+02
63              	3.03446966e+02
64              	3.03516994e+02
65              	3.03585549e+02
66              	3.03655295e+02
67              	3.03725315e+02
68              	3.03794232e+02
69              	3.03862385e+02
70              	3.03930646e+02
71              	3.03998919e+02
72              	3.04067404e+02
73              	3.04134884e+02
74              	3.04202849e+02
75              	3.04270831e+02
76              	3.04338522e+02
77              	3.04405743e+02
78              	3.04472821e+02
79              	3.04539559e+02
80              	3.04606866e+02
81              	3.04674915e+02
82              	3.04741440e+02
83              	3.04807668e+02
84              	3.04873136e+02
85              	3.04938489e+02
86              	3.05002465e+02
87              	3.05067805e+02
88              	3.05133265e+02
89              	3.05198508e+02
90              	3.05262921e+02
91              	3.05326729e+02
92              	3.05390662e+02
93              	3.05454356e+02
94              	3.05517033e+02
95              	3.05579565e+02
96              	3.05641268e+02
97              	3.05702740e+02
98              	3.05763573e+02
99              	3.05824047e+02
100             	3.05884974e+02
101             	3.05946088e+02
102             	3.06006407e+02
103             	3.06065709e+02
104             	3.06125072e+02
105             	3.06184578e+02
106             	3.06244218e+02
107             	3.06302800e+02
108             	3.06361022e+02
109             	3.06418585e+02
110             	3.06475708e+02
111             	3.06532694e+02
112             	3.06589567e+02
113             	3.06646368e+02
114             	3.06702425e+02
115             	3.06758026e+02
116             	3.06812877e+02
117             	3.06868037e+02
118             	3.06922513e+02
119             	3.06975972e+02
120             	3.07028137e+02
121             	3.07080390e+02
122             	3.07132052e+02
123             	3.07184036e+02
124             	3.07236254e+02
125             	3.07288371e+02
126             	3.07340363e+02
127             	3.07391979e+02
128             	3.07443286e+02
129             	3.07494512e+02
130             	3.07544879e+02
131             	3.07595496e+02
132             	3.07645815e+02
133             	3.07694318e+02
134             	3.07742003e+02
135             	3.07789512e+02
136             	3.07837366e+02
137             	3.07885691e+02
138             	3.07933916e+02
139             	3.07981728e+02
140             	3.08029821e+02
141             	3.08076830e+02
142             	3.08123486e+02
143             	3.08168701e+02
144             	3.08212813e+02
145             	3.08256499e+02
146             	3.08300263e+02
147             	3.08343615e+02
148             	3.08386745e+02
149             	3.08429538e+02
150             	3.08471753e+02
151             	3.08513677e+02
152             	3.08555207e+02
153             	3.08595822e+02
154             	3.08636064e+02
155             	3.08676196e+02
156             	3.08716951e+02
157             	3.08756942e+02
158             	3.08796725e+02
159             	3.08836322e+02
160             	3.08874645e+02
161             	3.08912612e+02
162             	3.08949894e+02
163             	3.08987266e+02
164             	3.09024080e+02
165             	3.09060097e+02
166             	3.09096534e+02
167             	3.09132588e+02
168             	3.09168481e+02
169             	3.09204099e+02
170             	3.09239323e+02
171             	3.09273991e+02
172             	3.09308007e+02
173             	3.09341458e+02
174             	3.09374390e+02
175             	3.09407132e+02
176             	3.09439572e+02
177             	3.09471519e+02
178             	3.09503400e+02
179             	3.09534977e+02
180             	3.09566428e+02
181             	3.09597580e+02
182             	3.09628212e+02
183             	3.09658024e+02
184             	3.09687081e+02
185             	3.09715299e+02
186             	3.09743211e+02
187             	3.09770949e+02
188             	3.09798690e+02
189             	3.09826330e+02
190             	3.09853948e+02
191             	3.09881231e+02
192             	3.09908203e+02
193             	3.09934924e+02
194             	3.09961281e+02
195             	3.09987157e+02
196             	3.10012321e+02
197             	3.10036797e+02
198             	3.10060941e+02
199             	3.10084688e+02
200             	3.10108060e+02
201             	3.10131105e+02
202             	3.10153743e+02
203             	3.10176323e+02
204             	3.10198783e+02
205             	3.10221222e+02
206             	3.10243647e+02
207             	3.10265932e+02
208             	3.10287961e+02
209             	3.10309781e+02
210             	3.10330694e+02
211             	3.10351093e+02
212             	3.10371111e+02
213             	3.10390876e+02
214             	3.10410534e+02
215             	3.10430212e+02
216             	3.10449944e+02
217             	3.10469363e+02
218             	3.10488559e+02
219             	3.10507627e+02
220             	3.10526662e+02
221             	3.10544831e+02
222             	3.10562420e+02
223             	3.10579489e+02
224             	3.10596456e+02
225             	3.10613372e+02
226             	3.10630268e+02
227             	3.10647305e+02
228             	3.10664082e+02
229             	3.10680757e+02
230             	3.10697206e+02
231             	3.10713512e+02
232             	3.10729507e+02
233             	3.10744913e+02
234             	3.10759940e+02
235             	3.10774748e+02
236             	3.10789396e+02
237             	3.10803950e+02
238             	3.10818432e+02
239             	3.10832865e+02
240             	3.10847310e+02
241             	3.10861724e+02
242             	3.10875970e+02
243             	3.10890086e+02
244             	3.10903775e+02
245             	3.10917073e+02
246             	3.10930116e+02
247             	3.10943050e+02
248             	3.10955831e+02
249             	3.10968505e+02
250             	3.10981172e+02
251             	3.10993904e+02
252             	3.11006642e+02
253             	3.11019262e+02
254             	3.11031674e+02
255             	3.11043748e+02
256             	3.11055530e+02
257             	3.11067079e+02
258             	3.11078495e+02
259             	3.11089790e+02
260             	3.11101038e+02
261             	3.11112203e+02
262             	3.11123325e+02
263             	3.11134418e+02
264             	3.11145474e+02
265             	3.11156356e+02
266             	3.11166963e+02
267             	3.11177316e+02
268             	3.11187457e+02
269             	3.11197439e+02
270             	3.11207325e+02
271             	3.11217061e+02
272             	3.11226640e+02
273             	3.11236127e+02
274             	3.11245543e+02
275             	3.11254897e+02
276             	3.11264185e+02
277             	3.11273396e+02
278             	3.11282529e+02
279             	3.11291563e+02
280             	3.11300510e+02
281             	3.11309370e+02
282             	3.11318123e+02
283             	3.11326811e+02
284             	3.11335395e+02
285             	3.11343894e+02
286             	3.11352292e+02
287             	3.11360630e+02
288             	3.11368878e+02
289             	3.11377031e+02
290             	3.11385100e+02
291             	3.11393103e+02
292             	3.11401016e+02
293             	3.11408834e+02
294             	3.11416557e+02
295             	3.11424128e+02
296             	3.11431588e+02
297             	3.11438979e+02
298             	3.11446239e+02
299             	3.11453424e+02
300             	3.11460595e+02
301             	3.11467742e+02
302             	3.11474838e+02
303             	3.11481881e+02
304             	3.11488853e+02
305             	3.11495716e+02
306             	3.11502455e+02
307             	3.11509098e+02
308             	3.11515656e+02
309             	3.11522144e+02
310             	3.11528583e+02
311             	3.11534991e+02
312             	3.11541393e+02
313             	3.11547765e+02
314             	3.11554117e+02
315             	3.11560409e+02
316             	3.11566603e+02
317             	3.11572692e+02
318             	3.11578677e+02
319             	3.11584577e+02
320             	3.11590414e+02
321             	3.11596197e+02
322             	3.11601924e+02
323             	3.11607578e+02
324             	3.11613193e+02
325             	3.11618769e+02
326             	3.11624303e+02
327             	3.11629779e+02
328             	3.11635210e+02
329             	3.11640569e+02
330             	3.11645837e+02
331             	3.11651031e+02
332             	3.11656161e+02
333             	3.11661240e+02
334             	3.11666250e+02
335             	3.11671221e+02
336             	3.11676155e+02
337             	3.11681053e+02
338             	3.11685920e+02
339             	3.11690734e+02
340             	3.11695516e+02
341             	3.11700221e+02
342             	3.11704887e+02
343             	3.11709517e+02
344             	3.11714116e+02
345             	3.11718679e+02
346             	3.11723203e+02
347             	3.11727689e+02
348             	3.11732153e+02
349             	3.11736603e+02
350             	3.11740971e+02
351             	3.11745297e+02
352             	3.11749583e+02
353             	3.11753823e+02
354             	3.11758014e+02
355             	3.11762158e+02
356             	3.11766253e+02
357             	3.11770301e+02
358             	3.11774331e+02
359             	3.11778329e+02
360             	3.11782270e+02
361             	3.11786172e+02
362             	3.11790033e+02
363             	3.11793860e+02
364             	3.11797642e+02
365             	3.11801380e+02
366             	3.11805083e+02
367             	3.11808737e+02
368             	3.11812342e+02
369             	3.11815918e+02
370             	3.11819444e+02
371             	3.11822948e+02
372             	3.11826408e+02
373             	3.11829852e+02
374             	3.11833286e+02
375             	3.11836653e+02
376             	3.11839981e+02
377             	3.11843268e+02
378             	3.11846528e+02
379             	3.11849767e+02
380             	3.11852988e+02
381             	3.11856175e+02
382             	3.11859334e+02
383             	3.11862460e+02
384             	3.11865571e+02
385             	3.11868660e+02
386             	3.11871689e+02
387             	3.11874690e+02
388             	3.11877664e+02
389             	3.11880617e+02
390             	3.11883556e+02
391             	3.11886466e+02
392             	3.11889351e+02
393             	3.11892204e+02
394             	3.11895021e+02
395             	3.11897803e+02
396             	3.11900556e+02
397             	3.11903272e+02
398             	3.11905959e+02
399             	3.11908621e+02
400             	3.11911257e+02
401             	3.11913868e+02
402             	3.11916468e+02
403             	3.11919037e+02
404             	3.11921567e+02
405             	3.11924068e+02
406             	3.11926540e+02
407             	3.11928993e+02
408             	3.11931420e+02
409             	3.11933812e+02
410             	3.11936183e+02
411             	3.11938532e+02
412             	3.11940866e+02
413             	3.11943170e+02
414             	3.11945450e+02
415             	3.11947707e+02
416             	3.11949944e+02
417             	3.11952165e+02
418             	3.11954371e+02
419             	3.11956561e+02
420             	3.11958734e+02
421             	3.11960891e+02
422             	3.11963030e+02
423             	3.11965149e+02
424             	3.11967247e+02
425             	3.11969321e+02
426             	3.11971370e+02
427             	3.11973399e+02
428             	3.11975409e+02
429             	3.11977401e+02
430             	3.11979376e+02
431             	3.11981333e+02
432             	3.11983275e+02
433             	3.11985201e+02
434             	3.11987098e+02
435             	3.11988972e+02
436             	3.11990824e+02
437             	3.11992658e+02
438             	3.11994476e+02
439             	3.11996270e+02
440             	3.11998050e+02
441             	3.11999810e+02
442             	3.12001555e+02
443             	3.12003284e+02
444             	3.12004996e+02
445             	3.12006692e+02
446             	3.12008368e+02
447             	3.12010026e+02
448             	3.12011666e+02
449             	3.12013291e+02
450             	3.12014894e+02
451             	3.12016481e+02
452             	3.12018052e+02
453             	3.12019608e+02
454             	3.12021154e+02
455             	3.12022692e+02
456             	3.12024230e+02
457             	3.12025751e+02
458             	3.12027246e+02
459             	3.12028726e+02
460             	3.12030192e+02
461             	3.12031649e+02
462             	3.12033092e+02
463             	3.12034512e+02
464             	3.12035917e+02
465             	3.12037307e+02
466             	3.12038682e+02
467             	3.12040044e+02
468             	3.12041410e+02
469             	3.12042773e+02
470             	3.12044107e+02
471             	3.12045430e+02
472             	3.12046740e+02
473             	3.12048037e+02
474             	3.12049321e+02
475             	3.12050595e+02
476             	3.12051850e+02
477             	3.12053089e+02
478             	3.12054315e+02
479             	3.12055529e+02
480             	3.12056729e+02
481             	3.12057917e+02
482             	3.12059093e+02
483             	3.12060259e+02
484             	3.12061417e+02
485             	3.12062568e+02
486             	3.12063708e+02
487             	3.12064833e+02
488             	3.12065947e+02
489             	3.12067051e+02
490             	3.12068144e+02
491             	3.12069227e+02
492             	3.12070291e+02
493             	3.12071349e+02
494             	3.12072393e+02
495             	3.12073426e+02
496             	3.12074448e+02
497             	3.12075460e+02
498             	3.12076463e+02
499             	3.12077458e+02
500             	3.12078447e+02
501             	3.12079427e+02
502             	3.12080398e+02
503             	3.12081359e+02
504             	3.12082309e+02
505             	3.12083250e+02
506             	3.12084181e+02
507             	3.12085105e+02
508             	3.12086022e+02
509             	3.12086932e+02
510             	3.12087835e+02
511             	3.12088730e+02
512             	3.12089617e+02
513             	3.12090494e+02
514             	3.12091361e+02
515             	3.12092217e+02
516             	3.12093069e+02
517             	3.12093914e+02
518             	3.12094749e+02
519             	3.12095575e+02
520             	3.12096392e+02
521             	3.12097202e+02
522             	3.12098007e+02
523             	3.12098805e+02
524             	3.12099597e+02
525             	3.12100380e+02
526             	3.12101152e+02
527             	3.12101916e+02
528             	3.12102671e+02
529             	3.12103420e+02
530             	3.12104161e+02
531             	3.12104895e+02
532             	3.12105623e+02
533             	3.12106344e+02
534             	3.12107059e+02
535             	3.12107767e+02
536             	3.12108468e+02
537             	3.12109163e+02
538             	3.12109851e+02
539             	3.12110530e+02
540             	3.12111201e+02
541             	3.12111867e+02
542             	3.12112526e+02
543             	3.12113180e+02
544             	3.12113827e+02
545             	3.12114469e+02
546             	3.12115104e+02
547             	3.12115734e+02
548             	3.12116358e+02
549             	3.12116976e+02
550             	3.12117588e+02
551             	3.12118193e+02
552             	3.12118792e+02
553             	3.12119385e+02
554             	3.12119976e+02
555             	3.12120562e+02
556             	3.12121137e+02
557             	3.12121708e+02
558             	3.12122273e+02
559             	3.12122836e+02
560             	3.12123392e+02
561             	3.12123947e+02
562             	3.12124498e+02
563             	3.12125039e+02
564             	3.12125575e+02
565             	3.12126107e+02
566             	3.12126634e+02
567             	3.12127156e+02
568             	3.12127674e+02
569             	3.12128187e+02
570             	3.12128694e+02
571             	3.12129196e+02
572             	3.12129692e+02
573             	3.12130184e+02
574             	3.12130671e+02
575             	3.12131152e+02
576             	3.12131629e+02
577             	3.12132101e+02
578             	3.12132568e+02
579             	3.12133030e+02
580             	3.12133487e+02
581             	3.12133939e+02
582             	3.12134387e+02
583             	3.12134832e+02
584             	3.12135271e+02
585             	3.12135709e+02
586             	3.12136142e+02
587             	3.12136568e+02
588             	3.12136991e+02
589             	3.12137410e+02
590             	3.12137825e+02
591             	3.12138236e+02
592             	3.12138643e+02
593             	3.12139050e+02
594             	3.12139454e+02
595             	3.12139854e+02
596             	3.12140252e+02
597             	3.12140646e+02
598             	3.12141038e+02
599             	3.12141427e+02
600             	3.12141813e+02
601             	3.12142195e+02
602             	3.12142575e+02
603             	3.12142945e+02
604             	3.12143311e+02
605             	3.12143672e+02
606             	3.12144032e+02
607             	3.12144388e+02
608             	3.12144747e+02
609             	3.12145098e+02
610             	3.12145448e+02
611             	3.12145794e+02
612             	3.12146139e+02
613             	3.12146482e+02
614             	3.12146823e+02
615             	3.12147155e+02
616             	3.12147486e+02
617             	3.12147809e+02
618             	3.12148129e+02
619             	3.12148444e+02
620             	3.12148760e+02
621             	3.12149073e+02
