# Region        : cellZone component_4
# Cells         : 156
# Volume        : 3.27487167e-01
# Time          	volAverage(T)
1               	3.00706687e+02
2               	3.01399975e+02
3               	3.02000237e+02
4               	3.02540512e+02
5               	3.03060006e+02
6               	3.03569358e+02
7               	3.04066159e+02
8               	3.04548587e+02
9               	3.05019136e+02
10              	3.05481278e+02
11              	3.05936403e+02
12              	3.06392354e+02
13              	3.06860361e+02
14              	3.07301105e+02
15              	3.07715127e+02
16              	3.08117488e+02
17              	3.08528303e+02
18              	3.08910410e+02
19              	3.09261141e+02
20              	3.09588628e+02
21              	3.09894278e+02
22              	3.10175994e+02
23              	3.10453193e+02
24              	3.10734487e+02
25              	3.11018754e+02
26              	3.11322317e+02
27              	3.11626044e+02
28              	3.11892761e+02
29              	3.12163563e+02
30              	3.12421108e+02
31              	3.12693619e+02
32              	3.12952117e+02
33              	3.13192565e+02
34              	3.13414633e+02
35              	3.13616326e+02
36              	3.13794769e+02
37              	3.13962463e+02
38              	3.14123470e+02
39              	3.14273883e+02
40              	3.14441228e+02
41              	3.14637153e+02
42              	3.14872901e+02
43              	3.15092301e+02
44              	3.15257202e+02
45              	3.15394112e+02
46              	3.15544095e+02
47              	3.15697391e+02
48              	3.15844392e+02
49              	3.15986330e+02
50              	3.16119927e+02
51              	3.16250951e+02
52              	3.16372401e+02
53              	3.16495650e+02
54              	3.16614493e+02
55              	3.16741831e+02
56              	3.16880279e+02
57              	3.17032813e+02
58              	3.17202333e+02
59              	3.17394294e+02
60              	3.17591988e+02
61              	3.17794814e+02
62              	3.17989275e+02
63              	3.18176132e+02
64              	3.18358575e+02
65              	3.18534109e+02
66              	3.18702618e+02
67              	3.18861208e+02
68              	3.19012230e+02
69              	3.19153366e+02
70              	3.19292221e+02
71              	3.19426365e+02
72              	3.19551533e+02
73              	3.19677257e+02
74              	3.19798737e+02
75              	3.19922991e+02
76              	3.20049786e+02
77              	3.20181920e+02
78              	3.20314524e+02
79              	3.20448304e+02
80              	3.20584292e+02
81              	3.20721033e+02
82              	3.20860961e+02
83              	3.21003741e+02
84              	3.21138888e+02
85              	3.21256391e+02
86              	3.21363638e+02
87              	3.21455325e+02
88              	3.21541460e+02
89              	3.21615730e+02
90              	3.21682821e+02
91              	3.21750611e+02
92              	3.21824463e+02
93              	3.21901307e+02
94              	3.21979102e+02
95              	3.22056492e+02
96              	3.22141449e+02
97              	3.22236123e+02
98              	3.22332629e+02
99              	3.22433388e+02
100             	3.22534463e+02
101             	3.22633804e+02
102             	3.22727015e+02
103             	3.22809605e+02
104             	3.22887479e+02
105             	3.22959390e+02
106             	3.23028281e+02
107             	3.23095253e+02
108             	3.23162502e+02
109             	3.23224447e+02
110             	3.23275279e+02
111             	3.23329141e+02
112             	3.23381654e+02
113             	3.23435054e+02
114             	3.23490956e+02
115             	3.23547689e+02
116             	3.23602907e+02
117             	3.23658551e+02
118             	3.23715599e+02
119             	3.23773275e+02
120             	3.23830852e+02
121             	3.23890260e+02
122             	3.23952379e+02
123             	3.24015502e+02
124             	3.24074564e+02
125             	3.24131321e+02
126             	3.24184659e+02
127             	3.24233071e+02
128             	3.24273603e+02
129             	3.24309289e+02
130             	3.24338841e+02
131             	3.24364036e+02
132             	3.24389384e+02
133             	3.24414928e+02
134             	3.24440094e+02
135             	3.24469867e+02
136             	3.24502776e+02
137             	3.24540023e+02
138             	3.24576874e+02
139             	3.24609066e+02
140             	3.24637701e+02
141             	3.24659347e+02
142             	3.24676879e+02
143             	3.24692363e+02
144             	3.24703736e+02
145             	3.24710378e+02
146             	3.24717388e+02
147             	3.24724013e+02
148             	3.24733514e+02
149             	3.24748008e+02
150             	3.24766692e+02
151             	3.24789587e+02
152             	3.24816015e+02
153             	3.24842565e+02
154             	3.24871092e+02
155             	3.24902676e+02
156             	3.24930594e+02
157             	3.24957129e+02
158             	3.24978243e+02
159             	3.24998002e+02
160             	3.25016687e+02
161             	3.25035539e+02
162             	3.25054964e+02
163             	3.25075937e+02
164             	3.25097150e+02
165             	3.25114873e+02
166             	3.25131818e+02
167             	3.25149657e+02
168             	3.25169443e+02
169             	3.25190825e+02
170             	3.25213022e+02
171             	3.25235203e+02
172             	3.25258417e+02
173             	3.25281090e+02
174             	3.25302444e+02
175             	3.25322019e+02
176             	3.25339401e+02
177             	3.25352328e+02
178             	3.25362011e+02
179             	3.25369917e+02
180             	3.25374415e+02
181             	3.25378088e+02
182             	3.25380685e+02
183             	3.25382761e+02
184             	3.25384937e+02
185             	3.25387578e+02
186             	3.25390938e+02
187             	3.25395579e+02
188             	3.25401154e+02
189             	3.25407408e+02
190             	3.25414545e+02
191             	3.25422713e+02
192             	3.25431784e+02
193             	3.25441438e+02
194             	3.25452010e+02
195             	3.25463424e+02
196             	3.25475511e+02
197             	3.25488434e+02
198             	3.25502234e+02
199             	3.25516875e+02
200             	3.25532150e+02
201             	3.25548235e+02
202             	3.25564002e+02
203             	3.25579603e+02
204             	3.25595183e+02
205             	3.25610617e+02
206             	3.25624803e+02
207             	3.25637638e+02
208             	3.25648745e+02
209             	3.25658531e+02
210             	3.25667039e+02
211             	3.25674483e+02
212             	3.25680789e+02
213             	3.25684713e+02
214             	3.25689245e+02
215             	3.25692841e+02
216             	3.25695430e+02
217             	3.25697642e+02
218             	3.25700185e+02
219             	3.25703252e+02
220             	3.25707218e+02
221             	3.25713100e+02
222             	3.25720571e+02
223             	3.25726897e+02
224             	3.25732342e+02
225             	3.25737643e+02
226             	3.25742785e+02
227             	3.25747605e+02
228             	3.25751792e+02
229             	3.25755371e+02
230             	3.25758663e+02
231             	3.25762274e+02
232             	3.25765849e+02
233             	3.25770339e+02
234             	3.25775054e+02
235             	3.25780208e+02
236             	3.25786107e+02
237             	3.25792798e+02
238             	3.25799468e+02
239             	3.25806499e+02
240             	3.25813460e+02
241             	3.25820104e+02
242             	3.25826354e+02
243             	3.25832371e+02
244             	3.25838606e+02
245             	3.25844758e+02
246             	3.25851058e+02
247             	3.25857371e+02
248             	3.25863825e+02
249             	3.25870372e+02
250             	3.25877260e+02
251             	3.25884222e+02
252             	3.25891386e+02
253             	3.25899123e+02
254             	3.25907205e+02
255             	3.25915705e+02
256             	3.25923783e+02
257             	3.25931394e+02
258             	3.25938950e+02
259             	3.25947018e+02
260             	3.25955484e+02
261             	3.25964087e+02
262             	3.25971933e+02
263             	3.25979657e+02
264             	3.25987278e+02
265             	3.25994477e+02
266             	3.26000757e+02
267             	3.26005937e+02
268             	3.26010291e+02
269             	3.26013852e+02
270             	3.26016760e+02
271             	3.26018717e+02
272             	3.26019906e+02
273             	3.26020778e+02
274             	3.26020767e+02
275             	3.26019650e+02
276             	3.26017954e+02
277             	3.26014870e+02
278             	3.26011769e+02
279             	3.26007628e+02
280             	3.26003717e+02
281             	3.25999584e+02
282             	3.25996376e+02
283             	3.25994092e+02
284             	3.25992776e+02
285             	3.25992502e+02
286             	3.25993403e+02
287             	3.25994248e+02
288             	3.25995884e+02
289             	3.25998568e+02
290             	3.26002105e+02
291             	3.26005956e+02
292             	3.26009581e+02
293             	3.26013087e+02
294             	3.26017063e+02
295             	3.26021351e+02
296             	3.26024976e+02
297             	3.26028674e+02
298             	3.26032047e+02
299             	3.26035155e+02
300             	3.26038250e+02
301             	3.26041593e+02
302             	3.26045118e+02
303             	3.26048558e+02
304             	3.26052098e+02
305             	3.26056419e+02
306             	3.26061305e+02
307             	3.26066634e+02
308             	3.26072370e+02
309             	3.26077828e+02
310             	3.26083421e+02
311             	3.26089171e+02
312             	3.26095209e+02
313             	3.26101304e+02
314             	3.26107186e+02
315             	3.26113035e+02
316             	3.26118595e+02
317             	3.26123686e+02
318             	3.26128346e+02
319             	3.26133013e+02
320             	3.26138027e+02
321             	3.26143493e+02
322             	3.26149249e+02
323             	3.26154654e+02
324             	3.26158744e+02
325             	3.26161968e+02
326             	3.26164246e+02
327             	3.26165668e+02
328             	3.26166244e+02
329             	3.26164712e+02
330             	3.26162629e+02
331             	3.26160048e+02
332             	3.26157295e+02
333             	3.26154482e+02
334             	3.26151933e+02
335             	3.26149854e+02
336             	3.26147899e+02
337             	3.26145575e+02
338             	3.26143414e+02
339             	3.26141518e+02
340             	3.26139879e+02
341             	3.26138471e+02
342             	3.26137304e+02
343             	3.26136903e+02
344             	3.26136142e+02
345             	3.26136049e+02
346             	3.26136719e+02
347             	3.26138216e+02
348             	3.26140544e+02
349             	3.26143642e+02
350             	3.26147533e+02
351             	3.26150695e+02
352             	3.26154568e+02
353             	3.26159222e+02
354             	3.26164399e+02
355             	3.26169420e+02
356             	3.26173930e+02
357             	3.26177700e+02
358             	3.26180596e+02
359             	3.26182824e+02
360             	3.26184381e+02
361             	3.26186193e+02
362             	3.26188389e+02
363             	3.26191106e+02
364             	3.26194370e+02
365             	3.26198180e+02
366             	3.26202565e+02
367             	3.26207678e+02
368             	3.26213606e+02
369             	3.26220103e+02
370             	3.26227063e+02
371             	3.26234383e+02
372             	3.26241101e+02
373             	3.26247890e+02
374             	3.26254500e+02
375             	3.26260663e+02
376             	3.26266257e+02
377             	3.26271208e+02
378             	3.26275330e+02
379             	3.26278359e+02
380             	3.26280366e+02
381             	3.26281306e+02
382             	3.26281522e+02
383             	3.26280607e+02
384             	3.26279182e+02
385             	3.26277364e+02
386             	3.26275042e+02
387             	3.26273317e+02
388             	3.26271327e+02
389             	3.26269356e+02
390             	3.26267325e+02
391             	3.26265165e+02
392             	3.26262896e+02
393             	3.26260783e+02
394             	3.26258059e+02
395             	3.26255216e+02
396             	3.26252710e+02
397             	3.26250338e+02
398             	3.26248191e+02
399             	3.26246664e+02
400             	3.26245824e+02
401             	3.26245412e+02
402             	3.26245577e+02
403             	3.26246170e+02
404             	3.26246394e+02
405             	3.26247125e+02
406             	3.26248423e+02
407             	3.26250035e+02
408             	3.26252329e+02
409             	3.26255239e+02
410             	3.26258579e+02
411             	3.26261699e+02
412             	3.26264988e+02
413             	3.26269290e+02
414             	3.26274494e+02
415             	3.26279355e+02
416             	3.26283547e+02
417             	3.26287193e+02
418             	3.26290297e+02
419             	3.26293237e+02
420             	3.26295862e+02
421             	3.26298249e+02
422             	3.26301125e+02
423             	3.26304915e+02
424             	3.26309035e+02
425             	3.26312723e+02
426             	3.26316509e+02
427             	3.26320640e+02
428             	3.26324683e+02
429             	3.26328767e+02
430             	3.26331897e+02
431             	3.26333811e+02
432             	3.26335771e+02
433             	3.26337904e+02
434             	3.26339677e+02
435             	3.26341050e+02
436             	3.26341949e+02
437             	3.26341857e+02
438             	3.26341078e+02
439             	3.26338458e+02
440             	3.26335698e+02
441             	3.26332173e+02
442             	3.26328766e+02
443             	3.26325091e+02
444             	3.26321886e+02
445             	3.26317519e+02
446             	3.26313089e+02
447             	3.26309559e+02
448             	3.26306707e+02
449             	3.26304540e+02
450             	3.26303812e+02
451             	3.26304416e+02
452             	3.26306601e+02
453             	3.26308830e+02
454             	3.26312069e+02
455             	3.26316481e+02
456             	3.26320555e+02
457             	3.26323842e+02
458             	3.26326044e+02
459             	3.26326479e+02
460             	3.26325869e+02
461             	3.26324742e+02
462             	3.26323204e+02
463             	3.26321812e+02
464             	3.26320397e+02
465             	3.26319932e+02
466             	3.26320551e+02
467             	3.26322197e+02
468             	3.26323757e+02
469             	3.26326338e+02
470             	3.26330099e+02
471             	3.26334726e+02
472             	3.26339057e+02
473             	3.26343307e+02
474             	3.26347361e+02
475             	3.26351123e+02
476             	3.26354801e+02
477             	3.26358223e+02
478             	3.26361522e+02
479             	3.26363948e+02
480             	3.26365560e+02
481             	3.26367163e+02
482             	3.26368737e+02
483             	3.26370085e+02
484             	3.26371343e+02
485             	3.26372592e+02
486             	3.26373944e+02
487             	3.26374859e+02
488             	3.26374911e+02
489             	3.26374485e+02
490             	3.26374191e+02
491             	3.26372179e+02
492             	3.26369112e+02
493             	3.26365054e+02
494             	3.26361066e+02
495             	3.26357299e+02
496             	3.26353876e+02
497             	3.26348249e+02
498             	3.26343014e+02
499             	3.26339464e+02
500             	3.26337671e+02
501             	3.26337301e+02
502             	3.26337222e+02
503             	3.26336751e+02
504             	3.26336078e+02
505             	3.26335366e+02
506             	3.26334340e+02
507             	3.26333391e+02
508             	3.26332081e+02
509             	3.26330486e+02
510             	3.26328979e+02
511             	3.26327771e+02
512             	3.26326816e+02
513             	3.26326363e+02
514             	3.26326310e+02
515             	3.26326620e+02
516             	3.26327267e+02
517             	3.26328004e+02
518             	3.26328451e+02
519             	3.26328820e+02
520             	3.26329508e+02
521             	3.26329871e+02
522             	3.26331148e+02
523             	3.26333537e+02
524             	3.26336608e+02
525             	3.26340003e+02
526             	3.26343362e+02
527             	3.26347307e+02
528             	3.26351984e+02
529             	3.26357218e+02
530             	3.26362872e+02
531             	3.26368289e+02
532             	3.26373447e+02
533             	3.26378237e+02
534             	3.26382514e+02
535             	3.26386281e+02
536             	3.26389220e+02
537             	3.26391426e+02
538             	3.26392841e+02
539             	3.26393596e+02
540             	3.26393913e+02
541             	3.26393986e+02
542             	3.26394167e+02
543             	3.26394547e+02
544             	3.26393759e+02
545             	3.26392482e+02
546             	3.26390550e+02
547             	3.26388299e+02
548             	3.26385760e+02
549             	3.26382729e+02
550             	3.26379325e+02
551             	3.26375880e+02
552             	3.26372618e+02
553             	3.26369342e+02
554             	3.26365954e+02
555             	3.26362507e+02
556             	3.26359128e+02
557             	3.26355933e+02
558             	3.26353011e+02
559             	3.26350453e+02
560             	3.26348258e+02
561             	3.26346563e+02
562             	3.26345501e+02
563             	3.26344792e+02
564             	3.26344232e+02
565             	3.26344321e+02
566             	3.26345017e+02
567             	3.26346152e+02
568             	3.26347436e+02
569             	3.26349302e+02
570             	3.26351778e+02
571             	3.26354819e+02
572             	3.26358395e+02
573             	3.26362425e+02
574             	3.26366552e+02
575             	3.26370805e+02
576             	3.26375496e+02
577             	3.26380504e+02
578             	3.26384715e+02
579             	3.26389005e+02
580             	3.26392794e+02
581             	3.26395726e+02
582             	3.26398210e+02
583             	3.26400739e+02
584             	3.26403277e+02
585             	3.26405775e+02
586             	3.26408139e+02
587             	3.26410036e+02
588             	3.26411277e+02
589             	3.26411941e+02
590             	3.26412284e+02
591             	3.26412688e+02
592             	3.26413486e+02
593             	3.26414781e+02
594             	3.26416307e+02
595             	3.26417598e+02
596             	3.26417904e+02
597             	3.26417584e+02
598             	3.26416974e+02
599             	3.26416007e+02
600             	3.26414945e+02
601             	3.26412864e+02
602             	3.26411105e+02
603             	3.26409543e+02
604             	3.26407389e+02
605             	3.26404620e+02
606             	3.26402304e+02
607             	3.26399944e+02
608             	3.26398002e+02
609             	3.26395564e+02
610             	3.26392797e+02
611             	3.26388612e+02
612             	3.26384031e+02
613             	3.26379177e+02
614             	3.26374698e+02
615             	3.26371656e+02
616             	3.26369482e+02
617             	3.26367824e+02
618             	3.26366703e+02
619             	3.26366314e+02
620             	3.26365949e+02
621             	3.26365618e+02
