# Region        : cellZone component_4
# Cells         : 168
# Volume        : 3.28550238e-01
# Time          	volAverage(T)
1               	3.00753692e+02
2               	3.01499460e+02
3               	3.02200712e+02
4               	3.02874913e+02
5               	3.03535854e+02
6               	3.04186785e+02
7               	3.04829751e+02
8               	3.05467105e+02
9               	3.06098811e+02
10              	3.06726601e+02
11              	3.07350969e+02
12              	3.07971771e+02
13              	3.08587941e+02
14              	3.09198686e+02
15              	3.09804879e+02
16              	3.10404480e+02
17              	3.10998405e+02
18              	3.11587484e+02
19              	3.12174315e+02
20              	3.12757929e+02
21              	3.13337888e+02
22              	3.13914923e+02
23              	3.14487469e+02
24              	3.15053769e+02
25              	3.15612821e+02
26              	3.16162990e+02
27              	3.16703147e+02
28              	3.17233655e+02
29              	3.17751145e+02
30              	3.18265477e+02
31              	3.18774986e+02
32              	3.19283796e+02
33              	3.19793415e+02
34              	3.20292677e+02
35              	3.20790426e+02
36              	3.21283862e+02
37              	3.21765197e+02
38              	3.22236128e+02
39              	3.22696212e+02
40              	3.23146879e+02
41              	3.23581000e+02
42              	3.24009691e+02
43              	3.24435028e+02
44              	3.24859872e+02
45              	3.25290128e+02
46              	3.25728572e+02
47              	3.26160297e+02
48              	3.26588476e+02
49              	3.27015535e+02
50              	3.27437295e+02
51              	3.27838408e+02
52              	3.28233552e+02
53              	3.28622246e+02
54              	3.28996139e+02
55              	3.29362239e+02
56              	3.29715195e+02
57              	3.30071706e+02
58              	3.30431398e+02
59              	3.30797721e+02
60              	3.31169717e+02
61              	3.31544063e+02
62              	3.31918564e+02
63              	3.32290662e+02
64              	3.32659396e+02
65              	3.33023186e+02
66              	3.33379619e+02
67              	3.33727222e+02
68              	3.34068721e+02
69              	3.34403258e+02
70              	3.34730445e+02
71              	3.35049347e+02
72              	3.35360702e+02
73              	3.35671782e+02
74              	3.35984641e+02
75              	3.36297856e+02
76              	3.36613122e+02
77              	3.36929455e+02
78              	3.37244633e+02
79              	3.37558207e+02
80              	3.37867180e+02
81              	3.38166383e+02
82              	3.38456135e+02
83              	3.38735516e+02
84              	3.39008327e+02
85              	3.39277393e+02
86              	3.39547837e+02
87              	3.39820938e+02
88              	3.40093457e+02
89              	3.40370047e+02
90              	3.40648821e+02
91              	3.40925991e+02
92              	3.41200169e+02
93              	3.41469231e+02
94              	3.41729298e+02
95              	3.41980114e+02
96              	3.42222152e+02
97              	3.42458971e+02
98              	3.42695092e+02
99              	3.42929512e+02
100             	3.43163566e+02
101             	3.43398471e+02
102             	3.43632714e+02
103             	3.43869131e+02
104             	3.44104215e+02
105             	3.44338618e+02
106             	3.44568895e+02
107             	3.44795570e+02
108             	3.45016660e+02
109             	3.45233018e+02
110             	3.45445635e+02
111             	3.45653669e+02
112             	3.45857505e+02
113             	3.46056999e+02
114             	3.46251484e+02
115             	3.46441805e+02
116             	3.46629333e+02
117             	3.46816101e+02
118             	3.47002612e+02
119             	3.47190335e+02
120             	3.47379014e+02
121             	3.47568244e+02
122             	3.47751419e+02
123             	3.47933090e+02
124             	3.48112111e+02
125             	3.48286910e+02
126             	3.48457317e+02
127             	3.48623673e+02
128             	3.48786868e+02
129             	3.48947516e+02
130             	3.49105844e+02
131             	3.49262668e+02
132             	3.49417111e+02
133             	3.49571264e+02
134             	3.49722906e+02
135             	3.49873582e+02
136             	3.50021582e+02
137             	3.50167889e+02
138             	3.50312301e+02
139             	3.50454539e+02
140             	3.50594826e+02
141             	3.50733778e+02
142             	3.50871544e+02
143             	3.51008066e+02
144             	3.51142020e+02
145             	3.51275886e+02
146             	3.51408221e+02
147             	3.51537298e+02
148             	3.51664253e+02
149             	3.51788027e+02
150             	3.51908257e+02
151             	3.52025397e+02
152             	3.52139443e+02
153             	3.52251378e+02
154             	3.52361518e+02
155             	3.52470971e+02
156             	3.52580215e+02
157             	3.52689199e+02
158             	3.52797087e+02
159             	3.52903943e+02
160             	3.53010434e+02
161             	3.53114898e+02
162             	3.53217574e+02
163             	3.53318105e+02
164             	3.53416724e+02
165             	3.53513375e+02
166             	3.53608019e+02
167             	3.53700612e+02
168             	3.53791070e+02
169             	3.53879601e+02
170             	3.53966626e+02
171             	3.54053169e+02
172             	3.54138733e+02
173             	3.54223507e+02
174             	3.54307900e+02
175             	3.54391826e+02
176             	3.54474375e+02
177             	3.54555460e+02
178             	3.54635283e+02
179             	3.54713742e+02
180             	3.54791248e+02
181             	3.54867000e+02
182             	3.54941263e+02
183             	3.55013879e+02
184             	3.55084731e+02
185             	3.55153749e+02
186             	3.55220906e+02
187             	3.55286210e+02
188             	3.55350904e+02
189             	3.55414552e+02
190             	3.55477153e+02
191             	3.55538718e+02
192             	3.55599698e+02
193             	3.55660283e+02
194             	3.55720823e+02
195             	3.55781170e+02
196             	3.55840258e+02
197             	3.55898153e+02
198             	3.55954574e+02
199             	3.56009591e+02
200             	3.56063080e+02
201             	3.56115044e+02
202             	3.56165611e+02
203             	3.56214911e+02
204             	3.56262984e+02
205             	3.56310057e+02
206             	3.56356587e+02
207             	3.56402460e+02
208             	3.56447559e+02
209             	3.56491801e+02
210             	3.56535255e+02
211             	3.56578328e+02
212             	3.56620950e+02
213             	3.56663144e+02
214             	3.56705001e+02
215             	3.56746089e+02
216             	3.56786746e+02
217             	3.56826119e+02
218             	3.56864368e+02
219             	3.56901667e+02
220             	3.56937963e+02
221             	3.56973142e+02
222             	3.57007237e+02
223             	3.57040335e+02
224             	3.57072598e+02
225             	3.57103970e+02
226             	3.57134846e+02
227             	3.57165602e+02
228             	3.57196107e+02
229             	3.57226350e+02
230             	3.57256309e+02
231             	3.57285735e+02
232             	3.57314389e+02
233             	3.57342502e+02
234             	3.57369757e+02
235             	3.57396411e+02
236             	3.57422440e+02
237             	3.57447524e+02
238             	3.57472075e+02
239             	3.57495926e+02
240             	3.57518915e+02
241             	3.57541057e+02
242             	3.57562387e+02
243             	3.57583216e+02
244             	3.57604151e+02
245             	3.57625008e+02
246             	3.57645277e+02
247             	3.57665121e+02
248             	3.57684820e+02
249             	3.57704199e+02
250             	3.57723173e+02
251             	3.57741650e+02
252             	3.57759580e+02
253             	3.57777005e+02
254             	3.57793940e+02
255             	3.57810403e+02
256             	3.57826367e+02
257             	3.57841880e+02
258             	3.57856970e+02
259             	3.57871643e+02
260             	3.57885853e+02
261             	3.57899551e+02
262             	3.57912783e+02
263             	3.57925572e+02
264             	3.57937873e+02
265             	3.57949676e+02
266             	3.57961188e+02
267             	3.57972385e+02
268             	3.57983477e+02
269             	3.57994434e+02
270             	3.58005264e+02
271             	3.58015950e+02
272             	3.58026375e+02
273             	3.58036615e+02
274             	3.58046545e+02
275             	3.58055891e+02
276             	3.58064825e+02
277             	3.58073322e+02
278             	3.58081358e+02
279             	3.58088967e+02
280             	3.58096281e+02
281             	3.58103278e+02
282             	3.58110079e+02
283             	3.58116747e+02
284             	3.58123263e+02
285             	3.58129651e+02
286             	3.58135859e+02
287             	3.58141850e+02
288             	3.58147509e+02
289             	3.58152810e+02
290             	3.58157765e+02
291             	3.58162439e+02
292             	3.58166852e+02
293             	3.58171097e+02
294             	3.58175221e+02
295             	3.58179246e+02
296             	3.58183178e+02
297             	3.58187016e+02
298             	3.58190752e+02
299             	3.58194383e+02
300             	3.58197873e+02
301             	3.58201157e+02
302             	3.58204173e+02
303             	3.58206994e+02
304             	3.58209601e+02
305             	3.58211997e+02
306             	3.58214178e+02
307             	3.58216151e+02
308             	3.58217894e+02
309             	3.58219390e+02
310             	3.58220683e+02
311             	3.58221780e+02
312             	3.58222715e+02
313             	3.58223528e+02
314             	3.58224245e+02
315             	3.58224856e+02
316             	3.58225369e+02
317             	3.58225781e+02
318             	3.58226084e+02
319             	3.58226262e+02
320             	3.58226296e+02
321             	3.58226169e+02
322             	3.58225889e+02
323             	3.58225466e+02
324             	3.58224924e+02
325             	3.58224297e+02
326             	3.58223611e+02
327             	3.58222892e+02
328             	3.58222134e+02
329             	3.58221330e+02
330             	3.58220459e+02
331             	3.58219498e+02
332             	3.58218435e+02
333             	3.58217244e+02
334             	3.58215941e+02
335             	3.58214536e+02
336             	3.58213041e+02
337             	3.58211460e+02
338             	3.58209801e+02
339             	3.58208061e+02
340             	3.58206228e+02
341             	3.58204286e+02
342             	3.58202226e+02
343             	3.58200080e+02
344             	3.58197847e+02
345             	3.58195529e+02
346             	3.58193127e+02
347             	3.58190692e+02
348             	3.58188247e+02
349             	3.58185798e+02
350             	3.58183361e+02
351             	3.58180943e+02
352             	3.58178541e+02
353             	3.58176126e+02
354             	3.58173598e+02
355             	3.58170988e+02
356             	3.58168301e+02
357             	3.58165527e+02
358             	3.58162643e+02
359             	3.58159674e+02
360             	3.58156628e+02
361             	3.58153521e+02
362             	3.58150379e+02
363             	3.58147236e+02
364             	3.58144090e+02
365             	3.58140954e+02
366             	3.58137829e+02
367             	3.58134713e+02
368             	3.58131600e+02
369             	3.58128465e+02
370             	3.58125313e+02
371             	3.58122140e+02
372             	3.58118943e+02
373             	3.58115721e+02
374             	3.58112496e+02
375             	3.58109251e+02
376             	3.58106007e+02
377             	3.58102751e+02
378             	3.58099491e+02
379             	3.58096194e+02
380             	3.58092885e+02
381             	3.58089531e+02
382             	3.58086148e+02
383             	3.58082733e+02
384             	3.58079277e+02
385             	3.58075825e+02
386             	3.58072347e+02
387             	3.58068848e+02
388             	3.58065339e+02
389             	3.58061852e+02
390             	3.58058380e+02
391             	3.58054954e+02
392             	3.58051558e+02
393             	3.58048190e+02
394             	3.58044848e+02
395             	3.58041534e+02
396             	3.58038237e+02
397             	3.58034931e+02
398             	3.58031613e+02
399             	3.58028281e+02
400             	3.58024940e+02
401             	3.58021571e+02
402             	3.58018179e+02
403             	3.58014775e+02
404             	3.58011363e+02
405             	3.58007952e+02
406             	3.58004551e+02
407             	3.58001172e+02
408             	3.57997798e+02
409             	3.57994433e+02
410             	3.57991079e+02
411             	3.57987740e+02
412             	3.57984426e+02
413             	3.57981135e+02
414             	3.57977863e+02
415             	3.57974612e+02
416             	3.57971371e+02
417             	3.57968140e+02
418             	3.57964917e+02
419             	3.57961722e+02
420             	3.57958540e+02
421             	3.57955371e+02
422             	3.57952215e+02
423             	3.57949068e+02
424             	3.57945923e+02
425             	3.57942793e+02
426             	3.57939686e+02
427             	3.57936603e+02
428             	3.57933551e+02
429             	3.57930525e+02
430             	3.57927522e+02
431             	3.57924550e+02
432             	3.57921597e+02
433             	3.57918664e+02
434             	3.57915750e+02
435             	3.57912850e+02
436             	3.57909968e+02
437             	3.57907103e+02
438             	3.57904258e+02
439             	3.57901434e+02
440             	3.57898637e+02
441             	3.57895866e+02
442             	3.57893122e+02
443             	3.57890409e+02
444             	3.57887727e+02
445             	3.57885075e+02
446             	3.57882451e+02
447             	3.57879851e+02
448             	3.57877273e+02
449             	3.57874713e+02
450             	3.57872172e+02
451             	3.57869646e+02
452             	3.57867139e+02
453             	3.57864649e+02
454             	3.57862179e+02
455             	3.57859715e+02
456             	3.57857265e+02
457             	3.57854828e+02
458             	3.57852404e+02
459             	3.57849994e+02
460             	3.57847599e+02
461             	3.57845223e+02
462             	3.57842868e+02
463             	3.57840560e+02
464             	3.57838274e+02
465             	3.57836010e+02
466             	3.57833767e+02
467             	3.57831540e+02
468             	3.57829329e+02
469             	3.57827139e+02
470             	3.57824974e+02
471             	3.57822833e+02
472             	3.57820715e+02
473             	3.57818624e+02
474             	3.57816570e+02
475             	3.57814552e+02
476             	3.57812560e+02
477             	3.57810594e+02
478             	3.57808659e+02
479             	3.57806750e+02
480             	3.57804870e+02
481             	3.57803020e+02
482             	3.57801205e+02
483             	3.57799429e+02
484             	3.57797678e+02
485             	3.57795954e+02
486             	3.57794247e+02
487             	3.57792556e+02
488             	3.57790872e+02
489             	3.57789199e+02
490             	3.57787536e+02
491             	3.57785870e+02
492             	3.57784218e+02
493             	3.57782586e+02
494             	3.57780976e+02
495             	3.57779394e+02
496             	3.57777827e+02
497             	3.57776289e+02
498             	3.57774764e+02
499             	3.57773253e+02
500             	3.57771755e+02
501             	3.57770263e+02
502             	3.57768782e+02
503             	3.57767357e+02
504             	3.57765972e+02
505             	3.57764626e+02
506             	3.57763324e+02
507             	3.57762068e+02
508             	3.57760859e+02
509             	3.57759684e+02
510             	3.57758537e+02
511             	3.57757396e+02
512             	3.57756267e+02
513             	3.57755145e+02
514             	3.57754025e+02
515             	3.57752913e+02
516             	3.57751806e+02
517             	3.57750721e+02
518             	3.57749656e+02
519             	3.57748614e+02
520             	3.57747600e+02
521             	3.57746612e+02
522             	3.57745652e+02
523             	3.57744715e+02
524             	3.57743800e+02
525             	3.57742899e+02
526             	3.57742013e+02
527             	3.57741136e+02
528             	3.57740268e+02
529             	3.57739408e+02
530             	3.57738560e+02
531             	3.57737735e+02
532             	3.57736927e+02
533             	3.57736138e+02
534             	3.57735370e+02
535             	3.57734619e+02
536             	3.57733881e+02
537             	3.57733157e+02
538             	3.57732447e+02
539             	3.57731750e+02
540             	3.57731063e+02
541             	3.57730388e+02
542             	3.57729725e+02
543             	3.57729076e+02
544             	3.57728438e+02
545             	3.57727828e+02
546             	3.57727238e+02
547             	3.57726669e+02
548             	3.57726125e+02
549             	3.57725602e+02
550             	3.57725105e+02
551             	3.57724629e+02
552             	3.57724177e+02
553             	3.57723747e+02
554             	3.57723340e+02
555             	3.57722949e+02
556             	3.57722564e+02
557             	3.57722189e+02
558             	3.57721823e+02
559             	3.57721462e+02
560             	3.57721100e+02
561             	3.57720741e+02
562             	3.57720386e+02
563             	3.57720038e+02
564             	3.57719699e+02
565             	3.57719369e+02
566             	3.57719050e+02
567             	3.57718748e+02
568             	3.57718461e+02
569             	3.57718189e+02
570             	3.57717926e+02
571             	3.57717667e+02
572             	3.57717418e+02
573             	3.57717173e+02
574             	3.57716939e+02
575             	3.57716712e+02
576             	3.57716493e+02
577             	3.57716287e+02
578             	3.57716111e+02
579             	3.57715951e+02
580             	3.57715806e+02
581             	3.57715669e+02
582             	3.57715549e+02
583             	3.57715444e+02
584             	3.57715354e+02
585             	3.57715278e+02
586             	3.57715213e+02
587             	3.57715161e+02
588             	3.57715119e+02
589             	3.57715087e+02
590             	3.57715063e+02
591             	3.57715047e+02
592             	3.57715038e+02
593             	3.57715039e+02
594             	3.57715051e+02
595             	3.57715061e+02
596             	3.57715078e+02
597             	3.57715099e+02
598             	3.57715124e+02
599             	3.57715150e+02
600             	3.57715180e+02
601             	3.57715213e+02
602             	3.57715249e+02
603             	3.57715289e+02
604             	3.57715335e+02
605             	3.57715386e+02
606             	3.57715444e+02
607             	3.57715506e+02
608             	3.57715575e+02
609             	3.57715648e+02
610             	3.57715727e+02
611             	3.57715812e+02
612             	3.57715903e+02
613             	3.57716002e+02
614             	3.57716109e+02
615             	3.57716221e+02
616             	3.57716344e+02
617             	3.57716473e+02
618             	3.57716608e+02
619             	3.57716749e+02
620             	3.57716899e+02
621             	3.57717052e+02
