# Region        : cellZone component_0
# Cells         : 156
# Volume        : 3.19312157e-01
# Time          	volAverage(T)
1               	3.03317351e+02
2               	3.06565453e+02
3               	3.09249057e+02
4               	3.11536114e+02
5               	3.13690253e+02
6               	3.15804478e+02
7               	3.17869008e+02
8               	3.19860503e+02
9               	3.21786465e+02
10              	3.23663959e+02
11              	3.25515896e+02
12              	3.27303708e+02
13              	3.29020483e+02
14              	3.30630115e+02
15              	3.32213511e+02
16              	3.33784639e+02
17              	3.35309368e+02
18              	3.36789956e+02
19              	3.38231540e+02
20              	3.39635058e+02
21              	3.40984880e+02
22              	3.42287639e+02
23              	3.43516611e+02
24              	3.44662052e+02
25              	3.45760543e+02
26              	3.46815881e+02
27              	3.47834353e+02
28              	3.48881411e+02
29              	3.49963558e+02
30              	3.50999735e+02
31              	3.51971435e+02
32              	3.52809446e+02
33              	3.53631611e+02
34              	3.54363447e+02
35              	3.55031782e+02
36              	3.55620177e+02
37              	3.56159934e+02
38              	3.56655534e+02
39              	3.57125028e+02
40              	3.57591399e+02
41              	3.58158816e+02
42              	3.58615851e+02
43              	3.58998876e+02
44              	3.59265561e+02
45              	3.59553766e+02
46              	3.59841237e+02
47              	3.60091373e+02
48              	3.60311990e+02
49              	3.60506067e+02
50              	3.60715768e+02
51              	3.60964661e+02
52              	3.61258144e+02
53              	3.61579209e+02
54              	3.61961006e+02
55              	3.62356707e+02
56              	3.62766794e+02
57              	3.63173656e+02
58              	3.63553686e+02
59              	3.63903693e+02
60              	3.64212264e+02
61              	3.64496133e+02
62              	3.64760193e+02
63              	3.64994385e+02
64              	3.65202267e+02
65              	3.65387587e+02
66              	3.65544721e+02
67              	3.65697683e+02
68              	3.65861290e+02
69              	3.66093198e+02
70              	3.66398343e+02
71              	3.66701823e+02
72              	3.66795110e+02
73              	3.66921725e+02
74              	3.67060527e+02
75              	3.67168399e+02
76              	3.67248930e+02
77              	3.67309244e+02
78              	3.67358704e+02
79              	3.67418504e+02
80              	3.67490948e+02
81              	3.67586732e+02
82              	3.67732835e+02
83              	3.67940319e+02
84              	3.68185411e+02
85              	3.68411148e+02
86              	3.68620110e+02
87              	3.68787420e+02
88              	3.68893240e+02
89              	3.68961932e+02
90              	3.68991125e+02
91              	3.69013409e+02
92              	3.69022763e+02
93              	3.69053249e+02
94              	3.69100232e+02
95              	3.69202811e+02
96              	3.69358577e+02
97              	3.69544099e+02
98              	3.69697784e+02
99              	3.69795696e+02
100             	3.69859641e+02
101             	3.69870182e+02
102             	3.69835567e+02
103             	3.69806286e+02
104             	3.69796131e+02
105             	3.69799903e+02
106             	3.69857166e+02
107             	3.69985973e+02
108             	3.70126974e+02
109             	3.70253271e+02
110             	3.70365021e+02
111             	3.70423214e+02
112             	3.70423985e+02
113             	3.70391778e+02
114             	3.70356794e+02
115             	3.70339657e+02
116             	3.70361437e+02
117             	3.70409516e+02
118             	3.70482257e+02
119             	3.70559248e+02
120             	3.70660488e+02
121             	3.70739919e+02
122             	3.70809308e+02
123             	3.70840850e+02
124             	3.70845382e+02
125             	3.70830112e+02
126             	3.70801190e+02
127             	3.70760840e+02
128             	3.70751141e+02
129             	3.70782047e+02
130             	3.70860647e+02
131             	3.70967480e+02
132             	3.71109980e+02
133             	3.71244707e+02
134             	3.71364657e+02
135             	3.71440992e+02
136             	3.71482123e+02
137             	3.71474411e+02
138             	3.71425762e+02
139             	3.71349133e+02
140             	3.71262571e+02
141             	3.71203342e+02
142             	3.71176144e+02
143             	3.71254965e+02
144             	3.71443274e+02
145             	3.71548639e+02
146             	3.71618951e+02
147             	3.71621864e+02
148             	3.71574243e+02
149             	3.71477043e+02
150             	3.71345299e+02
151             	3.71214411e+02
152             	3.71107693e+02
153             	3.71042592e+02
154             	3.71005466e+02
155             	3.71008124e+02
156             	3.71048266e+02
157             	3.71145017e+02
158             	3.71248232e+02
159             	3.71314130e+02
160             	3.71319423e+02
161             	3.71272965e+02
162             	3.71180514e+02
163             	3.71070377e+02
164             	3.70996772e+02
165             	3.70987789e+02
166             	3.71038583e+02
167             	3.71131883e+02
168             	3.71236718e+02
169             	3.71348706e+02
170             	3.71445379e+02
171             	3.71515862e+02
172             	3.71558426e+02
173             	3.71563348e+02
174             	3.71550245e+02
175             	3.71504213e+02
176             	3.71436336e+02
177             	3.71384112e+02
178             	3.71368215e+02
179             	3.71375857e+02
180             	3.71487066e+02
181             	3.71641105e+02
182             	3.71824323e+02
183             	3.71903262e+02
184             	3.71957156e+02
185             	3.71949098e+02
186             	3.71871363e+02
187             	3.71745081e+02
188             	3.71624322e+02
189             	3.71537091e+02
190             	3.71498950e+02
191             	3.71495444e+02
192             	3.71580018e+02
193             	3.71686723e+02
194             	3.71784450e+02
195             	3.71858618e+02
196             	3.71896327e+02
197             	3.71860302e+02
198             	3.71770433e+02
199             	3.71652960e+02
200             	3.71558138e+02
201             	3.71503006e+02
202             	3.71479100e+02
203             	3.71510298e+02
204             	3.71558357e+02
205             	3.71645126e+02
206             	3.71737232e+02
207             	3.71827249e+02
208             	3.71889688e+02
209             	3.71921400e+02
210             	3.71919898e+02
211             	3.71892270e+02
212             	3.71836755e+02
213             	3.71758891e+02
214             	3.71675830e+02
215             	3.71594576e+02
216             	3.71538311e+02
217             	3.71530215e+02
218             	3.71586624e+02
219             	3.71690964e+02
220             	3.71805655e+02
221             	3.71916527e+02
222             	3.71992042e+02
223             	3.72026535e+02
224             	3.72015374e+02
225             	3.71958658e+02
226             	3.71874723e+02
227             	3.71791609e+02
228             	3.71726347e+02
229             	3.71678271e+02
230             	3.71663077e+02
231             	3.71677908e+02
232             	3.71726522e+02
233             	3.71799755e+02
234             	3.71894194e+02
235             	3.71989120e+02
236             	3.72069508e+02
237             	3.72116178e+02
238             	3.72129773e+02
239             	3.72116644e+02
240             	3.72088767e+02
241             	3.72057859e+02
242             	3.72030891e+02
243             	3.72019321e+02
244             	3.72036473e+02
245             	3.72082519e+02
246             	3.72146181e+02
247             	3.72225885e+02
248             	3.72312814e+02
249             	3.72382462e+02
250             	3.72436676e+02
251             	3.72460072e+02
252             	3.72454474e+02
253             	3.72426125e+02
254             	3.72393231e+02
255             	3.72370847e+02
256             	3.72366852e+02
257             	3.72382779e+02
258             	3.72421616e+02
259             	3.72475361e+02
260             	3.72546797e+02
261             	3.72593173e+02
262             	3.72633418e+02
263             	3.72652045e+02
264             	3.72644464e+02
265             	3.72616840e+02
266             	3.72578538e+02
267             	3.72544631e+02
268             	3.72521790e+02
269             	3.72509407e+02
270             	3.72507503e+02
271             	3.72524757e+02
272             	3.72557653e+02
273             	3.72597284e+02
274             	3.72631391e+02
275             	3.72647772e+02
276             	3.72647597e+02
277             	3.72628210e+02
278             	3.72606965e+02
279             	3.72582022e+02
280             	3.72564531e+02
281             	3.72551878e+02
282             	3.72546573e+02
283             	3.72560797e+02
284             	3.72598918e+02
285             	3.72638181e+02
286             	3.72694662e+02
287             	3.72742215e+02
288             	3.72765597e+02
289             	3.72768765e+02
290             	3.72755815e+02
291             	3.72730266e+02
292             	3.72710571e+02
293             	3.72706408e+02
294             	3.72706663e+02
295             	3.72728832e+02
296             	3.72762257e+02
297             	3.72794422e+02
298             	3.72819259e+02
299             	3.72833618e+02
300             	3.72830899e+02
301             	3.72811105e+02
302             	3.72781528e+02
303             	3.72758788e+02
304             	3.72761064e+02
305             	3.72793649e+02
306             	3.72841514e+02
307             	3.72911201e+02
308             	3.72975423e+02
309             	3.73017230e+02
310             	3.73044733e+02
311             	3.73056895e+02
312             	3.73049536e+02
313             	3.73031784e+02
314             	3.73006817e+02
315             	3.72979277e+02
316             	3.72963541e+02
317             	3.72959780e+02
318             	3.72967658e+02
319             	3.72984968e+02
320             	3.73016804e+02
321             	3.73087676e+02
322             	3.73163397e+02
323             	3.73214893e+02
324             	3.73229522e+02
325             	3.73198132e+02
326             	3.73128734e+02
327             	3.73036661e+02
328             	3.72954109e+02
329             	3.72909902e+02
330             	3.72910832e+02
331             	3.72937193e+02
332             	3.72984920e+02
333             	3.73029849e+02
334             	3.73058210e+02
335             	3.73064426e+02
336             	3.73027104e+02
337             	3.72955631e+02
338             	3.72867149e+02
339             	3.72767241e+02
340             	3.72669295e+02
341             	3.72606752e+02
342             	3.72584251e+02
343             	3.72599440e+02
344             	3.72652208e+02
345             	3.72723784e+02
346             	3.72801675e+02
347             	3.72852007e+02
348             	3.72868403e+02
349             	3.72850046e+02
350             	3.72804505e+02
351             	3.72724511e+02
352             	3.72628095e+02
353             	3.72516168e+02
354             	3.72400906e+02
355             	3.72287879e+02
356             	3.72226215e+02
357             	3.72296970e+02
358             	3.72391474e+02
359             	3.72365168e+02
360             	3.72368870e+02
361             	3.72318418e+02
362             	3.72220140e+02
363             	3.72060495e+02
364             	3.71882616e+02
365             	3.71724653e+02
366             	3.71663854e+02
367             	3.71743062e+02
368             	3.71908074e+02
369             	3.71895559e+02
370             	3.71602200e+02
371             	3.71328586e+02
372             	3.71156910e+02
373             	3.71036627e+02
374             	3.70937953e+02
375             	3.70855372e+02
376             	3.70812699e+02
377             	3.70763004e+02
378             	3.70716833e+02
379             	3.70698863e+02
380             	3.70738455e+02
381             	3.70865365e+02
382             	3.70996972e+02
383             	3.71154006e+02
384             	3.71275375e+02
385             	3.71336198e+02
386             	3.71346541e+02
387             	3.71314560e+02
388             	3.71272397e+02
389             	3.71218852e+02
390             	3.71178762e+02
391             	3.71138412e+02
392             	3.71126257e+02
393             	3.71150479e+02
394             	3.71226973e+02
395             	3.71322413e+02
396             	3.71426324e+02
397             	3.71504704e+02
398             	3.71547579e+02
399             	3.71552530e+02
400             	3.71536096e+02
401             	3.71524087e+02
402             	3.71522897e+02
403             	3.71517330e+02
404             	3.71512195e+02
405             	3.71532433e+02
406             	3.71594373e+02
407             	3.71677356e+02
408             	3.71766930e+02
409             	3.71832913e+02
410             	3.71864235e+02
411             	3.71859459e+02
412             	3.71826742e+02
413             	3.71781187e+02
414             	3.71762108e+02
415             	3.71776052e+02
416             	3.71828317e+02
417             	3.71916813e+02
418             	3.72002165e+02
419             	3.72079795e+02
420             	3.72135599e+02
421             	3.72146176e+02
422             	3.72118612e+02
423             	3.72057218e+02
424             	3.71998425e+02
425             	3.71950014e+02
426             	3.71931925e+02
427             	3.71951602e+02
428             	3.71999852e+02
429             	3.72074594e+02
430             	3.72148282e+02
431             	3.72211249e+02
432             	3.72257463e+02
433             	3.72264934e+02
434             	3.72244212e+02
435             	3.72196419e+02
436             	3.72129647e+02
437             	3.72039907e+02
438             	3.71959363e+02
439             	3.71904365e+02
440             	3.71881121e+02
441             	3.71917881e+02
442             	3.71983735e+02
443             	3.72083586e+02
444             	3.72177556e+02
445             	3.72244121e+02
446             	3.72265776e+02
447             	3.72252289e+02
448             	3.72210869e+02
449             	3.72143684e+02
450             	3.72051344e+02
451             	3.71968909e+02
452             	3.71898056e+02
453             	3.71847985e+02
454             	3.71843485e+02
455             	3.71940945e+02
456             	3.72042859e+02
457             	3.72117018e+02
458             	3.72168713e+02
459             	3.72171145e+02
460             	3.72116130e+02
461             	3.72013670e+02
462             	3.71884174e+02
463             	3.71785575e+02
464             	3.71752011e+02
465             	3.71766018e+02
466             	3.71864486e+02
467             	3.71968736e+02
468             	3.72055335e+02
469             	3.72125253e+02
470             	3.72155916e+02
471             	3.72143156e+02
472             	3.72091674e+02
473             	3.72026665e+02
474             	3.71943604e+02
475             	3.71878853e+02
476             	3.71852809e+02
477             	3.71855803e+02
478             	3.71908415e+02
479             	3.71991320e+02
480             	3.72101717e+02
481             	3.72199593e+02
482             	3.72273988e+02
483             	3.72302857e+02
484             	3.72280694e+02
485             	3.72210836e+02
486             	3.72106418e+02
487             	3.71993308e+02
488             	3.71897151e+02
489             	3.71824232e+02
490             	3.71826049e+02
491             	3.71977413e+02
492             	3.72067867e+02
493             	3.71994352e+02
494             	3.71890484e+02
495             	3.71791250e+02
496             	3.71673872e+02
497             	3.71522291e+02
498             	3.71386052e+02
499             	3.71310797e+02
500             	3.71283115e+02
501             	3.71284612e+02
502             	3.71327030e+02
503             	3.71389193e+02
504             	3.71511381e+02
505             	3.71606442e+02
506             	3.71675648e+02
507             	3.71706642e+02
508             	3.71690584e+02
509             	3.71648361e+02
510             	3.71571226e+02
511             	3.71481119e+02
512             	3.71390481e+02
513             	3.71317381e+02
514             	3.71265220e+02
515             	3.71252292e+02
516             	3.71278207e+02
517             	3.71352681e+02
518             	3.71461670e+02
519             	3.71573391e+02
520             	3.71663351e+02
521             	3.71722877e+02
522             	3.71754852e+02
523             	3.71763708e+02
524             	3.71749466e+02
525             	3.71706739e+02
526             	3.71651682e+02
527             	3.71596864e+02
528             	3.71553619e+02
529             	3.71529025e+02
530             	3.71547846e+02
531             	3.71634374e+02
532             	3.71768565e+02
533             	3.71897201e+02
534             	3.72004028e+02
535             	3.72068550e+02
536             	3.72087893e+02
537             	3.72074922e+02
538             	3.72033819e+02
539             	3.71979105e+02
540             	3.71935231e+02
541             	3.71921555e+02
542             	3.71935945e+02
543             	3.71975566e+02
544             	3.72038895e+02
545             	3.72097890e+02
546             	3.72157064e+02
547             	3.72201069e+02
548             	3.72228640e+02
549             	3.72240038e+02
550             	3.72240137e+02
551             	3.72233194e+02
552             	3.72228619e+02
553             	3.72240026e+02
554             	3.72258850e+02
555             	3.72301281e+02
556             	3.72352691e+02
557             	3.72427814e+02
558             	3.72487564e+02
559             	3.72539415e+02
560             	3.72564053e+02
561             	3.72555510e+02
562             	3.72517315e+02
563             	3.72462762e+02
564             	3.72409219e+02
565             	3.72373407e+02
566             	3.72370353e+02
567             	3.72391705e+02
568             	3.72433118e+02
569             	3.72477589e+02
570             	3.72522094e+02
571             	3.72546383e+02
572             	3.72547330e+02
573             	3.72525048e+02
574             	3.72487134e+02
575             	3.72451166e+02
576             	3.72419468e+02
577             	3.72404321e+02
578             	3.72398827e+02
579             	3.72408652e+02
580             	3.72432624e+02
581             	3.72483807e+02
582             	3.72527767e+02
583             	3.72564017e+02
584             	3.72576652e+02
585             	3.72570134e+02
586             	3.72538835e+02
587             	3.72494279e+02
588             	3.72439677e+02
589             	3.72402892e+02
590             	3.72387980e+02
591             	3.72389166e+02
592             	3.72412607e+02
593             	3.72462951e+02
594             	3.72500379e+02
595             	3.72540159e+02
596             	3.72555247e+02
597             	3.72540665e+02
598             	3.72501831e+02
599             	3.72449040e+02
600             	3.72389496e+02
601             	3.72346532e+02
602             	3.72325484e+02
603             	3.72322620e+02
604             	3.72355132e+02
605             	3.72408083e+02
606             	3.72471222e+02
607             	3.72528863e+02
608             	3.72562248e+02
609             	3.72568965e+02
610             	3.72541674e+02
611             	3.72481453e+02
612             	3.72397680e+02
613             	3.72315265e+02
614             	3.72241338e+02
615             	3.72169982e+02
616             	3.72159354e+02
617             	3.72244452e+02
618             	3.72360668e+02
619             	3.72463992e+02
620             	3.72545971e+02
621             	3.72562040e+02
