# Region        : cellZone pcb
# Cells         : 805
# Volume        : 1.47467827e+00
# Time          	volAverage(T)
1               	3.00008474e+02
2               	3.00024647e+02
3               	3.00047573e+02
4               	3.00077084e+02
5               	3.00109176e+02
6               	3.00145781e+02
7               	3.00186732e+02
8               	3.00232498e+02
9               	3.00283602e+02
10              	3.00339126e+02
11              	3.00399717e+02
12              	3.00464431e+02
13              	3.00531903e+02
14              	3.00603592e+02
15              	3.00678074e+02
16              	3.00753812e+02
17              	3.00832218e+02
18              	3.00917570e+02
19              	3.01006253e+02
20              	3.01090511e+02
21              	3.01172842e+02
22              	3.01264154e+02
23              	3.01356979e+02
24              	3.01450218e+02
25              	3.01544874e+02
26              	3.01643828e+02
27              	3.01738792e+02
28              	3.01833265e+02
29              	3.01929235e+02
30              	3.02031800e+02
31              	3.02140741e+02
32              	3.02253351e+02
33              	3.02361905e+02
34              	3.02472503e+02
35              	3.02584524e+02
36              	3.02698838e+02
37              	3.02821181e+02
38              	3.02946046e+02
39              	3.03066480e+02
40              	3.03182706e+02
41              	3.03300225e+02
42              	3.03420946e+02
43              	3.03544996e+02
44              	3.03671566e+02
45              	3.03796707e+02
46              	3.03920412e+02
47              	3.04044779e+02
48              	3.04178012e+02
49              	3.04300903e+02
50              	3.04432102e+02
51              	3.04565755e+02
52              	3.04697485e+02
53              	3.04833556e+02
54              	3.04966698e+02
55              	3.05092893e+02
56              	3.05226612e+02
57              	3.05368524e+02
58              	3.05511237e+02
59              	3.05648236e+02
60              	3.05778738e+02
61              	3.05908788e+02
62              	3.06038023e+02
63              	3.06168284e+02
64              	3.06288605e+02
65              	3.06408892e+02
66              	3.06520329e+02
67              	3.06640059e+02
68              	3.06765255e+02
69              	3.06877934e+02
70              	3.06991138e+02
71              	3.07108073e+02
72              	3.07232172e+02
73              	3.07354089e+02
74              	3.07475210e+02
75              	3.07600272e+02
76              	3.07710908e+02
77              	3.07831203e+02
78              	3.07947951e+02
79              	3.08066024e+02
80              	3.08187727e+02
81              	3.08300197e+02
82              	3.08418351e+02
83              	3.08539353e+02
84              	3.08657215e+02
85              	3.08774563e+02
86              	3.08899465e+02
87              	3.09025069e+02
88              	3.09150843e+02
89              	3.09265211e+02
90              	3.09372862e+02
91              	3.09478210e+02
92              	3.09588592e+02
93              	3.09697080e+02
94              	3.09804980e+02
95              	3.09919740e+02
96              	3.10030245e+02
97              	3.10133515e+02
98              	3.10237206e+02
99              	3.10351109e+02
100             	3.10461073e+02
101             	3.10558368e+02
102             	3.10650344e+02
103             	3.10761710e+02
104             	3.10876638e+02
105             	3.10979999e+02
106             	3.11077898e+02
107             	3.11177988e+02
108             	3.11281114e+02
109             	3.11381963e+02
110             	3.11478617e+02
111             	3.11580470e+02
112             	3.11683698e+02
113             	3.11785464e+02
114             	3.11888109e+02
115             	3.11992758e+02
116             	3.12097215e+02
117             	3.12197617e+02
118             	3.12293075e+02
119             	3.12383301e+02
120             	3.12474962e+02
121             	3.12566912e+02
122             	3.12658095e+02
123             	3.12749225e+02
124             	3.12840809e+02
125             	3.12931140e+02
126             	3.13024649e+02
127             	3.13118196e+02
128             	3.13212533e+02
129             	3.13305751e+02
130             	3.13395030e+02
131             	3.13483874e+02
132             	3.13574316e+02
133             	3.13664072e+02
134             	3.13753500e+02
135             	3.13842552e+02
136             	3.13932699e+02
137             	3.14024101e+02
138             	3.14114604e+02
139             	3.14205439e+02
140             	3.14293678e+02
141             	3.14383554e+02
142             	3.14472810e+02
143             	3.14560688e+02
144             	3.14650206e+02
145             	3.14740256e+02
146             	3.14827431e+02
147             	3.14912495e+02
148             	3.14996702e+02
149             	3.15081455e+02
150             	3.15164202e+02
151             	3.15245131e+02
152             	3.15321033e+02
153             	3.15395870e+02
154             	3.15470845e+02
155             	3.15545657e+02
156             	3.15621410e+02
157             	3.15697751e+02
158             	3.15772961e+02
159             	3.15849326e+02
160             	3.15927234e+02
161             	3.16005669e+02
162             	3.16085667e+02
163             	3.16165649e+02
164             	3.16238826e+02
165             	3.16302535e+02
166             	3.16366427e+02
167             	3.16435957e+02
168             	3.16509958e+02
169             	3.16581529e+02
170             	3.16653373e+02
171             	3.16731581e+02
172             	3.16810506e+02
173             	3.16887666e+02
174             	3.16965271e+02
175             	3.17040923e+02
176             	3.17111213e+02
177             	3.17177226e+02
178             	3.17241929e+02
179             	3.17307584e+02
180             	3.17373838e+02
181             	3.17437288e+02
182             	3.17501046e+02
183             	3.17569363e+02
184             	3.17636178e+02
185             	3.17702239e+02
186             	3.17768377e+02
187             	3.17832917e+02
188             	3.17896575e+02
189             	3.17959723e+02
190             	3.18022290e+02
191             	3.18084657e+02
192             	3.18146739e+02
193             	3.18208775e+02
194             	3.18270616e+02
195             	3.18332468e+02
196             	3.18394074e+02
197             	3.18453039e+02
198             	3.18511879e+02
199             	3.18571403e+02
200             	3.18629862e+02
201             	3.18687653e+02
202             	3.18746060e+02
203             	3.18805505e+02
204             	3.18860974e+02
205             	3.18913859e+02
206             	3.18966757e+02
207             	3.19020555e+02
208             	3.19075822e+02
209             	3.19130412e+02
210             	3.19182111e+02
211             	3.19236202e+02
212             	3.19289571e+02
213             	3.19339906e+02
214             	3.19389884e+02
215             	3.19439728e+02
216             	3.19489402e+02
217             	3.19538898e+02
218             	3.19589416e+02
219             	3.19641046e+02
220             	3.19695480e+02
221             	3.19749846e+02
222             	3.19801923e+02
223             	3.19853679e+02
224             	3.19903358e+02
225             	3.19950847e+02
226             	3.19997590e+02
227             	3.20042274e+02
228             	3.20085898e+02
229             	3.20129994e+02
230             	3.20174492e+02
231             	3.20219735e+02
232             	3.20266363e+02
233             	3.20316264e+02
234             	3.20365750e+02
235             	3.20413065e+02
236             	3.20459636e+02
237             	3.20504385e+02
238             	3.20548035e+02
239             	3.20592371e+02
240             	3.20636951e+02
241             	3.20680886e+02
242             	3.20723519e+02
243             	3.20766562e+02
244             	3.20808962e+02
245             	3.20851005e+02
246             	3.20892017e+02
247             	3.20931871e+02
248             	3.20971655e+02
249             	3.21011539e+02
250             	3.21051033e+02
251             	3.21090146e+02
252             	3.21129157e+02
253             	3.21168368e+02
254             	3.21207970e+02
255             	3.21248581e+02
256             	3.21289939e+02
257             	3.21330517e+02
258             	3.21369477e+02
259             	3.21407148e+02
260             	3.21443411e+02
261             	3.21479489e+02
262             	3.21515104e+02
263             	3.21550530e+02
264             	3.21585983e+02
265             	3.21621357e+02
266             	3.21657458e+02
267             	3.21694218e+02
268             	3.21729976e+02
269             	3.21765443e+02
270             	3.21800384e+02
271             	3.21834713e+02
272             	3.21867686e+02
273             	3.21900515e+02
274             	3.21933466e+02
275             	3.21966261e+02
276             	3.21998833e+02
277             	3.22030543e+02
278             	3.22062210e+02
279             	3.22093739e+02
280             	3.22124841e+02
281             	3.22155514e+02
282             	3.22185942e+02
283             	3.22215847e+02
284             	3.22245187e+02
285             	3.22274089e+02
286             	3.22302711e+02
287             	3.22331159e+02
288             	3.22359351e+02
289             	3.22387257e+02
290             	3.22414582e+02
291             	3.22441683e+02
292             	3.22468515e+02
293             	3.22494768e+02
294             	3.22520589e+02
295             	3.22546166e+02
296             	3.22571681e+02
297             	3.22596874e+02
298             	3.22621857e+02
299             	3.22647000e+02
300             	3.22672011e+02
301             	3.22696641e+02
302             	3.22720870e+02
303             	3.22744768e+02
304             	3.22768359e+02
305             	3.22791770e+02
306             	3.22814964e+02
307             	3.22837885e+02
308             	3.22861026e+02
309             	3.22883755e+02
310             	3.22906160e+02
311             	3.22928370e+02
312             	3.22950353e+02
313             	3.22971919e+02
314             	3.22993255e+02
315             	3.23014349e+02
316             	3.23035475e+02
317             	3.23056437e+02
318             	3.23076932e+02
319             	3.23097096e+02
320             	3.23118097e+02
321             	3.23139498e+02
322             	3.23159633e+02
323             	3.23179079e+02
324             	3.23198371e+02
325             	3.23217335e+02
326             	3.23235895e+02
327             	3.23253272e+02
328             	3.23270077e+02
329             	3.23287439e+02
330             	3.23305875e+02
331             	3.23324223e+02
332             	3.23342563e+02
333             	3.23360977e+02
334             	3.23378729e+02
335             	3.23396326e+02
336             	3.23414086e+02
337             	3.23431471e+02
338             	3.23448175e+02
339             	3.23464230e+02
340             	3.23480480e+02
341             	3.23496502e+02
342             	3.23511940e+02
343             	3.23527261e+02
344             	3.23542799e+02
345             	3.23558742e+02
346             	3.23574219e+02
347             	3.23589503e+02
348             	3.23604986e+02
349             	3.23620144e+02
350             	3.23634683e+02
351             	3.23648582e+02
352             	3.23662040e+02
353             	3.23675672e+02
354             	3.23689511e+02
355             	3.23703289e+02
356             	3.23716920e+02
357             	3.23730572e+02
358             	3.23744224e+02
359             	3.23757397e+02
360             	3.23770447e+02
361             	3.23783453e+02
362             	3.23796346e+02
363             	3.23809303e+02
364             	3.23822198e+02
365             	3.23834947e+02
366             	3.23847420e+02
367             	3.23859560e+02
368             	3.23871404e+02
369             	3.23883137e+02
370             	3.23894773e+02
371             	3.23906224e+02
372             	3.23917577e+02
373             	3.23928940e+02
374             	3.23940402e+02
375             	3.23951600e+02
376             	3.23962506e+02
377             	3.23973383e+02
378             	3.23984182e+02
379             	3.23994785e+02
380             	3.24005236e+02
381             	3.24015583e+02
382             	3.24025808e+02
383             	3.24035934e+02
384             	3.24045982e+02
385             	3.24055917e+02
386             	3.24065687e+02
387             	3.24075077e+02
388             	3.24084565e+02
389             	3.24094192e+02
390             	3.24103659e+02
391             	3.24113100e+02
392             	3.24122601e+02
393             	3.24132175e+02
394             	3.24141505e+02
395             	3.24150677e+02
396             	3.24159778e+02
397             	3.24168895e+02
398             	3.24178097e+02
399             	3.24187328e+02
400             	3.24196511e+02
401             	3.24205586e+02
402             	3.24214503e+02
403             	3.24223113e+02
404             	3.24231530e+02
405             	3.24239878e+02
406             	3.24248104e+02
407             	3.24256287e+02
408             	3.24264458e+02
409             	3.24272634e+02
410             	3.24280830e+02
411             	3.24289111e+02
412             	3.24297066e+02
413             	3.24304864e+02
414             	3.24312550e+02
415             	3.24320091e+02
416             	3.24327667e+02
417             	3.24335090e+02
418             	3.24342307e+02
419             	3.24349417e+02
420             	3.24356414e+02
421             	3.24363312e+02
422             	3.24370143e+02
423             	3.24376605e+02
424             	3.24383023e+02
425             	3.24389524e+02
426             	3.24395894e+02
427             	3.24402216e+02
428             	3.24408722e+02
429             	3.24415149e+02
430             	3.24421441e+02
431             	3.24427751e+02
432             	3.24433912e+02
433             	3.24439943e+02
434             	3.24446101e+02
435             	3.24452217e+02
436             	3.24458330e+02
437             	3.24464494e+02
438             	3.24470606e+02
439             	3.24476628e+02
440             	3.24482608e+02
441             	3.24488542e+02
442             	3.24494412e+02
443             	3.24500264e+02
444             	3.24506150e+02
445             	3.24512041e+02
446             	3.24517929e+02
447             	3.24523748e+02
448             	3.24529464e+02
449             	3.24535094e+02
450             	3.24540640e+02
451             	3.24546108e+02
452             	3.24551856e+02
453             	3.24557377e+02
454             	3.24562517e+02
455             	3.24567285e+02
456             	3.24572084e+02
457             	3.24577069e+02
458             	3.24581834e+02
459             	3.24586415e+02
460             	3.24590947e+02
461             	3.24595552e+02
462             	3.24600249e+02
463             	3.24604973e+02
464             	3.24609647e+02
465             	3.24614254e+02
466             	3.24618844e+02
467             	3.24623342e+02
468             	3.24627645e+02
469             	3.24631967e+02
470             	3.24636351e+02
471             	3.24640707e+02
472             	3.24645019e+02
473             	3.24649333e+02
474             	3.24653607e+02
475             	3.24657845e+02
476             	3.24662078e+02
477             	3.24666311e+02
478             	3.24670495e+02
479             	3.24674642e+02
480             	3.24678758e+02
481             	3.24682872e+02
482             	3.24686993e+02
483             	3.24691125e+02
484             	3.24695240e+02
485             	3.24699262e+02
486             	3.24703147e+02
487             	3.24706948e+02
488             	3.24710684e+02
489             	3.24714677e+02
490             	3.24718497e+02
491             	3.24722118e+02
492             	3.24725723e+02
493             	3.24729244e+02
494             	3.24732765e+02
495             	3.24736246e+02
496             	3.24739642e+02
497             	3.24742935e+02
498             	3.24746177e+02
499             	3.24749473e+02
500             	3.24752765e+02
501             	3.24756016e+02
502             	3.24759226e+02
503             	3.24762332e+02
504             	3.24765364e+02
505             	3.24768326e+02
506             	3.24771364e+02
507             	3.24774484e+02
508             	3.24777568e+02
509             	3.24780427e+02
510             	3.24783348e+02
511             	3.24786434e+02
512             	3.24789493e+02
513             	3.24792531e+02
514             	3.24795554e+02
515             	3.24798598e+02
516             	3.24801636e+02
517             	3.24804601e+02
518             	3.24807509e+02
519             	3.24810444e+02
520             	3.24813337e+02
521             	3.24816240e+02
522             	3.24819163e+02
523             	3.24822131e+02
524             	3.24825138e+02
525             	3.24828252e+02
526             	3.24831201e+02
527             	3.24833939e+02
528             	3.24836664e+02
529             	3.24839453e+02
530             	3.24842359e+02
531             	3.24845047e+02
532             	3.24847485e+02
533             	3.24849850e+02
534             	3.24852235e+02
535             	3.24854663e+02
536             	3.24857078e+02
537             	3.24859448e+02
538             	3.24861721e+02
539             	3.24863821e+02
540             	3.24865813e+02
541             	3.24867759e+02
542             	3.24869527e+02
543             	3.24871279e+02
544             	3.24873093e+02
545             	3.24874869e+02
546             	3.24876680e+02
547             	3.24878629e+02
548             	3.24880712e+02
549             	3.24882842e+02
550             	3.24885003e+02
551             	3.24886892e+02
552             	3.24888554e+02
553             	3.24890334e+02
554             	3.24892214e+02
555             	3.24894135e+02
556             	3.24896195e+02
557             	3.24898414e+02
558             	3.24900772e+02
559             	3.24903001e+02
560             	3.24905126e+02
561             	3.24907555e+02
562             	3.24909829e+02
563             	3.24911868e+02
564             	3.24914010e+02
565             	3.24916067e+02
566             	3.24918073e+02
567             	3.24920110e+02
568             	3.24921906e+02
569             	3.24923729e+02
570             	3.24925580e+02
571             	3.24927249e+02
572             	3.24929265e+02
573             	3.24931108e+02
574             	3.24932590e+02
575             	3.24934052e+02
576             	3.24935517e+02
577             	3.24936959e+02
578             	3.24938336e+02
579             	3.24939588e+02
580             	3.24940851e+02
581             	3.24942345e+02
582             	3.24943905e+02
583             	3.24945343e+02
584             	3.24946739e+02
585             	3.24948121e+02
586             	3.24949548e+02
587             	3.24950901e+02
588             	3.24952232e+02
589             	3.24953661e+02
590             	3.24955169e+02
591             	3.24956428e+02
592             	3.24957854e+02
593             	3.24959545e+02
594             	3.24961322e+02
595             	3.24963182e+02
596             	3.24965061e+02
597             	3.24966906e+02
598             	3.24968863e+02
599             	3.24970573e+02
600             	3.24972241e+02
601             	3.24973883e+02
602             	3.24975435e+02
603             	3.24976724e+02
604             	3.24978111e+02
605             	3.24979656e+02
606             	3.24980955e+02
607             	3.24982207e+02
608             	3.24983468e+02
609             	3.24984550e+02
610             	3.24985485e+02
611             	3.24986347e+02
612             	3.24987194e+02
613             	3.24988022e+02
614             	3.24989013e+02
615             	3.24990045e+02
616             	3.24991091e+02
617             	3.24992173e+02
618             	3.24993319e+02
619             	3.24994429e+02
620             	3.24995240e+02
621             	3.24995842e+02
