# Region        : cellZone component_4
# Cells         : 204
# Volume        : 4.03500505e-01
# Time          	volAverage(T)
1               	3.00186170e+02
2               	3.00370137e+02
3               	3.00537911e+02
4               	3.00695410e+02
5               	3.00848505e+02
6               	3.00998908e+02
7               	3.01146451e+02
8               	3.01291839e+02
9               	3.01435852e+02
10              	3.01577729e+02
11              	3.01717290e+02
12              	3.01854731e+02
13              	3.01990016e+02
14              	3.02122464e+02
15              	3.02253417e+02
16              	3.02380419e+02
17              	3.02507019e+02
18              	3.02632439e+02
19              	3.02757529e+02
20              	3.02883622e+02
21              	3.03009289e+02
22              	3.03131681e+02
23              	3.03252882e+02
24              	3.03371757e+02
25              	3.03490788e+02
26              	3.03607130e+02
27              	3.03719650e+02
28              	3.03829677e+02
29              	3.03936619e+02
30              	3.04041002e+02
31              	3.04142204e+02
32              	3.04240248e+02
33              	3.04337172e+02
34              	3.04431529e+02
35              	3.04519973e+02
36              	3.04603833e+02
37              	3.04677399e+02
38              	3.04743459e+02
39              	3.04805328e+02
40              	3.04866850e+02
41              	3.04932181e+02
42              	3.05002599e+02
43              	3.05074123e+02
44              	3.05147184e+02
45              	3.05220252e+02
46              	3.05292650e+02
47              	3.05362474e+02
48              	3.05431103e+02
49              	3.05499081e+02
50              	3.05564599e+02
51              	3.05627686e+02
52              	3.05689110e+02
53              	3.05748132e+02
54              	3.05807206e+02
55              	3.05870538e+02
56              	3.05932334e+02
57              	3.05991832e+02
58              	3.06050284e+02
59              	3.06110353e+02
60              	3.06164593e+02
61              	3.06219162e+02
62              	3.06272493e+02
63              	3.06321537e+02
64              	3.06366620e+02
65              	3.06410074e+02
66              	3.06450790e+02
67              	3.06488848e+02
68              	3.06522973e+02
69              	3.06560247e+02
70              	3.06597294e+02
71              	3.06634748e+02
72              	3.06673517e+02
73              	3.06711978e+02
74              	3.06747955e+02
75              	3.06784392e+02
76              	3.06821045e+02
77              	3.06855441e+02
78              	3.06885473e+02
79              	3.06911850e+02
80              	3.06934785e+02
81              	3.06955926e+02
82              	3.06977670e+02
83              	3.07001538e+02
84              	3.07026706e+02
85              	3.07052018e+02
86              	3.07078424e+02
87              	3.07101901e+02
88              	3.07122840e+02
89              	3.07143105e+02
90              	3.07161119e+02
91              	3.07175685e+02
92              	3.07187239e+02
93              	3.07196470e+02
94              	3.07204257e+02
95              	3.07211779e+02
96              	3.07220182e+02
97              	3.07228790e+02
98              	3.07239257e+02
99              	3.07252515e+02
100             	3.07267768e+02
101             	3.07285420e+02
102             	3.07304467e+02
103             	3.07324405e+02
104             	3.07343682e+02
105             	3.07361645e+02
106             	3.07379236e+02
107             	3.07394909e+02
108             	3.07409593e+02
109             	3.07423410e+02
110             	3.07436185e+02
111             	3.07448006e+02
112             	3.07459360e+02
113             	3.07470449e+02
114             	3.07481705e+02
115             	3.07493291e+02
116             	3.07507337e+02
117             	3.07522786e+02
118             	3.07539650e+02
119             	3.07556790e+02
120             	3.07573704e+02
121             	3.07589799e+02
122             	3.07604295e+02
123             	3.07616284e+02
124             	3.07626398e+02
125             	3.07635175e+02
126             	3.07643251e+02
127             	3.07650852e+02
128             	3.07658109e+02
129             	3.07666194e+02
130             	3.07674970e+02
131             	3.07684552e+02
132             	3.07694959e+02
133             	3.07705757e+02
134             	3.07716354e+02
135             	3.07726606e+02
136             	3.07736536e+02
137             	3.07745429e+02
138             	3.07754108e+02
139             	3.07762589e+02
140             	3.07770674e+02
141             	3.07778171e+02
142             	3.07784918e+02
143             	3.07791084e+02
144             	3.07796669e+02
145             	3.07801816e+02
146             	3.07806848e+02
147             	3.07811912e+02
148             	3.07816887e+02
149             	3.07822031e+02
150             	3.07827424e+02
151             	3.07832845e+02
152             	3.07838404e+02
153             	3.07844030e+02
154             	3.07849567e+02
155             	3.07854960e+02
156             	3.07860116e+02
157             	3.07864990e+02
158             	3.07869614e+02
159             	3.07872843e+02
160             	3.07875928e+02
161             	3.07878553e+02
162             	3.07880586e+02
163             	3.07881988e+02
164             	3.07882746e+02
165             	3.07883197e+02
166             	3.07883964e+02
167             	3.07885301e+02
168             	3.07887215e+02
169             	3.07889932e+02
170             	3.07893204e+02
171             	3.07896054e+02
172             	3.07898809e+02
173             	3.07901139e+02
174             	3.07902975e+02
175             	3.07904040e+02
176             	3.07904544e+02
177             	3.07904701e+02
178             	3.07904848e+02
179             	3.07904856e+02
180             	3.07905317e+02
181             	3.07906184e+02
182             	3.07907066e+02
183             	3.07908215e+02
184             	3.07909868e+02
185             	3.07911651e+02
186             	3.07913362e+02
187             	3.07914956e+02
188             	3.07916370e+02
189             	3.07917510e+02
190             	3.07918576e+02
191             	3.07919234e+02
192             	3.07919388e+02
193             	3.07919804e+02
194             	3.07919689e+02
195             	3.07919802e+02
196             	3.07919949e+02
197             	3.07919837e+02
198             	3.07919503e+02
199             	3.07918977e+02
200             	3.07918289e+02
201             	3.07917732e+02
202             	3.07917533e+02
203             	3.07917258e+02
204             	3.07917277e+02
205             	3.07917726e+02
206             	3.07918310e+02
207             	3.07919072e+02
208             	3.07919477e+02
209             	3.07919443e+02
210             	3.07919320e+02
211             	3.07919139e+02
212             	3.07918706e+02
213             	3.07917911e+02
214             	3.07916796e+02
215             	3.07915609e+02
216             	3.07914311e+02
217             	3.07913123e+02
218             	3.07912159e+02
219             	3.07911403e+02
220             	3.07910985e+02
221             	3.07910601e+02
222             	3.07910353e+02
223             	3.07910120e+02
224             	3.07909940e+02
225             	3.07909368e+02
226             	3.07908777e+02
227             	3.07908177e+02
228             	3.07907311e+02
229             	3.07906061e+02
230             	3.07904511e+02
231             	3.07902873e+02
232             	3.07901180e+02
233             	3.07899583e+02
234             	3.07898306e+02
235             	3.07897406e+02
236             	3.07896603e+02
237             	3.07896039e+02
238             	3.07895696e+02
239             	3.07895410e+02
240             	3.07895096e+02
241             	3.07894742e+02
242             	3.07894342e+02
243             	3.07893955e+02
244             	3.07893613e+02
245             	3.07892902e+02
246             	3.07892399e+02
247             	3.07891867e+02
248             	3.07891123e+02
249             	3.07890121e+02
250             	3.07888974e+02
251             	3.07887821e+02
252             	3.07886750e+02
253             	3.07885786e+02
254             	3.07884921e+02
255             	3.07884185e+02
256             	3.07883646e+02
257             	3.07883366e+02
258             	3.07883426e+02
259             	3.07883385e+02
260             	3.07883451e+02
261             	3.07883663e+02
262             	3.07883834e+02
263             	3.07883827e+02
264             	3.07883627e+02
265             	3.07883435e+02
266             	3.07883212e+02
267             	3.07882781e+02
268             	3.07882193e+02
269             	3.07881300e+02
270             	3.07880281e+02
271             	3.07879213e+02
272             	3.07878344e+02
273             	3.07877605e+02
274             	3.07877298e+02
275             	3.07877197e+02
276             	3.07877143e+02
277             	3.07877365e+02
278             	3.07877744e+02
279             	3.07878099e+02
280             	3.07878287e+02
281             	3.07878090e+02
282             	3.07877540e+02
283             	3.07877001e+02
284             	3.07876274e+02
285             	3.07875347e+02
286             	3.07874169e+02
287             	3.07872942e+02
288             	3.07871904e+02
289             	3.07871148e+02
290             	3.07870224e+02
291             	3.07869548e+02
292             	3.07869135e+02
293             	3.07869087e+02
294             	3.07869162e+02
295             	3.07869325e+02
296             	3.07869484e+02
297             	3.07869471e+02
298             	3.07869188e+02
299             	3.07868778e+02
300             	3.07868374e+02
301             	3.07867966e+02
302             	3.07867696e+02
303             	3.07867460e+02
304             	3.07867161e+02
305             	3.07866783e+02
306             	3.07866398e+02
307             	3.07865945e+02
308             	3.07865271e+02
309             	3.07864425e+02
310             	3.07863532e+02
311             	3.07862635e+02
312             	3.07861975e+02
313             	3.07861335e+02
314             	3.07861064e+02
315             	3.07860960e+02
316             	3.07860987e+02
317             	3.07861221e+02
318             	3.07861449e+02
319             	3.07861698e+02
320             	3.07861873e+02
321             	3.07861884e+02
322             	3.07861656e+02
323             	3.07861261e+02
324             	3.07860889e+02
325             	3.07860536e+02
326             	3.07860134e+02
327             	3.07859782e+02
328             	3.07859487e+02
329             	3.07859211e+02
330             	3.07858992e+02
331             	3.07858881e+02
332             	3.07858769e+02
333             	3.07858640e+02
334             	3.07858345e+02
335             	3.07858003e+02
336             	3.07857711e+02
337             	3.07857416e+02
338             	3.07857136e+02
339             	3.07856929e+02
340             	3.07856770e+02
341             	3.07856740e+02
342             	3.07856704e+02
343             	3.07856609e+02
344             	3.07856524e+02
345             	3.07856567e+02
346             	3.07856637e+02
347             	3.07856688e+02
348             	3.07856711e+02
349             	3.07856641e+02
350             	3.07856500e+02
351             	3.07856294e+02
352             	3.07856046e+02
353             	3.07855810e+02
354             	3.07855587e+02
355             	3.07855357e+02
356             	3.07855092e+02
357             	3.07854842e+02
358             	3.07854596e+02
359             	3.07854349e+02
360             	3.07854097e+02
361             	3.07853848e+02
362             	3.07853642e+02
363             	3.07853458e+02
364             	3.07853379e+02
365             	3.07853303e+02
366             	3.07853252e+02
367             	3.07853252e+02
368             	3.07853298e+02
369             	3.07853377e+02
370             	3.07853461e+02
371             	3.07853528e+02
372             	3.07853541e+02
373             	3.07853471e+02
374             	3.07853324e+02
375             	3.07853180e+02
376             	3.07853023e+02
377             	3.07852856e+02
378             	3.07852695e+02
379             	3.07852500e+02
380             	3.07852319e+02
381             	3.07852159e+02
382             	3.07852013e+02
383             	3.07851917e+02
384             	3.07851838e+02
385             	3.07851804e+02
386             	3.07851789e+02
387             	3.07851867e+02
388             	3.07851939e+02
389             	3.07852009e+02
390             	3.07852086e+02
391             	3.07852162e+02
392             	3.07852230e+02
393             	3.07852246e+02
394             	3.07852264e+02
395             	3.07852211e+02
396             	3.07852161e+02
397             	3.07852109e+02
398             	3.07852047e+02
399             	3.07851989e+02
400             	3.07851979e+02
401             	3.07851958e+02
402             	3.07851944e+02
403             	3.07851952e+02
404             	3.07851971e+02
405             	3.07851989e+02
406             	3.07852012e+02
407             	3.07852061e+02
408             	3.07852154e+02
409             	3.07852232e+02
410             	3.07852324e+02
411             	3.07852412e+02
412             	3.07852500e+02
413             	3.07852588e+02
414             	3.07852671e+02
415             	3.07852743e+02
416             	3.07852803e+02
417             	3.07852834e+02
418             	3.07852868e+02
419             	3.07852901e+02
420             	3.07852889e+02
421             	3.07852887e+02
422             	3.07852877e+02
423             	3.07852863e+02
424             	3.07852844e+02
425             	3.07852814e+02
426             	3.07852784e+02
427             	3.07852765e+02
428             	3.07852756e+02
429             	3.07852764e+02
430             	3.07852782e+02
431             	3.07852810e+02
432             	3.07852836e+02
433             	3.07852858e+02
434             	3.07852881e+02
435             	3.07852898e+02
436             	3.07852904e+02
437             	3.07852901e+02
438             	3.07852878e+02
439             	3.07852857e+02
440             	3.07852818e+02
441             	3.07852777e+02
442             	3.07852742e+02
443             	3.07852709e+02
444             	3.07852667e+02
445             	3.07852620e+02
446             	3.07852568e+02
447             	3.07852528e+02
448             	3.07852491e+02
449             	3.07852479e+02
450             	3.07852466e+02
451             	3.07852462e+02
452             	3.07852469e+02
453             	3.07852483e+02
454             	3.07852501e+02
455             	3.07852518e+02
456             	3.07852532e+02
457             	3.07852528e+02
458             	3.07852526e+02
459             	3.07852524e+02
460             	3.07852499e+02
461             	3.07852475e+02
462             	3.07852454e+02
463             	3.07852440e+02
464             	3.07852420e+02
465             	3.07852401e+02
466             	3.07852389e+02
467             	3.07852386e+02
468             	3.07852393e+02
469             	3.07852406e+02
470             	3.07852420e+02
471             	3.07852449e+02
472             	3.07852470e+02
473             	3.07852492e+02
474             	3.07852519e+02
475             	3.07852550e+02
476             	3.07852587e+02
477             	3.07852622e+02
478             	3.07852647e+02
479             	3.07852660e+02
480             	3.07852674e+02
481             	3.07852688e+02
482             	3.07852697e+02
483             	3.07852698e+02
484             	3.07852698e+02
485             	3.07852700e+02
486             	3.07852705e+02
487             	3.07852710e+02
488             	3.07852717e+02
489             	3.07852728e+02
490             	3.07852740e+02
491             	3.07852751e+02
492             	3.07852760e+02
493             	3.07852767e+02
494             	3.07852771e+02
495             	3.07852778e+02
496             	3.07852782e+02
497             	3.07852784e+02
498             	3.07852786e+02
499             	3.07852789e+02
500             	3.07852794e+02
501             	3.07852797e+02
502             	3.07852802e+02
503             	3.07852805e+02
504             	3.07852808e+02
505             	3.07852805e+02
506             	3.07852801e+02
507             	3.07852795e+02
508             	3.07852788e+02
509             	3.07852772e+02
510             	3.07852757e+02
511             	3.07852743e+02
512             	3.07852728e+02
513             	3.07852712e+02
514             	3.07852695e+02
515             	3.07852677e+02
516             	3.07852658e+02
517             	3.07852641e+02
518             	3.07852629e+02
519             	3.07852621e+02
520             	3.07852620e+02
521             	3.07852617e+02
522             	3.07852614e+02
523             	3.07852613e+02
524             	3.07852613e+02
525             	3.07852613e+02
526             	3.07852611e+02
527             	3.07852608e+02
528             	3.07852604e+02
529             	3.07852601e+02
530             	3.07852595e+02
531             	3.07852590e+02
532             	3.07852582e+02
533             	3.07852575e+02
534             	3.07852570e+02
535             	3.07852564e+02
536             	3.07852558e+02
537             	3.07852553e+02
538             	3.07852550e+02
539             	3.07852548e+02
540             	3.07852549e+02
541             	3.07852556e+02
542             	3.07852563e+02
543             	3.07852573e+02
544             	3.07852586e+02
545             	3.07852597e+02
546             	3.07852609e+02
547             	3.07852621e+02
548             	3.07852631e+02
549             	3.07852641e+02
550             	3.07852649e+02
551             	3.07852657e+02
552             	3.07852662e+02
553             	3.07852669e+02
554             	3.07852677e+02
555             	3.07852683e+02
556             	3.07852689e+02
557             	3.07852694e+02
558             	3.07852700e+02
559             	3.07852705e+02
560             	3.07852710e+02
561             	3.07852716e+02
562             	3.07852722e+02
563             	3.07852728e+02
564             	3.07852737e+02
565             	3.07852746e+02
566             	3.07852755e+02
567             	3.07852763e+02
568             	3.07852771e+02
569             	3.07852780e+02
570             	3.07852789e+02
571             	3.07852798e+02
572             	3.07852805e+02
573             	3.07852812e+02
574             	3.07852816e+02
575             	3.07852820e+02
576             	3.07852819e+02
577             	3.07852815e+02
578             	3.07852813e+02
579             	3.07852812e+02
580             	3.07852810e+02
581             	3.07852812e+02
582             	3.07852814e+02
583             	3.07852815e+02
584             	3.07852814e+02
585             	3.07852813e+02
586             	3.07852812e+02
587             	3.07852812e+02
588             	3.07852812e+02
589             	3.07852813e+02
590             	3.07852814e+02
591             	3.07852817e+02
592             	3.07852820e+02
593             	3.07852822e+02
594             	3.07852825e+02
595             	3.07852827e+02
596             	3.07852829e+02
597             	3.07852829e+02
598             	3.07852827e+02
599             	3.07852827e+02
600             	3.07852826e+02
601             	3.07852826e+02
602             	3.07852825e+02
603             	3.07852824e+02
604             	3.07852824e+02
605             	3.07852824e+02
606             	3.07852825e+02
607             	3.07852827e+02
608             	3.07852830e+02
609             	3.07852835e+02
610             	3.07852840e+02
611             	3.07852846e+02
612             	3.07852852e+02
613             	3.07852858e+02
614             	3.07852864e+02
615             	3.07852868e+02
616             	3.07852872e+02
617             	3.07852876e+02
618             	3.07852880e+02
619             	3.07852884e+02
620             	3.07852889e+02
621             	3.07852895e+02
