# Region        : cellZone component_2
# Cells         : 112
# Volume        : 2.15674870e-01
# Time          	volAverage(T)
1               	3.01083502e+02
2               	3.02151451e+02
3               	3.03092529e+02
4               	3.03960209e+02
5               	3.04803402e+02
6               	3.05634619e+02
7               	3.06452206e+02
8               	3.07255688e+02
9               	3.08052103e+02
10              	3.08841269e+02
11              	3.09620481e+02
12              	3.10394075e+02
13              	3.11150185e+02
14              	3.11893298e+02
15              	3.12629251e+02
16              	3.13364816e+02
17              	3.14062384e+02
18              	3.14719616e+02
19              	3.15363127e+02
20              	3.15995172e+02
21              	3.16628701e+02
22              	3.17249692e+02
23              	3.17850645e+02
24              	3.18429500e+02
25              	3.18984245e+02
26              	3.19521243e+02
27              	3.20040616e+02
28              	3.20560949e+02
29              	3.21076139e+02
30              	3.21596902e+02
31              	3.22121831e+02
32              	3.22625693e+02
33              	3.23093123e+02
34              	3.23527149e+02
35              	3.23954689e+02
36              	3.24373194e+02
37              	3.24776407e+02
38              	3.25168470e+02
39              	3.25550052e+02
40              	3.25909719e+02
41              	3.26257551e+02
42              	3.26611849e+02
43              	3.26968707e+02
44              	3.27330588e+02
45              	3.27714522e+02
46              	3.28101238e+02
47              	3.28472583e+02
48              	3.28840960e+02
49              	3.29192884e+02
50              	3.29522855e+02
51              	3.29836231e+02
52              	3.30131317e+02
53              	3.30403949e+02
54              	3.30672970e+02
55              	3.30945269e+02
56              	3.31223281e+02
57              	3.31506458e+02
58              	3.31792435e+02
59              	3.32077200e+02
60              	3.32383709e+02
61              	3.32692699e+02
62              	3.33006119e+02
63              	3.33323252e+02
64              	3.33632677e+02
65              	3.33937288e+02
66              	3.34236522e+02
67              	3.34521155e+02
68              	3.34789681e+02
69              	3.35043776e+02
70              	3.35281402e+02
71              	3.35507669e+02
72              	3.35728625e+02
73              	3.35949744e+02
74              	3.36168310e+02
75              	3.36389640e+02
76              	3.36607160e+02
77              	3.36819200e+02
78              	3.37018897e+02
79              	3.37210911e+02
80              	3.37399562e+02
81              	3.37589507e+02
82              	3.37776001e+02
83              	3.37958117e+02
84              	3.38142453e+02
85              	3.38325571e+02
86              	3.38509179e+02
87              	3.38690642e+02
88              	3.38864546e+02
89              	3.39035387e+02
90              	3.39201163e+02
91              	3.39359577e+02
92              	3.39507951e+02
93              	3.39645318e+02
94              	3.39769015e+02
95              	3.39886603e+02
96              	3.39999869e+02
97              	3.40114334e+02
98              	3.40232005e+02
99              	3.40352559e+02
100             	3.40474134e+02
101             	3.40598487e+02
102             	3.40721860e+02
103             	3.40843374e+02
104             	3.40960989e+02
105             	3.41072203e+02
106             	3.41173917e+02
107             	3.41269593e+02
108             	3.41359024e+02
109             	3.41442258e+02
110             	3.41519777e+02
111             	3.41591551e+02
112             	3.41658607e+02
113             	3.41724863e+02
114             	3.41794212e+02
115             	3.41864727e+02
116             	3.41937182e+02
117             	3.42009386e+02
118             	3.42081138e+02
119             	3.42150483e+02
120             	3.42212901e+02
121             	3.42270705e+02
122             	3.42324685e+02
123             	3.42375871e+02
124             	3.42425260e+02
125             	3.42473229e+02
126             	3.42519572e+02
127             	3.42562991e+02
128             	3.42605396e+02
129             	3.42645279e+02
130             	3.42682337e+02
131             	3.42717063e+02
132             	3.42748367e+02
133             	3.42777126e+02
134             	3.42803739e+02
135             	3.42828819e+02
136             	3.42850465e+02
137             	3.42870151e+02
138             	3.42889172e+02
139             	3.42908856e+02
140             	3.42929606e+02
141             	3.42951094e+02
142             	3.42972984e+02
143             	3.42994508e+02
144             	3.43015899e+02
145             	3.43036325e+02
146             	3.43052656e+02
147             	3.43066290e+02
148             	3.43077711e+02
149             	3.43086993e+02
150             	3.43093598e+02
151             	3.43097695e+02
152             	3.43100138e+02
153             	3.43102566e+02
154             	3.43106437e+02
155             	3.43111738e+02
156             	3.43117755e+02
157             	3.43124622e+02
158             	3.43132337e+02
159             	3.43140277e+02
160             	3.43147644e+02
161             	3.43154135e+02
162             	3.43158958e+02
163             	3.43162197e+02
164             	3.43163874e+02
165             	3.43164706e+02
166             	3.43165188e+02
167             	3.43165102e+02
168             	3.43164596e+02
169             	3.43163733e+02
170             	3.43161718e+02
171             	3.43158373e+02
172             	3.43154282e+02
173             	3.43149654e+02
174             	3.43145611e+02
175             	3.43142496e+02
176             	3.43139748e+02
177             	3.43137295e+02
178             	3.43134796e+02
179             	3.43132287e+02
180             	3.43130180e+02
181             	3.43127523e+02
182             	3.43123545e+02
183             	3.43118939e+02
184             	3.43113950e+02
185             	3.43108350e+02
186             	3.43102177e+02
187             	3.43094887e+02
188             	3.43086597e+02
189             	3.43077627e+02
190             	3.43068431e+02
191             	3.43059398e+02
192             	3.43050076e+02
193             	3.43040388e+02
194             	3.43031444e+02
195             	3.43022911e+02
196             	3.43014777e+02
197             	3.43007181e+02
198             	3.42999586e+02
199             	3.42991835e+02
200             	3.42983493e+02
201             	3.42974723e+02
202             	3.42965643e+02
203             	3.42955987e+02
204             	3.42945620e+02
205             	3.42934773e+02
206             	3.42923639e+02
207             	3.42912307e+02
208             	3.42900776e+02
209             	3.42889080e+02
210             	3.42877453e+02
211             	3.42866066e+02
212             	3.42854576e+02
213             	3.42843193e+02
214             	3.42831706e+02
215             	3.42820089e+02
216             	3.42808307e+02
217             	3.42796627e+02
218             	3.42784887e+02
219             	3.42773133e+02
220             	3.42761319e+02
221             	3.42749467e+02
222             	3.42737724e+02
223             	3.42726270e+02
224             	3.42715194e+02
225             	3.42704545e+02
226             	3.42693856e+02
227             	3.42683071e+02
228             	3.42672032e+02
229             	3.42660591e+02
230             	3.42648553e+02
231             	3.42636004e+02
232             	3.42623045e+02
233             	3.42610092e+02
234             	3.42597393e+02
235             	3.42585340e+02
236             	3.42573881e+02
237             	3.42562846e+02
238             	3.42552075e+02
239             	3.42541469e+02
240             	3.42530933e+02
241             	3.42520342e+02
242             	3.42509993e+02
243             	3.42499750e+02
244             	3.42489461e+02
245             	3.42479071e+02
246             	3.42468447e+02
247             	3.42457587e+02
248             	3.42446550e+02
249             	3.42435409e+02
250             	3.42424305e+02
251             	3.42413328e+02
252             	3.42402663e+02
253             	3.42392197e+02
254             	3.42381915e+02
255             	3.42371785e+02
256             	3.42361779e+02
257             	3.42351822e+02
258             	3.42341894e+02
259             	3.42332048e+02
260             	3.42322193e+02
261             	3.42312363e+02
262             	3.42302572e+02
263             	3.42292849e+02
264             	3.42283248e+02
265             	3.42273770e+02
266             	3.42264471e+02
267             	3.42255360e+02
268             	3.42246325e+02
269             	3.42237388e+02
270             	3.42228604e+02
271             	3.42219954e+02
272             	3.42211498e+02
273             	3.42203134e+02
274             	3.42194852e+02
275             	3.42186574e+02
276             	3.42178269e+02
277             	3.42169919e+02
278             	3.42161535e+02
279             	3.42153190e+02
280             	3.42144962e+02
281             	3.42136824e+02
282             	3.42128800e+02
283             	3.42120978e+02
284             	3.42113407e+02
285             	3.42106082e+02
286             	3.42098967e+02
287             	3.42092035e+02
288             	3.42085254e+02
289             	3.42078548e+02
290             	3.42071833e+02
291             	3.42065191e+02
292             	3.42058600e+02
293             	3.42052034e+02
294             	3.42045471e+02
295             	3.42038918e+02
296             	3.42032386e+02
297             	3.42025884e+02
298             	3.42019451e+02
299             	3.42013185e+02
300             	3.42007050e+02
301             	3.42001043e+02
302             	3.41995262e+02
303             	3.41989658e+02
304             	3.41984180e+02
305             	3.41978777e+02
306             	3.41973414e+02
307             	3.41968107e+02
308             	3.41962868e+02
309             	3.41957707e+02
310             	3.41952631e+02
311             	3.41947641e+02
312             	3.41942749e+02
313             	3.41937974e+02
314             	3.41933342e+02
315             	3.41928844e+02
316             	3.41924459e+02
317             	3.41920132e+02
318             	3.41915852e+02
319             	3.41911628e+02
320             	3.41907489e+02
321             	3.41903425e+02
322             	3.41899449e+02
323             	3.41895527e+02
324             	3.41891662e+02
325             	3.41887857e+02
326             	3.41884121e+02
327             	3.41880458e+02
328             	3.41876849e+02
329             	3.41873307e+02
330             	3.41869839e+02
331             	3.41866515e+02
332             	3.41863301e+02
333             	3.41860197e+02
334             	3.41857209e+02
335             	3.41854303e+02
336             	3.41851463e+02
337             	3.41848660e+02
338             	3.41845870e+02
339             	3.41843123e+02
340             	3.41840405e+02
341             	3.41837725e+02
342             	3.41835093e+02
343             	3.41832513e+02
344             	3.41829984e+02
345             	3.41827523e+02
346             	3.41825166e+02
347             	3.41822891e+02
348             	3.41820686e+02
349             	3.41818556e+02
350             	3.41816503e+02
351             	3.41814524e+02
352             	3.41812625e+02
353             	3.41810798e+02
354             	3.41809032e+02
355             	3.41807295e+02
356             	3.41805575e+02
357             	3.41803873e+02
358             	3.41802211e+02
359             	3.41800588e+02
360             	3.41799007e+02
361             	3.41797482e+02
362             	3.41796012e+02
363             	3.41794587e+02
364             	3.41793209e+02
365             	3.41791878e+02
366             	3.41790593e+02
367             	3.41789356e+02
368             	3.41788166e+02
369             	3.41787018e+02
370             	3.41785915e+02
371             	3.41784853e+02
372             	3.41783833e+02
373             	3.41782856e+02
374             	3.41781921e+02
375             	3.41781025e+02
376             	3.41780167e+02
377             	3.41779351e+02
378             	3.41778583e+02
379             	3.41777858e+02
380             	3.41777173e+02
381             	3.41776505e+02
382             	3.41775851e+02
383             	3.41775217e+02
384             	3.41774603e+02
385             	3.41774010e+02
386             	3.41773437e+02
387             	3.41772884e+02
388             	3.41772354e+02
389             	3.41771862e+02
390             	3.41771422e+02
391             	3.41771023e+02
392             	3.41770658e+02
393             	3.41770330e+02
394             	3.41770038e+02
395             	3.41769778e+02
396             	3.41769542e+02
397             	3.41769323e+02
398             	3.41769112e+02
399             	3.41768916e+02
400             	3.41768737e+02
401             	3.41768573e+02
402             	3.41768419e+02
403             	3.41768272e+02
404             	3.41768139e+02
405             	3.41768025e+02
406             	3.41767932e+02
407             	3.41767863e+02
408             	3.41767814e+02
409             	3.41767783e+02
410             	3.41767767e+02
411             	3.41767766e+02
412             	3.41767783e+02
413             	3.41767822e+02
414             	3.41767878e+02
415             	3.41767956e+02
416             	3.41768061e+02
417             	3.41768190e+02
418             	3.41768336e+02
419             	3.41768485e+02
420             	3.41768629e+02
421             	3.41768767e+02
422             	3.41768907e+02
423             	3.41769047e+02
424             	3.41769202e+02
425             	3.41769386e+02
426             	3.41769584e+02
427             	3.41769792e+02
428             	3.41770009e+02
429             	3.41770236e+02
430             	3.41770472e+02
431             	3.41770721e+02
432             	3.41770982e+02
433             	3.41771256e+02
434             	3.41771538e+02
435             	3.41771821e+02
436             	3.41772105e+02
437             	3.41772391e+02
438             	3.41772682e+02
439             	3.41772977e+02
440             	3.41773279e+02
441             	3.41773592e+02
442             	3.41773915e+02
443             	3.41774249e+02
444             	3.41774590e+02
445             	3.41774941e+02
446             	3.41775299e+02
447             	3.41775664e+02
448             	3.41776036e+02
449             	3.41776409e+02
450             	3.41776785e+02
451             	3.41777159e+02
452             	3.41777531e+02
453             	3.41777904e+02
454             	3.41778277e+02
455             	3.41778651e+02
456             	3.41779025e+02
457             	3.41779403e+02
458             	3.41779785e+02
459             	3.41780171e+02
460             	3.41780562e+02
461             	3.41780957e+02
462             	3.41781354e+02
463             	3.41781751e+02
464             	3.41782146e+02
465             	3.41782539e+02
466             	3.41782928e+02
467             	3.41783315e+02
468             	3.41783705e+02
469             	3.41784094e+02
470             	3.41784485e+02
471             	3.41784878e+02
472             	3.41785274e+02
473             	3.41785673e+02
474             	3.41786074e+02
475             	3.41786477e+02
476             	3.41786882e+02
477             	3.41787288e+02
478             	3.41787694e+02
479             	3.41788099e+02
480             	3.41788499e+02
481             	3.41788894e+02
482             	3.41789288e+02
483             	3.41789680e+02
484             	3.41790072e+02
485             	3.41790464e+02
486             	3.41790857e+02
487             	3.41791250e+02
488             	3.41791643e+02
489             	3.41792037e+02
490             	3.41792430e+02
491             	3.41792822e+02
492             	3.41793213e+02
493             	3.41793603e+02
494             	3.41793991e+02
495             	3.41794377e+02
496             	3.41794761e+02
497             	3.41795143e+02
498             	3.41795523e+02
499             	3.41795900e+02
500             	3.41796274e+02
501             	3.41796646e+02
502             	3.41797016e+02
503             	3.41797384e+02
504             	3.41797752e+02
505             	3.41798119e+02
506             	3.41798485e+02
507             	3.41798850e+02
508             	3.41799213e+02
509             	3.41799574e+02
510             	3.41799933e+02
511             	3.41800289e+02
512             	3.41800642e+02
513             	3.41800992e+02
514             	3.41801340e+02
515             	3.41801686e+02
516             	3.41802029e+02
517             	3.41802370e+02
518             	3.41802709e+02
519             	3.41803047e+02
520             	3.41803383e+02
521             	3.41803717e+02
522             	3.41804049e+02
523             	3.41804381e+02
524             	3.41804710e+02
525             	3.41805037e+02
526             	3.41805361e+02
527             	3.41805683e+02
528             	3.41806001e+02
529             	3.41806316e+02
530             	3.41806629e+02
531             	3.41806939e+02
532             	3.41807248e+02
533             	3.41807555e+02
534             	3.41807860e+02
535             	3.41808165e+02
536             	3.41808469e+02
537             	3.41808771e+02
538             	3.41809071e+02
539             	3.41809369e+02
540             	3.41809665e+02
541             	3.41809959e+02
542             	3.41810250e+02
543             	3.41810540e+02
544             	3.41810827e+02
545             	3.41811112e+02
546             	3.41811395e+02
547             	3.41811676e+02
548             	3.41811954e+02
549             	3.41812231e+02
550             	3.41812505e+02
551             	3.41812777e+02
552             	3.41813047e+02
553             	3.41813315e+02
554             	3.41813581e+02
555             	3.41813844e+02
556             	3.41814105e+02
557             	3.41814364e+02
558             	3.41814619e+02
559             	3.41814872e+02
560             	3.41815123e+02
561             	3.41815371e+02
562             	3.41815617e+02
563             	3.41815860e+02
564             	3.41816100e+02
565             	3.41816339e+02
566             	3.41816575e+02
567             	3.41816809e+02
568             	3.41817040e+02
569             	3.41817268e+02
570             	3.41817493e+02
571             	3.41817716e+02
572             	3.41817936e+02
573             	3.41818153e+02
574             	3.41818368e+02
575             	3.41818580e+02
576             	3.41818790e+02
577             	3.41818997e+02
578             	3.41819201e+02
579             	3.41819403e+02
580             	3.41819603e+02
581             	3.41819800e+02
582             	3.41819996e+02
583             	3.41820188e+02
584             	3.41820379e+02
585             	3.41820567e+02
586             	3.41820754e+02
587             	3.41820939e+02
588             	3.41821122e+02
589             	3.41821303e+02
590             	3.41821482e+02
591             	3.41821660e+02
592             	3.41821835e+02
593             	3.41822009e+02
594             	3.41822181e+02
595             	3.41822351e+02
596             	3.41822520e+02
597             	3.41822686e+02
598             	3.41822851e+02
599             	3.41823015e+02
600             	3.41823176e+02
601             	3.41823335e+02
602             	3.41823493e+02
603             	3.41823648e+02
604             	3.41823802e+02
605             	3.41823954e+02
606             	3.41824105e+02
607             	3.41824254e+02
608             	3.41824403e+02
609             	3.41824549e+02
610             	3.41824694e+02
611             	3.41824837e+02
612             	3.41824979e+02
613             	3.41825118e+02
614             	3.41825257e+02
615             	3.41825393e+02
616             	3.41825529e+02
617             	3.41825664e+02
618             	3.41825798e+02
619             	3.41825930e+02
620             	3.41826060e+02
621             	3.41826190e+02
