# Region        : cellZone component_2
# Cells         : 204
# Volume        : 4.04954964e-01
# Time          	volAverage(T)
1               	3.00167799e+02
2               	3.00334131e+02
3               	3.00493856e+02
4               	3.00649871e+02
5               	3.00803956e+02
6               	3.00956719e+02
7               	3.01108407e+02
8               	3.01259636e+02
9               	3.01410716e+02
10              	3.01561276e+02
11              	3.01711406e+02
12              	3.01861035e+02
13              	3.02010309e+02
14              	3.02159619e+02
15              	3.02307404e+02
16              	3.02452989e+02
17              	3.02598252e+02
18              	3.02744054e+02
19              	3.02888543e+02
20              	3.03031417e+02
21              	3.03172809e+02
22              	3.03312490e+02
23              	3.03451013e+02
24              	3.03588551e+02
25              	3.03724816e+02
26              	3.03860673e+02
27              	3.03994589e+02
28              	3.04128927e+02
29              	3.04258723e+02
30              	3.04385222e+02
31              	3.04507388e+02
32              	3.04630199e+02
33              	3.04756873e+02
34              	3.04882316e+02
35              	3.05006155e+02
36              	3.05128572e+02
37              	3.05249297e+02
38              	3.05368985e+02
39              	3.05487493e+02
40              	3.05604482e+02
41              	3.05721479e+02
42              	3.05838697e+02
43              	3.05956416e+02
44              	3.06073865e+02
45              	3.06191142e+02
46              	3.06304551e+02
47              	3.06416130e+02
48              	3.06529518e+02
49              	3.06644733e+02
50              	3.06759176e+02
51              	3.06872020e+02
52              	3.06983130e+02
53              	3.07092278e+02
54              	3.07199590e+02
55              	3.07307372e+02
56              	3.07414296e+02
57              	3.07520126e+02
58              	3.07626506e+02
59              	3.07733571e+02
60              	3.07842404e+02
61              	3.07950083e+02
62              	3.08056485e+02
63              	3.08162317e+02
64              	3.08268721e+02
65              	3.08374286e+02
66              	3.08479054e+02
67              	3.08582582e+02
68              	3.08686862e+02
69              	3.08790377e+02
70              	3.08891876e+02
71              	3.08992088e+02
72              	3.09090600e+02
73              	3.09187187e+02
74              	3.09283102e+02
75              	3.09378072e+02
76              	3.09472682e+02
77              	3.09567150e+02
78              	3.09662917e+02
79              	3.09759429e+02
80              	3.09857062e+02
81              	3.09954621e+02
82              	3.10051298e+02
83              	3.10146715e+02
84              	3.10239881e+02
85              	3.10331086e+02
86              	3.10420510e+02
87              	3.10508574e+02
88              	3.10594822e+02
89              	3.10679996e+02
90              	3.10765057e+02
91              	3.10850116e+02
92              	3.10935737e+02
93              	3.11022523e+02
94              	3.11110063e+02
95              	3.11198571e+02
96              	3.11287327e+02
97              	3.11375710e+02
98              	3.11463107e+02
99              	3.11548859e+02
100             	3.11632756e+02
101             	3.11715076e+02
102             	3.11795661e+02
103             	3.11874391e+02
104             	3.11951865e+02
105             	3.12029363e+02
106             	3.12107994e+02
107             	3.12188019e+02
108             	3.12268885e+02
109             	3.12350455e+02
110             	3.12432316e+02
111             	3.12513034e+02
112             	3.12592909e+02
113             	3.12670949e+02
114             	3.12747117e+02
115             	3.12821224e+02
116             	3.12893441e+02
117             	3.12964633e+02
118             	3.13035461e+02
119             	3.13105669e+02
120             	3.13175321e+02
121             	3.13244411e+02
122             	3.13313475e+02
123             	3.13381955e+02
124             	3.13450833e+02
125             	3.13519764e+02
126             	3.13588244e+02
127             	3.13656220e+02
128             	3.13723294e+02
129             	3.13789929e+02
130             	3.13856126e+02
131             	3.13921857e+02
132             	3.13987469e+02
133             	3.14053302e+02
134             	3.14118569e+02
135             	3.14182437e+02
136             	3.14245521e+02
137             	3.14307181e+02
138             	3.14366883e+02
139             	3.14425017e+02
140             	3.14481359e+02
141             	3.14536530e+02
142             	3.14591253e+02
143             	3.14645747e+02
144             	3.14700682e+02
145             	3.14755757e+02
146             	3.14811177e+02
147             	3.14866212e+02
148             	3.14921897e+02
149             	3.14977934e+02
150             	3.15033442e+02
151             	3.15088181e+02
152             	3.15142133e+02
153             	3.15195332e+02
154             	3.15247957e+02
155             	3.15300064e+02
156             	3.15351981e+02
157             	3.15403786e+02
158             	3.15455506e+02
159             	3.15507049e+02
160             	3.15558177e+02
161             	3.15609137e+02
162             	3.15659252e+02
163             	3.15709398e+02
164             	3.15759028e+02
165             	3.15808117e+02
166             	3.15856877e+02
167             	3.15905221e+02
168             	3.15953157e+02
169             	3.16000778e+02
170             	3.16048143e+02
171             	3.16095279e+02
172             	3.16142222e+02
173             	3.16189023e+02
174             	3.16235878e+02
175             	3.16281876e+02
176             	3.16328299e+02
177             	3.16374602e+02
178             	3.16420843e+02
179             	3.16466366e+02
180             	3.16511969e+02
181             	3.16557225e+02
182             	3.16601876e+02
183             	3.16645945e+02
184             	3.16689367e+02
185             	3.16732389e+02
186             	3.16774931e+02
187             	3.16817091e+02
188             	3.16858852e+02
189             	3.16900244e+02
190             	3.16941293e+02
191             	3.16981989e+02
192             	3.17022321e+02
193             	3.17062365e+02
194             	3.17102130e+02
195             	3.17141596e+02
196             	3.17180777e+02
197             	3.17219610e+02
198             	3.17257997e+02
199             	3.17296014e+02
200             	3.17333737e+02
201             	3.17371199e+02
202             	3.17408427e+02
203             	3.17445412e+02
204             	3.17482109e+02
205             	3.17518544e+02
206             	3.17554698e+02
207             	3.17590648e+02
208             	3.17626341e+02
209             	3.17661852e+02
210             	3.17697120e+02
211             	3.17732081e+02
212             	3.17766706e+02
213             	3.17800946e+02
214             	3.17834834e+02
215             	3.17868404e+02
216             	3.17901599e+02
217             	3.17934484e+02
218             	3.17966997e+02
219             	3.17999150e+02
220             	3.18030892e+02
221             	3.18062364e+02
222             	3.18093564e+02
223             	3.18124477e+02
224             	3.18155068e+02
225             	3.18185470e+02
226             	3.18215643e+02
227             	3.18245521e+02
228             	3.18275157e+02
229             	3.18304476e+02
230             	3.18333478e+02
231             	3.18362204e+02
232             	3.18390662e+02
233             	3.18418845e+02
234             	3.18446755e+02
235             	3.18474417e+02
236             	3.18501830e+02
237             	3.18528974e+02
238             	3.18555852e+02
239             	3.18582507e+02
240             	3.18608856e+02
241             	3.18635127e+02
242             	3.18661194e+02
243             	3.18687044e+02
244             	3.18712678e+02
245             	3.18738025e+02
246             	3.18763138e+02
247             	3.18788004e+02
248             	3.18812661e+02
249             	3.18837071e+02
250             	3.18861283e+02
251             	3.18885068e+02
252             	3.18908691e+02
253             	3.18932037e+02
254             	3.18955099e+02
255             	3.18977879e+02
256             	3.19000377e+02
257             	3.19022616e+02
258             	3.19044637e+02
259             	3.19066396e+02
260             	3.19088095e+02
261             	3.19109682e+02
262             	3.19131169e+02
263             	3.19152532e+02
264             	3.19173741e+02
265             	3.19194782e+02
266             	3.19215651e+02
267             	3.19236341e+02
268             	3.19256857e+02
269             	3.19277215e+02
270             	3.19297396e+02
271             	3.19317400e+02
272             	3.19337214e+02
273             	3.19356848e+02
274             	3.19376300e+02
275             	3.19395556e+02
276             	3.19414612e+02
277             	3.19433480e+02
278             	3.19452159e+02
279             	3.19470648e+02
280             	3.19488952e+02
281             	3.19507075e+02
282             	3.19525041e+02
283             	3.19542884e+02
284             	3.19560591e+02
285             	3.19578174e+02
286             	3.19595629e+02
287             	3.19612943e+02
288             	3.19630106e+02
289             	3.19647097e+02
290             	3.19663919e+02
291             	3.19680570e+02
292             	3.19697049e+02
293             	3.19713372e+02
294             	3.19729557e+02
295             	3.19745608e+02
296             	3.19761535e+02
297             	3.19777333e+02
298             	3.19792997e+02
299             	3.19808516e+02
300             	3.19823895e+02
301             	3.19839137e+02
302             	3.19854242e+02
303             	3.19869206e+02
304             	3.19884031e+02
305             	3.19898724e+02
306             	3.19913282e+02
307             	3.19927708e+02
308             	3.19942001e+02
309             	3.19956170e+02
310             	3.19970211e+02
311             	3.19984141e+02
312             	3.19997962e+02
313             	3.20011729e+02
314             	3.20025409e+02
315             	3.20039008e+02
316             	3.20052533e+02
317             	3.20065969e+02
318             	3.20079317e+02
319             	3.20092592e+02
320             	3.20105787e+02
321             	3.20118833e+02
322             	3.20131781e+02
323             	3.20144610e+02
324             	3.20157329e+02
325             	3.20169947e+02
326             	3.20182451e+02
327             	3.20194864e+02
328             	3.20207171e+02
329             	3.20219363e+02
330             	3.20231458e+02
331             	3.20243459e+02
332             	3.20255361e+02
333             	3.20267126e+02
334             	3.20278795e+02
335             	3.20290355e+02
336             	3.20301806e+02
337             	3.20313156e+02
338             	3.20324398e+02
339             	3.20335528e+02
340             	3.20346548e+02
341             	3.20357475e+02
342             	3.20368327e+02
343             	3.20379109e+02
344             	3.20389820e+02
345             	3.20400454e+02
346             	3.20411105e+02
347             	3.20421715e+02
348             	3.20432304e+02
349             	3.20442869e+02
350             	3.20453398e+02
351             	3.20463840e+02
352             	3.20474179e+02
353             	3.20484439e+02
354             	3.20494615e+02
355             	3.20504667e+02
356             	3.20514671e+02
357             	3.20524583e+02
358             	3.20534422e+02
359             	3.20544190e+02
360             	3.20553893e+02
361             	3.20563524e+02
362             	3.20573080e+02
363             	3.20582548e+02
364             	3.20591934e+02
365             	3.20601233e+02
366             	3.20610451e+02
367             	3.20619594e+02
368             	3.20628670e+02
369             	3.20637694e+02
370             	3.20646668e+02
371             	3.20655626e+02
372             	3.20664596e+02
373             	3.20673555e+02
374             	3.20682503e+02
375             	3.20691427e+02
376             	3.20700319e+02
377             	3.20709172e+02
378             	3.20717995e+02
379             	3.20726774e+02
380             	3.20735497e+02
381             	3.20744178e+02
382             	3.20752708e+02
383             	3.20761267e+02
384             	3.20769746e+02
385             	3.20778163e+02
386             	3.20786512e+02
387             	3.20794788e+02
388             	3.20802993e+02
389             	3.20811134e+02
390             	3.20819214e+02
391             	3.20827196e+02
392             	3.20835143e+02
393             	3.20843039e+02
394             	3.20850889e+02
395             	3.20858686e+02
396             	3.20866439e+02
397             	3.20874150e+02
398             	3.20881832e+02
399             	3.20889489e+02
400             	3.20897121e+02
401             	3.20904724e+02
402             	3.20912289e+02
403             	3.20919822e+02
404             	3.20927316e+02
405             	3.20934818e+02
406             	3.20942307e+02
407             	3.20949801e+02
408             	3.20957292e+02
409             	3.20964773e+02
410             	3.20972226e+02
411             	3.20979644e+02
412             	3.20987052e+02
413             	3.20994433e+02
414             	3.21001800e+02
415             	3.21009148e+02
416             	3.21016467e+02
417             	3.21023759e+02
418             	3.21031037e+02
419             	3.21038266e+02
420             	3.21045430e+02
421             	3.21052549e+02
422             	3.21059613e+02
423             	3.21066621e+02
424             	3.21073576e+02
425             	3.21080502e+02
426             	3.21087392e+02
427             	3.21094255e+02
428             	3.21101087e+02
429             	3.21107907e+02
430             	3.21114706e+02
431             	3.21121479e+02
432             	3.21128222e+02
433             	3.21134925e+02
434             	3.21141604e+02
435             	3.21148255e+02
436             	3.21154887e+02
437             	3.21161498e+02
438             	3.21168092e+02
439             	3.21174672e+02
440             	3.21181237e+02
441             	3.21187804e+02
442             	3.21194354e+02
443             	3.21200892e+02
444             	3.21207418e+02
445             	3.21213939e+02
446             	3.21220439e+02
447             	3.21226978e+02
448             	3.21233520e+02
449             	3.21240081e+02
450             	3.21246657e+02
451             	3.21253233e+02
452             	3.21259795e+02
453             	3.21266279e+02
454             	3.21272733e+02
455             	3.21279143e+02
456             	3.21285498e+02
457             	3.21291809e+02
458             	3.21298079e+02
459             	3.21304321e+02
460             	3.21310536e+02
461             	3.21316736e+02
462             	3.21322908e+02
463             	3.21329062e+02
464             	3.21335201e+02
465             	3.21341324e+02
466             	3.21347432e+02
467             	3.21353512e+02
468             	3.21359564e+02
469             	3.21365586e+02
470             	3.21371582e+02
471             	3.21377554e+02
472             	3.21383502e+02
473             	3.21389426e+02
474             	3.21395332e+02
475             	3.21401224e+02
476             	3.21407099e+02
477             	3.21412954e+02
478             	3.21418793e+02
479             	3.21424613e+02
480             	3.21430407e+02
481             	3.21436172e+02
482             	3.21441911e+02
483             	3.21447638e+02
484             	3.21453353e+02
485             	3.21459054e+02
486             	3.21464746e+02
487             	3.21470432e+02
488             	3.21476116e+02
489             	3.21481800e+02
490             	3.21487476e+02
491             	3.21493152e+02
492             	3.21498815e+02
493             	3.21504460e+02
494             	3.21510086e+02
495             	3.21515695e+02
496             	3.21521276e+02
497             	3.21526831e+02
498             	3.21532324e+02
499             	3.21537787e+02
500             	3.21543205e+02
501             	3.21548586e+02
502             	3.21553925e+02
503             	3.21559221e+02
504             	3.21564486e+02
505             	3.21569723e+02
506             	3.21574930e+02
507             	3.21580132e+02
508             	3.21585320e+02
509             	3.21590479e+02
510             	3.21595662e+02
511             	3.21600842e+02
512             	3.21606022e+02
513             	3.21611174e+02
514             	3.21616322e+02
515             	3.21621452e+02
516             	3.21626560e+02
517             	3.21631646e+02
518             	3.21636711e+02
519             	3.21641748e+02
520             	3.21646755e+02
521             	3.21651741e+02
522             	3.21656705e+02
523             	3.21661643e+02
524             	3.21666556e+02
525             	3.21671443e+02
526             	3.21676306e+02
527             	3.21681138e+02
528             	3.21685957e+02
529             	3.21690756e+02
530             	3.21695534e+02
531             	3.21700294e+02
532             	3.21705036e+02
533             	3.21709764e+02
534             	3.21714479e+02
535             	3.21719176e+02
536             	3.21723853e+02
537             	3.21728507e+02
538             	3.21733140e+02
539             	3.21737759e+02
540             	3.21742356e+02
541             	3.21746932e+02
542             	3.21751493e+02
543             	3.21756014e+02
544             	3.21760510e+02
545             	3.21764973e+02
546             	3.21769404e+02
547             	3.21773808e+02
548             	3.21778179e+02
549             	3.21782521e+02
550             	3.21786835e+02
551             	3.21791123e+02
552             	3.21795387e+02
553             	3.21799626e+02
554             	3.21803843e+02
555             	3.21808033e+02
556             	3.21812204e+02
557             	3.21816354e+02
558             	3.21820481e+02
559             	3.21824592e+02
560             	3.21828686e+02
561             	3.21832763e+02
562             	3.21836825e+02
563             	3.21840868e+02
564             	3.21844893e+02
565             	3.21848897e+02
566             	3.21852884e+02
567             	3.21856843e+02
568             	3.21860786e+02
569             	3.21864711e+02
570             	3.21868618e+02
571             	3.21872509e+02
572             	3.21876384e+02
573             	3.21880244e+02
574             	3.21884087e+02
575             	3.21887913e+02
576             	3.21891722e+02
577             	3.21895517e+02
578             	3.21899294e+02
579             	3.21903056e+02
580             	3.21906804e+02
581             	3.21910533e+02
582             	3.21914241e+02
583             	3.21917929e+02
584             	3.21921590e+02
585             	3.21925215e+02
586             	3.21928816e+02
587             	3.21932389e+02
588             	3.21935928e+02
589             	3.21939440e+02
590             	3.21942914e+02
591             	3.21946385e+02
592             	3.21949838e+02
593             	3.21953277e+02
594             	3.21956697e+02
595             	3.21960096e+02
596             	3.21963473e+02
597             	3.21966831e+02
598             	3.21970169e+02
599             	3.21973484e+02
600             	3.21976777e+02
601             	3.21980048e+02
602             	3.21983300e+02
603             	3.21986533e+02
604             	3.21989748e+02
605             	3.21992945e+02
606             	3.21996121e+02
607             	3.21999270e+02
608             	3.22002404e+02
609             	3.22005518e+02
610             	3.22008614e+02
611             	3.22011692e+02
612             	3.22014756e+02
613             	3.22017803e+02
614             	3.22020830e+02
615             	3.22023841e+02
616             	3.22026836e+02
617             	3.22029813e+02
618             	3.22032773e+02
619             	3.22035717e+02
620             	3.22038644e+02
621             	3.22041556e+02
