# Region        : cellZone component_1
# Cells         : 293
# Volume        : 5.77701371e-01
# Time          	volAverage(T)
1               	3.00323796e+02
2               	3.00644656e+02
3               	3.00944964e+02
4               	3.01230527e+02
5               	3.01508132e+02
6               	3.01780354e+02
7               	3.02048071e+02
8               	3.02311610e+02
9               	3.02571895e+02
10              	3.02828654e+02
11              	3.03083483e+02
12              	3.03335397e+02
13              	3.03583927e+02
14              	3.03826813e+02
15              	3.04068190e+02
16              	3.04298105e+02
17              	3.04517757e+02
18              	3.04728259e+02
19              	3.04938818e+02
20              	3.05153347e+02
21              	3.05363561e+02
22              	3.05568453e+02
23              	3.05764323e+02
24              	3.05957253e+02
25              	3.06142765e+02
26              	3.06332386e+02
27              	3.06519984e+02
28              	3.06706408e+02
29              	3.06895044e+02
30              	3.07075584e+02
31              	3.07232382e+02
32              	3.07369011e+02
33              	3.07498954e+02
34              	3.07640313e+02
35              	3.07795140e+02
36              	3.07949065e+02
37              	3.08098815e+02
38              	3.08245069e+02
39              	3.08392588e+02
40              	3.08540154e+02
41              	3.08686156e+02
42              	3.08826223e+02
43              	3.08965411e+02
44              	3.09102340e+02
45              	3.09236841e+02
46              	3.09375640e+02
47              	3.09511889e+02
48              	3.09628866e+02
49              	3.09729623e+02
50              	3.09832637e+02
51              	3.09949108e+02
52              	3.10061261e+02
53              	3.10169541e+02
54              	3.10270271e+02
55              	3.10368907e+02
56              	3.10463095e+02
57              	3.10557780e+02
58              	3.10654913e+02
59              	3.10752743e+02
60              	3.10851832e+02
61              	3.10959036e+02
62              	3.11062145e+02
63              	3.11153557e+02
64              	3.11229488e+02
65              	3.11311264e+02
66              	3.11393460e+02
67              	3.11477834e+02
68              	3.11560729e+02
69              	3.11642161e+02
70              	3.11721138e+02
71              	3.11800151e+02
72              	3.11876709e+02
73              	3.11952411e+02
74              	3.12024953e+02
75              	3.12096905e+02
76              	3.12170506e+02
77              	3.12241143e+02
78              	3.12312029e+02
79              	3.12380966e+02
80              	3.12449897e+02
81              	3.12518059e+02
82              	3.12587497e+02
83              	3.12654044e+02
84              	3.12719736e+02
85              	3.12784352e+02
86              	3.12847413e+02
87              	3.12911487e+02
88              	3.12973051e+02
89              	3.13034976e+02
90              	3.13094111e+02
91              	3.13153539e+02
92              	3.13214260e+02
93              	3.13274308e+02
94              	3.13332061e+02
95              	3.13389791e+02
96              	3.13441993e+02
97              	3.13494821e+02
98              	3.13550462e+02
99              	3.13603069e+02
100             	3.13655184e+02
101             	3.13705933e+02
102             	3.13755693e+02
103             	3.13804128e+02
104             	3.13852841e+02
105             	3.13899342e+02
106             	3.13945739e+02
107             	3.13991598e+02
108             	3.14036595e+02
109             	3.14081934e+02
110             	3.14126950e+02
111             	3.14172645e+02
112             	3.14216516e+02
113             	3.14259506e+02
114             	3.14302568e+02
115             	3.14344920e+02
116             	3.14386880e+02
117             	3.14428042e+02
118             	3.14468714e+02
119             	3.14509047e+02
120             	3.14549796e+02
121             	3.14587941e+02
122             	3.14625335e+02
123             	3.14661760e+02
124             	3.14697844e+02
125             	3.14733544e+02
126             	3.14769116e+02
127             	3.14803785e+02
128             	3.14839010e+02
129             	3.14872919e+02
130             	3.14907156e+02
131             	3.14941167e+02
132             	3.14974724e+02
133             	3.15007840e+02
134             	3.15040682e+02
135             	3.15073119e+02
136             	3.15105185e+02
137             	3.15136629e+02
138             	3.15167234e+02
139             	3.15197144e+02
140             	3.15226505e+02
141             	3.15255280e+02
142             	3.15283470e+02
143             	3.15311190e+02
144             	3.15338496e+02
145             	3.15365484e+02
146             	3.15391804e+02
147             	3.15418155e+02
148             	3.15444256e+02
149             	3.15470130e+02
150             	3.15495593e+02
151             	3.15520759e+02
152             	3.15545514e+02
153             	3.15569815e+02
154             	3.15593676e+02
155             	3.15617132e+02
156             	3.15640196e+02
157             	3.15662875e+02
158             	3.15685194e+02
159             	3.15707190e+02
160             	3.15728869e+02
161             	3.15750144e+02
162             	3.15771174e+02
163             	3.15791875e+02
164             	3.15812292e+02
165             	3.15832379e+02
166             	3.15852311e+02
167             	3.15871984e+02
168             	3.15891427e+02
169             	3.15910668e+02
170             	3.15929725e+02
171             	3.15948595e+02
172             	3.15967258e+02
173             	3.15985722e+02
174             	3.16003658e+02
175             	3.16021612e+02
176             	3.16039471e+02
177             	3.16057153e+02
178             	3.16074609e+02
179             	3.16091802e+02
180             	3.16108739e+02
181             	3.16125377e+02
182             	3.16141810e+02
183             	3.16158053e+02
184             	3.16174038e+02
185             	3.16189888e+02
186             	3.16205384e+02
187             	3.16220670e+02
188             	3.16235658e+02
189             	3.16250473e+02
190             	3.16265138e+02
191             	3.16279644e+02
192             	3.16293995e+02
193             	3.16308195e+02
194             	3.16322225e+02
195             	3.16336096e+02
196             	3.16349860e+02
197             	3.16363500e+02
198             	3.16377008e+02
199             	3.16390209e+02
200             	3.16403325e+02
201             	3.16416259e+02
202             	3.16429035e+02
203             	3.16441635e+02
204             	3.16454047e+02
205             	3.16466268e+02
206             	3.16478302e+02
207             	3.16490158e+02
208             	3.16501767e+02
209             	3.16513290e+02
210             	3.16524672e+02
211             	3.16535903e+02
212             	3.16546970e+02
213             	3.16557880e+02
214             	3.16568670e+02
215             	3.16579337e+02
216             	3.16589898e+02
217             	3.16600378e+02
218             	3.16610771e+02
219             	3.16621089e+02
220             	3.16631309e+02
221             	3.16641305e+02
222             	3.16651296e+02
223             	3.16661222e+02
224             	3.16671050e+02
225             	3.16680824e+02
226             	3.16690476e+02
227             	3.16699982e+02
228             	3.16709317e+02
229             	3.16718541e+02
230             	3.16727644e+02
231             	3.16736599e+02
232             	3.16745425e+02
233             	3.16754131e+02
234             	3.16762673e+02
235             	3.16771040e+02
236             	3.16779344e+02
237             	3.16787573e+02
238             	3.16795725e+02
239             	3.16803831e+02
240             	3.16811898e+02
241             	3.16819918e+02
242             	3.16827776e+02
243             	3.16835736e+02
244             	3.16843682e+02
245             	3.16851538e+02
246             	3.16859355e+02
247             	3.16867030e+02
248             	3.16874587e+02
249             	3.16882010e+02
250             	3.16889295e+02
251             	3.16896443e+02
252             	3.16903467e+02
253             	3.16910331e+02
254             	3.16917129e+02
255             	3.16923834e+02
256             	3.16930489e+02
257             	3.16937063e+02
258             	3.16943550e+02
259             	3.16949963e+02
260             	3.16956306e+02
261             	3.16962582e+02
262             	3.16968801e+02
263             	3.16974965e+02
264             	3.16981066e+02
265             	3.16987094e+02
266             	3.16993054e+02
267             	3.16998923e+02
268             	3.17004651e+02
269             	3.17010392e+02
270             	3.17016109e+02
271             	3.17021778e+02
272             	3.17027378e+02
273             	3.17032904e+02
274             	3.17038341e+02
275             	3.17043694e+02
276             	3.17049104e+02
277             	3.17054239e+02
278             	3.17059350e+02
279             	3.17064402e+02
280             	3.17069409e+02
281             	3.17074393e+02
282             	3.17079368e+02
283             	3.17084342e+02
284             	3.17089329e+02
285             	3.17094323e+02
286             	3.17099325e+02
287             	3.17104311e+02
288             	3.17109238e+02
289             	3.17114166e+02
290             	3.17118985e+02
291             	3.17123798e+02
292             	3.17128565e+02
293             	3.17133308e+02
294             	3.17137981e+02
295             	3.17142601e+02
296             	3.17147160e+02
297             	3.17151649e+02
298             	3.17156062e+02
299             	3.17160399e+02
300             	3.17164680e+02
301             	3.17168895e+02
302             	3.17173066e+02
303             	3.17177174e+02
304             	3.17181245e+02
305             	3.17185268e+02
306             	3.17189230e+02
307             	3.17193126e+02
308             	3.17196970e+02
309             	3.17200733e+02
310             	3.17204415e+02
311             	3.17208015e+02
312             	3.17211562e+02
313             	3.17215067e+02
314             	3.17218560e+02
315             	3.17222048e+02
316             	3.17225530e+02
317             	3.17229006e+02
318             	3.17232467e+02
319             	3.17235900e+02
320             	3.17239308e+02
321             	3.17242648e+02
322             	3.17245965e+02
323             	3.17249234e+02
324             	3.17252458e+02
325             	3.17255640e+02
326             	3.17258784e+02
327             	3.17261889e+02
328             	3.17264977e+02
329             	3.17268018e+02
330             	3.17271028e+02
331             	3.17273995e+02
332             	3.17276949e+02
333             	3.17279890e+02
334             	3.17282781e+02
335             	3.17285633e+02
336             	3.17288475e+02
337             	3.17291316e+02
338             	3.17294135e+02
339             	3.17296930e+02
340             	3.17299696e+02
341             	3.17302421e+02
342             	3.17305098e+02
343             	3.17307725e+02
344             	3.17310301e+02
345             	3.17312827e+02
346             	3.17315307e+02
347             	3.17317745e+02
348             	3.17320143e+02
349             	3.17322501e+02
350             	3.17324822e+02
351             	3.17327125e+02
352             	3.17329411e+02
353             	3.17331682e+02
354             	3.17333951e+02
355             	3.17336217e+02
356             	3.17338475e+02
357             	3.17340728e+02
358             	3.17342976e+02
359             	3.17345217e+02
360             	3.17347444e+02
361             	3.17349655e+02
362             	3.17351844e+02
363             	3.17354003e+02
364             	3.17356135e+02
365             	3.17358210e+02
366             	3.17360262e+02
367             	3.17362275e+02
368             	3.17364231e+02
369             	3.17366150e+02
370             	3.17368027e+02
371             	3.17369856e+02
372             	3.17371682e+02
373             	3.17373466e+02
374             	3.17375245e+02
375             	3.17377002e+02
376             	3.17378754e+02
377             	3.17380491e+02
378             	3.17382208e+02
379             	3.17383925e+02
380             	3.17385650e+02
381             	3.17387382e+02
382             	3.17389121e+02
383             	3.17390863e+02
384             	3.17392604e+02
385             	3.17394337e+02
386             	3.17396052e+02
387             	3.17397746e+02
388             	3.17399415e+02
389             	3.17401057e+02
390             	3.17402672e+02
391             	3.17404263e+02
392             	3.17405821e+02
393             	3.17407341e+02
394             	3.17408826e+02
395             	3.17410317e+02
396             	3.17411804e+02
397             	3.17413283e+02
398             	3.17414752e+02
399             	3.17416185e+02
400             	3.17417580e+02
401             	3.17418920e+02
402             	3.17420221e+02
403             	3.17421493e+02
404             	3.17422752e+02
405             	3.17423995e+02
406             	3.17425241e+02
407             	3.17426514e+02
408             	3.17427823e+02
409             	3.17429154e+02
410             	3.17430520e+02
411             	3.17431888e+02
412             	3.17433247e+02
413             	3.17434606e+02
414             	3.17435944e+02
415             	3.17437274e+02
416             	3.17438595e+02
417             	3.17439899e+02
418             	3.17441194e+02
419             	3.17442473e+02
420             	3.17443733e+02
421             	3.17444970e+02
422             	3.17446192e+02
423             	3.17447404e+02
424             	3.17448588e+02
425             	3.17449778e+02
426             	3.17450976e+02
427             	3.17452191e+02
428             	3.17453401e+02
429             	3.17454592e+02
430             	3.17455749e+02
431             	3.17456853e+02
432             	3.17457917e+02
433             	3.17458933e+02
434             	3.17459902e+02
435             	3.17460818e+02
436             	3.17461696e+02
437             	3.17462539e+02
438             	3.17463381e+02
439             	3.17464233e+02
440             	3.17465109e+02
441             	3.17466013e+02
442             	3.17466945e+02
443             	3.17467891e+02
444             	3.17468847e+02
445             	3.17469809e+02
446             	3.17470756e+02
447             	3.17471698e+02
448             	3.17472637e+02
449             	3.17473572e+02
450             	3.17474503e+02
451             	3.17475429e+02
452             	3.17476351e+02
453             	3.17477274e+02
454             	3.17478189e+02
455             	3.17479089e+02
456             	3.17479982e+02
457             	3.17480870e+02
458             	3.17481733e+02
459             	3.17482582e+02
460             	3.17483417e+02
461             	3.17484246e+02
462             	3.17485064e+02
463             	3.17485870e+02
464             	3.17486667e+02
465             	3.17487453e+02
466             	3.17488227e+02
467             	3.17488998e+02
468             	3.17489788e+02
469             	3.17490588e+02
470             	3.17491399e+02
471             	3.17492218e+02
472             	3.17493045e+02
473             	3.17493871e+02
474             	3.17494686e+02
475             	3.17495480e+02
476             	3.17496252e+02
477             	3.17497000e+02
478             	3.17497723e+02
479             	3.17498425e+02
480             	3.17499108e+02
481             	3.17499781e+02
482             	3.17500445e+02
483             	3.17501105e+02
484             	3.17501767e+02
485             	3.17502436e+02
486             	3.17503104e+02
487             	3.17503767e+02
488             	3.17504418e+02
489             	3.17505062e+02
490             	3.17505696e+02
491             	3.17506315e+02
492             	3.17506916e+02
493             	3.17507497e+02
494             	3.17508060e+02
495             	3.17508610e+02
496             	3.17509153e+02
497             	3.17509674e+02
498             	3.17510173e+02
499             	3.17510658e+02
500             	3.17511135e+02
501             	3.17511598e+02
502             	3.17512055e+02
503             	3.17512507e+02
504             	3.17512974e+02
505             	3.17513460e+02
506             	3.17513963e+02
507             	3.17514497e+02
508             	3.17515045e+02
509             	3.17515624e+02
510             	3.17516232e+02
511             	3.17516861e+02
512             	3.17517496e+02
513             	3.17518134e+02
514             	3.17518778e+02
515             	3.17519424e+02
516             	3.17520061e+02
517             	3.17520680e+02
518             	3.17521280e+02
519             	3.17521858e+02
520             	3.17522414e+02
521             	3.17522951e+02
522             	3.17523466e+02
523             	3.17523963e+02
524             	3.17524444e+02
525             	3.17524903e+02
526             	3.17525357e+02
527             	3.17525801e+02
528             	3.17526244e+02
529             	3.17526692e+02
530             	3.17527143e+02
531             	3.17527589e+02
532             	3.17528023e+02
533             	3.17528454e+02
534             	3.17528869e+02
535             	3.17529263e+02
536             	3.17529646e+02
537             	3.17530018e+02
538             	3.17530383e+02
539             	3.17530746e+02
540             	3.17531113e+02
541             	3.17531495e+02
542             	3.17531885e+02
543             	3.17532296e+02
544             	3.17532719e+02
545             	3.17533162e+02
546             	3.17533612e+02
547             	3.17534062e+02
548             	3.17534491e+02
549             	3.17534921e+02
550             	3.17535356e+02
551             	3.17535796e+02
552             	3.17536233e+02
553             	3.17536670e+02
554             	3.17537115e+02
555             	3.17537568e+02
556             	3.17538028e+02
557             	3.17538494e+02
558             	3.17538964e+02
559             	3.17539431e+02
560             	3.17539892e+02
561             	3.17540345e+02
562             	3.17540787e+02
563             	3.17541219e+02
564             	3.17541638e+02
565             	3.17542043e+02
566             	3.17542434e+02
567             	3.17542802e+02
568             	3.17543135e+02
569             	3.17543445e+02
570             	3.17543724e+02
571             	3.17543975e+02
572             	3.17544207e+02
573             	3.17544425e+02
574             	3.17544628e+02
575             	3.17544817e+02
576             	3.17544992e+02
577             	3.17545167e+02
578             	3.17545337e+02
579             	3.17545505e+02
580             	3.17545663e+02
581             	3.17545810e+02
582             	3.17545948e+02
583             	3.17546082e+02
584             	3.17546212e+02
585             	3.17546339e+02
586             	3.17546461e+02
587             	3.17546585e+02
588             	3.17546703e+02
589             	3.17546825e+02
590             	3.17546960e+02
591             	3.17547105e+02
592             	3.17547256e+02
593             	3.17547414e+02
594             	3.17547592e+02
595             	3.17547801e+02
596             	3.17548044e+02
597             	3.17548333e+02
598             	3.17548651e+02
599             	3.17549011e+02
600             	3.17549408e+02
601             	3.17549833e+02
602             	3.17550272e+02
603             	3.17550717e+02
604             	3.17551149e+02
605             	3.17551568e+02
606             	3.17551969e+02
607             	3.17552343e+02
608             	3.17552692e+02
609             	3.17553022e+02
610             	3.17553334e+02
611             	3.17553608e+02
612             	3.17553850e+02
613             	3.17554061e+02
614             	3.17554251e+02
615             	3.17554422e+02
616             	3.17554582e+02
617             	3.17554724e+02
618             	3.17554850e+02
619             	3.17554969e+02
620             	3.17555086e+02
621             	3.17555204e+02
