# Region        : cellZone component_2
# Cells         : 192
# Volume        : 3.35258807e-01
# Time          	volAverage(T)
1               	3.00243457e+02
2               	3.00484950e+02
3               	3.00717036e+02
4               	3.00943189e+02
5               	3.01165768e+02
6               	3.01385635e+02
7               	3.01603412e+02
8               	3.01819675e+02
9               	3.02034844e+02
10              	3.02249119e+02
11              	3.02462784e+02
12              	3.02674625e+02
13              	3.02884155e+02
14              	3.03090784e+02
15              	3.03296284e+02
16              	3.03502256e+02
17              	3.03708116e+02
18              	3.03912245e+02
19              	3.04114075e+02
20              	3.04313338e+02
21              	3.04509272e+02
22              	3.04706197e+02
23              	3.04902522e+02
24              	3.05098765e+02
25              	3.05293740e+02
26              	3.05488288e+02
27              	3.05681977e+02
28              	3.05873137e+02
29              	3.06060455e+02
30              	3.06245877e+02
31              	3.06426896e+02
32              	3.06607794e+02
33              	3.06785888e+02
34              	3.06962437e+02
35              	3.07135412e+02
36              	3.07303800e+02
37              	3.07475181e+02
38              	3.07642738e+02
39              	3.07808123e+02
40              	3.07972871e+02
41              	3.08137673e+02
42              	3.08301616e+02
43              	3.08463822e+02
44              	3.08621505e+02
45              	3.08779422e+02
46              	3.08933808e+02
47              	3.09089297e+02
48              	3.09244539e+02
49              	3.09400500e+02
50              	3.09558490e+02
51              	3.09712879e+02
52              	3.09859856e+02
53              	3.10005195e+02
54              	3.10153642e+02
55              	3.10301446e+02
56              	3.10445695e+02
57              	3.10589995e+02
58              	3.10733099e+02
59              	3.10874536e+02
60              	3.11013654e+02
61              	3.11150332e+02
62              	3.11283299e+02
63              	3.11418460e+02
64              	3.11552804e+02
65              	3.11684849e+02
66              	3.11820384e+02
67              	3.11952379e+02
68              	3.12084471e+02
69              	3.12214540e+02
70              	3.12344091e+02
71              	3.12472111e+02
72              	3.12599542e+02
73              	3.12724725e+02
74              	3.12847665e+02
75              	3.12968629e+02
76              	3.13088566e+02
77              	3.13206346e+02
78              	3.13322365e+02
79              	3.13438529e+02
80              	3.13554823e+02
81              	3.13670763e+02
82              	3.13786975e+02
83              	3.13902603e+02
84              	3.14018521e+02
85              	3.14132452e+02
86              	3.14245488e+02
87              	3.14357131e+02
88              	3.14466801e+02
89              	3.14575302e+02
90              	3.14682544e+02
91              	3.14788487e+02
92              	3.14893606e+02
93              	3.14998706e+02
94              	3.15103327e+02
95              	3.15207353e+02
96              	3.15310412e+02
97              	3.15413609e+02
98              	3.15515719e+02
99              	3.15617860e+02
100             	3.15718910e+02
101             	3.15819647e+02
102             	3.15919900e+02
103             	3.16020004e+02
104             	3.16119348e+02
105             	3.16217143e+02
106             	3.16313980e+02
107             	3.16410137e+02
108             	3.16505186e+02
109             	3.16599428e+02
110             	3.16693161e+02
111             	3.16786221e+02
112             	3.16878238e+02
113             	3.16969126e+02
114             	3.17059950e+02
115             	3.17150092e+02
116             	3.17239136e+02
117             	3.17327758e+02
118             	3.17414889e+02
119             	3.17502001e+02
120             	3.17588614e+02
121             	3.17674360e+02
122             	3.17758954e+02
123             	3.17842469e+02
124             	3.17925819e+02
125             	3.18008617e+02
126             	3.18091475e+02
127             	3.18174539e+02
128             	3.18257933e+02
129             	3.18341081e+02
130             	3.18423106e+02
131             	3.18504520e+02
132             	3.18585218e+02
133             	3.18665111e+02
134             	3.18744000e+02
135             	3.18822167e+02
136             	3.18899518e+02
137             	3.18976750e+02
138             	3.19052789e+02
139             	3.19127916e+02
140             	3.19201767e+02
141             	3.19275269e+02
142             	3.19348354e+02
143             	3.19420610e+02
144             	3.19491511e+02
145             	3.19561183e+02
146             	3.19630194e+02
147             	3.19699378e+02
148             	3.19767885e+02
149             	3.19834383e+02
150             	3.19899686e+02
151             	3.19965620e+02
152             	3.20031524e+02
153             	3.20096950e+02
154             	3.20161928e+02
155             	3.20225895e+02
156             	3.20289977e+02
157             	3.20353722e+02
158             	3.20417072e+02
159             	3.20480220e+02
160             	3.20541362e+02
161             	3.20603354e+02
162             	3.20664727e+02
163             	3.20725203e+02
164             	3.20785105e+02
165             	3.20844236e+02
166             	3.20902714e+02
167             	3.20960750e+02
168             	3.21018523e+02
169             	3.21075501e+02
170             	3.21131938e+02
171             	3.21188513e+02
172             	3.21243908e+02
173             	3.21299790e+02
174             	3.21355335e+02
175             	3.21410616e+02
176             	3.21465496e+02
177             	3.21519796e+02
178             	3.21573423e+02
179             	3.21625926e+02
180             	3.21678082e+02
181             	3.21730044e+02
182             	3.21781311e+02
183             	3.21831644e+02
184             	3.21881943e+02
185             	3.21931073e+02
186             	3.21980229e+02
187             	3.22029038e+02
188             	3.22077513e+02
189             	3.22125847e+02
190             	3.22173922e+02
191             	3.22221810e+02
192             	3.22269139e+02
193             	3.22315896e+02
194             	3.22363189e+02
195             	3.22409835e+02
196             	3.22455872e+02
197             	3.22501153e+02
198             	3.22546491e+02
199             	3.22591416e+02
200             	3.22635875e+02
201             	3.22680192e+02
202             	3.22724525e+02
203             	3.22768758e+02
204             	3.22812628e+02
205             	3.22856189e+02
206             	3.22898710e+02
207             	3.22940978e+02
208             	3.22982223e+02
209             	3.23023023e+02
210             	3.23063779e+02
211             	3.23104071e+02
212             	3.23144069e+02
213             	3.23184173e+02
214             	3.23223784e+02
215             	3.23263066e+02
216             	3.23302829e+02
217             	3.23342050e+02
218             	3.23380693e+02
219             	3.23419569e+02
220             	3.23457783e+02
221             	3.23495596e+02
222             	3.23533468e+02
223             	3.23570872e+02
224             	3.23608176e+02
225             	3.23644733e+02
226             	3.23681119e+02
227             	3.23717236e+02
228             	3.23753142e+02
229             	3.23788944e+02
230             	3.23824530e+02
231             	3.23859865e+02
232             	3.23894485e+02
233             	3.23928022e+02
234             	3.23961588e+02
235             	3.23995437e+02
236             	3.24028863e+02
237             	3.24061847e+02
238             	3.24094990e+02
239             	3.24127563e+02
240             	3.24159811e+02
241             	3.24192377e+02
242             	3.24224510e+02
243             	3.24256099e+02
244             	3.24287675e+02
245             	3.24319075e+02
246             	3.24350093e+02
247             	3.24380871e+02
248             	3.24411528e+02
249             	3.24441792e+02
250             	3.24471731e+02
251             	3.24501442e+02
252             	3.24530997e+02
253             	3.24560355e+02
254             	3.24589448e+02
255             	3.24618797e+02
256             	3.24647894e+02
257             	3.24676827e+02
258             	3.24705596e+02
259             	3.24734045e+02
260             	3.24762092e+02
261             	3.24790129e+02
262             	3.24817953e+02
263             	3.24845508e+02
264             	3.24872795e+02
265             	3.24899914e+02
266             	3.24926732e+02
267             	3.24953234e+02
268             	3.24979589e+02
269             	3.25005741e+02
270             	3.25031601e+02
271             	3.25057149e+02
272             	3.25082660e+02
273             	3.25107933e+02
274             	3.25133050e+02
275             	3.25158137e+02
276             	3.25183013e+02
277             	3.25207742e+02
278             	3.25232298e+02
279             	3.25256681e+02
280             	3.25280867e+02
281             	3.25304862e+02
282             	3.25328594e+02
283             	3.25352170e+02
284             	3.25375486e+02
285             	3.25398873e+02
286             	3.25422276e+02
287             	3.25445354e+02
288             	3.25468246e+02
289             	3.25490911e+02
290             	3.25513374e+02
291             	3.25535662e+02
292             	3.25557893e+02
293             	3.25580149e+02
294             	3.25602164e+02
295             	3.25623950e+02
296             	3.25645555e+02
297             	3.25666949e+02
298             	3.25688185e+02
299             	3.25709261e+02
300             	3.25730173e+02
301             	3.25750913e+02
302             	3.25771533e+02
303             	3.25792005e+02
304             	3.25812250e+02
305             	3.25832340e+02
306             	3.25852441e+02
307             	3.25872439e+02
308             	3.25892195e+02
309             	3.25911807e+02
310             	3.25931275e+02
311             	3.25950580e+02
312             	3.25969750e+02
313             	3.25988866e+02
314             	3.26007840e+02
315             	3.26026609e+02
316             	3.26045194e+02
317             	3.26063630e+02
318             	3.26081918e+02
319             	3.26100066e+02
320             	3.26118071e+02
321             	3.26135951e+02
322             	3.26153617e+02
323             	3.26171124e+02
324             	3.26188576e+02
325             	3.26205922e+02
326             	3.26223143e+02
327             	3.26240227e+02
328             	3.26257160e+02
329             	3.26273979e+02
330             	3.26290800e+02
331             	3.26307657e+02
332             	3.26324255e+02
333             	3.26340695e+02
334             	3.26357004e+02
335             	3.26373195e+02
336             	3.26389287e+02
337             	3.26405273e+02
338             	3.26421062e+02
339             	3.26436648e+02
340             	3.26452195e+02
341             	3.26467551e+02
342             	3.26482818e+02
343             	3.26498006e+02
344             	3.26513086e+02
345             	3.26528050e+02
346             	3.26542916e+02
347             	3.26557739e+02
348             	3.26572555e+02
349             	3.26587184e+02
350             	3.26601649e+02
351             	3.26616061e+02
352             	3.26630508e+02
353             	3.26644774e+02
354             	3.26658883e+02
355             	3.26672846e+02
356             	3.26686676e+02
357             	3.26700293e+02
358             	3.26713917e+02
359             	3.26727391e+02
360             	3.26740830e+02
361             	3.26754202e+02
362             	3.26767466e+02
363             	3.26780615e+02
364             	3.26793661e+02
365             	3.26806640e+02
366             	3.26819648e+02
367             	3.26832508e+02
368             	3.26845317e+02
369             	3.26857997e+02
370             	3.26870529e+02
371             	3.26882980e+02
372             	3.26895337e+02
373             	3.26907565e+02
374             	3.26919650e+02
375             	3.26931628e+02
376             	3.26943510e+02
377             	3.26955323e+02
378             	3.26967034e+02
379             	3.26978669e+02
380             	3.26990240e+02
381             	3.27001752e+02
382             	3.27013222e+02
383             	3.27024614e+02
384             	3.27035926e+02
385             	3.27047177e+02
386             	3.27058345e+02
387             	3.27069407e+02
388             	3.27080392e+02
389             	3.27091267e+02
390             	3.27102058e+02
391             	3.27112766e+02
392             	3.27123364e+02
393             	3.27133871e+02
394             	3.27144295e+02
395             	3.27154638e+02
396             	3.27164911e+02
397             	3.27175182e+02
398             	3.27185354e+02
399             	3.27195452e+02
400             	3.27205473e+02
401             	3.27215431e+02
402             	3.27225316e+02
403             	3.27235129e+02
404             	3.27244865e+02
405             	3.27254512e+02
406             	3.27264097e+02
407             	3.27273578e+02
408             	3.27283001e+02
409             	3.27292372e+02
410             	3.27301685e+02
411             	3.27310932e+02
412             	3.27320111e+02
413             	3.27329223e+02
414             	3.27338282e+02
415             	3.27347275e+02
416             	3.27356221e+02
417             	3.27365134e+02
418             	3.27373971e+02
419             	3.27382730e+02
420             	3.27391414e+02
421             	3.27400037e+02
422             	3.27408578e+02
423             	3.27416965e+02
424             	3.27425337e+02
425             	3.27433679e+02
426             	3.27441967e+02
427             	3.27450197e+02
428             	3.27458340e+02
429             	3.27466424e+02
430             	3.27474455e+02
431             	3.27482440e+02
432             	3.27490480e+02
433             	3.27498461e+02
434             	3.27506374e+02
435             	3.27514211e+02
436             	3.27521971e+02
437             	3.27529680e+02
438             	3.27537330e+02
439             	3.27544926e+02
440             	3.27552461e+02
441             	3.27559916e+02
442             	3.27567285e+02
443             	3.27574636e+02
444             	3.27581938e+02
445             	3.27589194e+02
446             	3.27596396e+02
447             	3.27603542e+02
448             	3.27610629e+02
449             	3.27617666e+02
450             	3.27624701e+02
451             	3.27631796e+02
452             	3.27638778e+02
453             	3.27645676e+02
454             	3.27652515e+02
455             	3.27659287e+02
456             	3.27665985e+02
457             	3.27672601e+02
458             	3.27679112e+02
459             	3.27685539e+02
460             	3.27691958e+02
461             	3.27698350e+02
462             	3.27704726e+02
463             	3.27711029e+02
464             	3.27717288e+02
465             	3.27723571e+02
466             	3.27729825e+02
467             	3.27736049e+02
468             	3.27742186e+02
469             	3.27748273e+02
470             	3.27754341e+02
471             	3.27760369e+02
472             	3.27766334e+02
473             	3.27772243e+02
474             	3.27778092e+02
475             	3.27783810e+02
476             	3.27789427e+02
477             	3.27795059e+02
478             	3.27800665e+02
479             	3.27806254e+02
480             	3.27811832e+02
481             	3.27817398e+02
482             	3.27822919e+02
483             	3.27828435e+02
484             	3.27833955e+02
485             	3.27839434e+02
486             	3.27844893e+02
487             	3.27850280e+02
488             	3.27855641e+02
489             	3.27860932e+02
490             	3.27866157e+02
491             	3.27871322e+02
492             	3.27876427e+02
493             	3.27881469e+02
494             	3.27886496e+02
495             	3.27891470e+02
496             	3.27896421e+02
497             	3.27901362e+02
498             	3.27906258e+02
499             	3.27911131e+02
500             	3.27915977e+02
501             	3.27920786e+02
502             	3.27925551e+02
503             	3.27930277e+02
504             	3.27934964e+02
505             	3.27939668e+02
506             	3.27944385e+02
507             	3.27949031e+02
508             	3.27953615e+02
509             	3.27958151e+02
510             	3.27962625e+02
511             	3.27967075e+02
512             	3.27971489e+02
513             	3.27975877e+02
514             	3.27980212e+02
515             	3.27984534e+02
516             	3.27988819e+02
517             	3.27993075e+02
518             	3.27997309e+02
519             	3.28001508e+02
520             	3.28005682e+02
521             	3.28009841e+02
522             	3.28013963e+02
523             	3.28018037e+02
524             	3.28022089e+02
525             	3.28026109e+02
526             	3.28030088e+02
527             	3.28034033e+02
528             	3.28037950e+02
529             	3.28041862e+02
530             	3.28045769e+02
531             	3.28049626e+02
532             	3.28053443e+02
533             	3.28057233e+02
534             	3.28060983e+02
535             	3.28064708e+02
536             	3.28068412e+02
537             	3.28072082e+02
538             	3.28075713e+02
539             	3.28079315e+02
540             	3.28082899e+02
541             	3.28086474e+02
542             	3.28090025e+02
543             	3.28093548e+02
544             	3.28097044e+02
545             	3.28100513e+02
546             	3.28103948e+02
547             	3.28107375e+02
548             	3.28110754e+02
549             	3.28114106e+02
550             	3.28117437e+02
551             	3.28120750e+02
552             	3.28124032e+02
553             	3.28127291e+02
554             	3.28130515e+02
555             	3.28133712e+02
556             	3.28136881e+02
557             	3.28140019e+02
558             	3.28143138e+02
559             	3.28146230e+02
560             	3.28149306e+02
561             	3.28152370e+02
562             	3.28155415e+02
563             	3.28158452e+02
564             	3.28161470e+02
565             	3.28164471e+02
566             	3.28167445e+02
567             	3.28170397e+02
568             	3.28173322e+02
569             	3.28176225e+02
570             	3.28179098e+02
571             	3.28181955e+02
572             	3.28184791e+02
573             	3.28187603e+02
574             	3.28190398e+02
575             	3.28193180e+02
576             	3.28195932e+02
577             	3.28198667e+02
578             	3.28201372e+02
579             	3.28204059e+02
580             	3.28206732e+02
581             	3.28209377e+02
582             	3.28212001e+02
583             	3.28214611e+02
584             	3.28217197e+02
585             	3.28219766e+02
586             	3.28222315e+02
587             	3.28224847e+02
588             	3.28227359e+02
589             	3.28229855e+02
590             	3.28232333e+02
591             	3.28234794e+02
592             	3.28237235e+02
593             	3.28239658e+02
594             	3.28242062e+02
595             	3.28244448e+02
596             	3.28246817e+02
597             	3.28249171e+02
598             	3.28251510e+02
599             	3.28253835e+02
600             	3.28256145e+02
601             	3.28258441e+02
602             	3.28260722e+02
603             	3.28262987e+02
604             	3.28265235e+02
605             	3.28267468e+02
606             	3.28269682e+02
607             	3.28271881e+02
608             	3.28274060e+02
609             	3.28276224e+02
610             	3.28278369e+02
611             	3.28280499e+02
612             	3.28282612e+02
613             	3.28284710e+02
614             	3.28286792e+02
615             	3.28288859e+02
616             	3.28290909e+02
617             	3.28292944e+02
618             	3.28294960e+02
619             	3.28296962e+02
620             	3.28298946e+02
621             	3.28300915e+02
