# Region        : cellZone component_4
# Cells         : 64
# Volume        : 1.19308338e-01
# Time          	volAverage(T)
1               	3.06151521e+02
2               	3.12102386e+02
3               	3.16192841e+02
4               	3.19244388e+02
5               	3.22410846e+02
6               	3.25825306e+02
7               	3.29161773e+02
8               	3.32238028e+02
9               	3.35132193e+02
10              	3.37957426e+02
11              	3.40678592e+02
12              	3.43303227e+02
13              	3.45862849e+02
14              	3.48433931e+02
15              	3.50986295e+02
16              	3.53518309e+02
17              	3.55967418e+02
18              	3.58273397e+02
19              	3.60432893e+02
20              	3.62466045e+02
21              	3.64229883e+02
22              	3.65706977e+02
23              	3.67033975e+02
24              	3.68276783e+02
25              	3.69426850e+02
26              	3.70631849e+02
27              	3.71845060e+02
28              	3.73048658e+02
29              	3.74397443e+02
30              	3.75827707e+02
31              	3.77435524e+02
32              	3.79057640e+02
33              	3.80596152e+02
34              	3.81964065e+02
35              	3.83174485e+02
36              	3.84276380e+02
37              	3.85291484e+02
38              	3.86092801e+02
39              	3.86816284e+02
40              	3.87352578e+02
41              	3.87786791e+02
42              	3.88184793e+02
43              	3.88637183e+02
44              	3.89189350e+02
45              	3.89841794e+02
46              	3.90585958e+02
47              	3.91405265e+02
48              	3.92205136e+02
49              	3.92955092e+02
50              	3.93565831e+02
51              	3.94050593e+02
52              	3.94419186e+02
53              	3.94720839e+02
54              	3.94954702e+02
55              	3.95175621e+02
56              	3.95454686e+02
57              	3.95833402e+02
58              	3.96237798e+02
59              	3.96672852e+02
60              	3.97062354e+02
61              	3.97490138e+02
62              	3.97812323e+02
63              	3.97966754e+02
64              	3.98031847e+02
65              	3.98003162e+02
66              	3.98009793e+02
67              	3.98037258e+02
68              	3.98101843e+02
69              	3.98201515e+02
70              	3.98390177e+02
71              	3.98665989e+02
72              	3.98973188e+02
73              	3.99161038e+02
74              	3.99180807e+02
75              	3.99074162e+02
76              	3.98950189e+02
77              	3.98842307e+02
78              	3.98788932e+02
79              	3.98792553e+02
80              	3.98819543e+02
81              	3.98828639e+02
82              	3.98805440e+02
83              	3.98884096e+02
84              	3.98991584e+02
85              	3.99211601e+02
86              	3.99397898e+02
87              	3.99504116e+02
88              	3.99557410e+02
89              	3.99566997e+02
90              	3.99541999e+02
91              	3.99532737e+02
92              	3.99574825e+02
93              	3.99610964e+02
94              	3.99609946e+02
95              	3.99590225e+02
96              	3.99630463e+02
97              	3.99779126e+02
98              	4.00058353e+02
99              	4.00372096e+02
100             	4.00610421e+02
101             	4.00804073e+02
102             	4.00908954e+02
103             	4.00992666e+02
104             	4.01067217e+02
105             	4.01243563e+02
106             	4.01380644e+02
107             	4.01478220e+02
108             	4.01476026e+02
109             	4.01443757e+02
110             	4.01438480e+02
111             	4.01523419e+02
112             	4.01637477e+02
113             	4.01787837e+02
114             	4.01924685e+02
115             	4.02012094e+02
116             	4.02114062e+02
117             	4.02193277e+02
118             	4.02282062e+02
119             	4.02373425e+02
120             	4.02437982e+02
121             	4.02506584e+02
122             	4.02561686e+02
123             	4.02662055e+02
124             	4.02747004e+02
125             	4.02876143e+02
126             	4.03036927e+02
127             	4.03215005e+02
128             	4.03386718e+02
129             	4.03560433e+02
130             	4.03716564e+02
131             	4.03884431e+02
132             	4.04067273e+02
133             	4.04269104e+02
134             	4.04478818e+02
135             	4.04670186e+02
136             	4.04848292e+02
137             	4.05011601e+02
138             	4.05151243e+02
139             	4.05253135e+02
140             	4.05324618e+02
141             	4.05372335e+02
142             	4.05417368e+02
143             	4.05464734e+02
144             	4.05525089e+02
145             	4.05600853e+02
146             	4.05660326e+02
147             	4.05708256e+02
148             	4.05741160e+02
149             	4.05768134e+02
150             	4.05792362e+02
151             	4.05816658e+02
152             	4.05835793e+02
153             	4.05855233e+02
154             	4.05879004e+02
155             	4.05906118e+02
156             	4.05934616e+02
157             	4.05968431e+02
158             	4.06010589e+02
159             	4.06058941e+02
160             	4.06111548e+02
161             	4.06150003e+02
162             	4.06191762e+02
163             	4.06235299e+02
164             	4.06276666e+02
165             	4.06304358e+02
166             	4.06324224e+02
167             	4.06324602e+02
168             	4.06308411e+02
169             	4.06280138e+02
170             	4.06241822e+02
171             	4.06195755e+02
172             	4.06143903e+02
173             	4.06092259e+02
174             	4.06039259e+02
175             	4.05986115e+02
176             	4.05945304e+02
177             	4.05907993e+02
178             	4.05861959e+02
179             	4.05823017e+02
180             	4.05793434e+02
181             	4.05738112e+02
182             	4.05687898e+02
183             	4.05633903e+02
184             	4.05578079e+02
185             	4.05526882e+02
186             	4.05484811e+02
187             	4.05450972e+02
188             	4.05426637e+02
189             	4.05406630e+02
190             	4.05398769e+02
191             	4.05384961e+02
192             	4.05349390e+02
193             	4.05301011e+02
194             	4.05248837e+02
195             	4.05191752e+02
196             	4.05133225e+02
197             	4.05074208e+02
198             	4.05019574e+02
199             	4.04972455e+02
200             	4.04934950e+02
201             	4.04905057e+02
202             	4.04879853e+02
203             	4.04858865e+02
204             	4.04817232e+02
205             	4.04766758e+02
206             	4.04714770e+02
207             	4.04664917e+02
208             	4.04610609e+02
209             	4.04556753e+02
210             	4.04507910e+02
211             	4.04466412e+02
212             	4.04433262e+02
213             	4.04412285e+02
214             	4.04395604e+02
215             	4.04376679e+02
216             	4.04346922e+02
217             	4.04309002e+02
218             	4.04278239e+02
219             	4.04250518e+02
220             	4.04212664e+02
221             	4.04172914e+02
222             	4.04129504e+02
223             	4.04086927e+02
224             	4.04039904e+02
225             	4.03996154e+02
226             	4.03954967e+02
227             	4.03913937e+02
228             	4.03874831e+02
229             	4.03838745e+02
230             	4.03805497e+02
231             	4.03774731e+02
232             	4.03746440e+02
233             	4.03720868e+02
234             	4.03697073e+02
235             	4.03671989e+02
236             	4.03643624e+02
237             	4.03612918e+02
238             	4.03580437e+02
239             	4.03544769e+02
240             	4.03509806e+02
241             	4.03474941e+02
242             	4.03443347e+02
243             	4.03419397e+02
244             	4.03402323e+02
245             	4.03387650e+02
246             	4.03369617e+02
247             	4.03345987e+02
248             	4.03310317e+02
249             	4.03273328e+02
250             	4.03234910e+02
251             	4.03196460e+02
252             	4.03159569e+02
253             	4.03126221e+02
254             	4.03096339e+02
255             	4.03071658e+02
256             	4.03053642e+02
257             	4.03044522e+02
258             	4.03034330e+02
259             	4.03021716e+02
260             	4.03006083e+02
261             	4.02987567e+02
262             	4.02966989e+02
263             	4.02945631e+02
264             	4.02924665e+02
265             	4.02904871e+02
266             	4.02883593e+02
267             	4.02861277e+02
268             	4.02840530e+02
269             	4.02821446e+02
270             	4.02803859e+02
271             	4.02787620e+02
272             	4.02772809e+02
273             	4.02758189e+02
274             	4.02743462e+02
275             	4.02728090e+02
276             	4.02711014e+02
277             	4.02693805e+02
278             	4.02676586e+02
279             	4.02659631e+02
280             	4.02643351e+02
281             	4.02629929e+02
282             	4.02617428e+02
283             	4.02606082e+02
284             	4.02597740e+02
285             	4.02588262e+02
286             	4.02577535e+02
287             	4.02566277e+02
288             	4.02554036e+02
289             	4.02540397e+02
290             	4.02524042e+02
291             	4.02508228e+02
292             	4.02493157e+02
293             	4.02479305e+02
294             	4.02466446e+02
295             	4.02454837e+02
296             	4.02444662e+02
297             	4.02435382e+02
298             	4.02426363e+02
299             	4.02418818e+02
300             	4.02412827e+02
301             	4.02407778e+02
302             	4.02402520e+02
303             	4.02396758e+02
304             	4.02391099e+02
305             	4.02385590e+02
306             	4.02379144e+02
307             	4.02373115e+02
308             	4.02367619e+02
309             	4.02362237e+02
310             	4.02356624e+02
311             	4.02347658e+02
312             	4.02338889e+02
313             	4.02330170e+02
314             	4.02321837e+02
315             	4.02314000e+02
316             	4.02306963e+02
317             	4.02301405e+02
318             	4.02297447e+02
319             	4.02296269e+02
320             	4.02294586e+02
321             	4.02292028e+02
322             	4.02288883e+02
323             	4.02284222e+02
324             	4.02278980e+02
325             	4.02274084e+02
326             	4.02269886e+02
327             	4.02266870e+02
328             	4.02265449e+02
329             	4.02264689e+02
330             	4.02264154e+02
331             	4.02263939e+02
332             	4.02263134e+02
333             	4.02260550e+02
334             	4.02257418e+02
335             	4.02253043e+02
336             	4.02247942e+02
337             	4.02242764e+02
338             	4.02238435e+02
339             	4.02235264e+02
340             	4.02233645e+02
341             	4.02233306e+02
342             	4.02235133e+02
343             	4.02236795e+02
344             	4.02237635e+02
345             	4.02237324e+02
346             	4.02235573e+02
347             	4.02232282e+02
348             	4.02227925e+02
349             	4.02223508e+02
350             	4.02219480e+02
351             	4.02216270e+02
352             	4.02214000e+02
353             	4.02212855e+02
354             	4.02212291e+02
355             	4.02212356e+02
356             	4.02212331e+02
357             	4.02212079e+02
358             	4.02211323e+02
359             	4.02210083e+02
360             	4.02208496e+02
361             	4.02206870e+02
362             	4.02205442e+02
363             	4.02204105e+02
364             	4.02203392e+02
365             	4.02203364e+02
366             	4.02203839e+02
367             	4.02204484e+02
368             	4.02204932e+02
369             	4.02205053e+02
370             	4.02204731e+02
371             	4.02203928e+02
372             	4.02202620e+02
373             	4.02201000e+02
374             	4.02199339e+02
375             	4.02197752e+02
376             	4.02196245e+02
377             	4.02194786e+02
378             	4.02193434e+02
379             	4.02192140e+02
380             	4.02191324e+02
381             	4.02190655e+02
382             	4.02190723e+02
383             	4.02190672e+02
384             	4.02190515e+02
385             	4.02190443e+02
386             	4.02190390e+02
387             	4.02190319e+02
388             	4.02189876e+02
389             	4.02189403e+02
390             	4.02188234e+02
391             	4.02187221e+02
392             	4.02186382e+02
393             	4.02185667e+02
394             	4.02185116e+02
395             	4.02184821e+02
396             	4.02184803e+02
397             	4.02184790e+02
398             	4.02185130e+02
399             	4.02185725e+02
400             	4.02186121e+02
401             	4.02186227e+02
402             	4.02185928e+02
403             	4.02185227e+02
404             	4.02184185e+02
405             	4.02182681e+02
406             	4.02181275e+02
407             	4.02179911e+02
408             	4.02178877e+02
409             	4.02178029e+02
410             	4.02177137e+02
411             	4.02176271e+02
412             	4.02175502e+02
413             	4.02174904e+02
414             	4.02174396e+02
415             	4.02173916e+02
416             	4.02173338e+02
417             	4.02172512e+02
418             	4.02171354e+02
419             	4.02170369e+02
420             	4.02169609e+02
421             	4.02169034e+02
422             	4.02168765e+02
423             	4.02169004e+02
424             	4.02169289e+02
425             	4.02169550e+02
426             	4.02169704e+02
427             	4.02169970e+02
428             	4.02170207e+02
429             	4.02170205e+02
430             	4.02169987e+02
431             	4.02169736e+02
432             	4.02169375e+02
433             	4.02168607e+02
434             	4.02167651e+02
435             	4.02166627e+02
436             	4.02165704e+02
437             	4.02164888e+02
438             	4.02164140e+02
439             	4.02163480e+02
440             	4.02163076e+02
441             	4.02162711e+02
442             	4.02162430e+02
443             	4.02162076e+02
444             	4.02161631e+02
445             	4.02161019e+02
446             	4.02160103e+02
447             	4.02159344e+02
448             	4.02158529e+02
449             	4.02157681e+02
450             	4.02157268e+02
451             	4.02156899e+02
452             	4.02156554e+02
453             	4.02156352e+02
454             	4.02156172e+02
455             	4.02156003e+02
456             	4.02155783e+02
457             	4.02155481e+02
458             	4.02155093e+02
459             	4.02154639e+02
460             	4.02154192e+02
461             	4.02153743e+02
462             	4.02153320e+02
463             	4.02152993e+02
464             	4.02152783e+02
465             	4.02152629e+02
466             	4.02152205e+02
467             	4.02151841e+02
468             	4.02151573e+02
469             	4.02151279e+02
470             	4.02150758e+02
471             	4.02149976e+02
472             	4.02149126e+02
473             	4.02148199e+02
474             	4.02147116e+02
475             	4.02146322e+02
476             	4.02145550e+02
477             	4.02144918e+02
478             	4.02145272e+02
479             	4.02145664e+02
480             	4.02145917e+02
481             	4.02146030e+02
482             	4.02145874e+02
483             	4.02145632e+02
484             	4.02144533e+02
485             	4.02143420e+02
486             	4.02142329e+02
487             	4.02141356e+02
488             	4.02140555e+02
489             	4.02139730e+02
490             	4.02139075e+02
491             	4.02138637e+02
492             	4.02138375e+02
493             	4.02138251e+02
494             	4.02138057e+02
495             	4.02137857e+02
496             	4.02137506e+02
497             	4.02136882e+02
498             	4.02136227e+02
499             	4.02135788e+02
500             	4.02136266e+02
501             	4.02136600e+02
502             	4.02136742e+02
503             	4.02136705e+02
504             	4.02136497e+02
505             	4.02136180e+02
506             	4.02135741e+02
507             	4.02134840e+02
508             	4.02133366e+02
509             	4.02132050e+02
510             	4.02130986e+02
511             	4.02130115e+02
512             	4.02129572e+02
513             	4.02129182e+02
514             	4.02128859e+02
515             	4.02128602e+02
516             	4.02128410e+02
517             	4.02128163e+02
518             	4.02128306e+02
519             	4.02128484e+02
520             	4.02128627e+02
521             	4.02128578e+02
522             	4.02128247e+02
523             	4.02127444e+02
524             	4.02126563e+02
525             	4.02125498e+02
526             	4.02124434e+02
527             	4.02123553e+02
528             	4.02123936e+02
529             	4.02124288e+02
530             	4.02124523e+02
531             	4.02124700e+02
532             	4.02124507e+02
533             	4.02124193e+02
534             	4.02123281e+02
535             	4.02122424e+02
536             	4.02121708e+02
537             	4.02120972e+02
538             	4.02120212e+02
539             	4.02119713e+02
540             	4.02119506e+02
541             	4.02119604e+02
542             	4.02119763e+02
543             	4.02119888e+02
544             	4.02119890e+02
545             	4.02119714e+02
546             	4.02119168e+02
547             	4.02118462e+02
548             	4.02117438e+02
549             	4.02116277e+02
550             	4.02116291e+02
551             	4.02116337e+02
552             	4.02116445e+02
553             	4.02116678e+02
554             	4.02116467e+02
555             	4.02116175e+02
556             	4.02115050e+02
557             	4.02113896e+02
558             	4.02112818e+02
559             	4.02111821e+02
560             	4.02110960e+02
561             	4.02110274e+02
562             	4.02109850e+02
563             	4.02109532e+02
564             	4.02109374e+02
565             	4.02109314e+02
566             	4.02109338e+02
567             	4.02109317e+02
568             	4.02109247e+02
569             	4.02109048e+02
570             	4.02108828e+02
571             	4.02108573e+02
572             	4.02108279e+02
573             	4.02107834e+02
574             	4.02107624e+02
575             	4.02107419e+02
576             	4.02107261e+02
577             	4.02107140e+02
578             	4.02107160e+02
579             	4.02107225e+02
580             	4.02107159e+02
581             	4.02106995e+02
582             	4.02106860e+02
583             	4.02106664e+02
584             	4.02106399e+02
585             	4.02105864e+02
586             	4.02105279e+02
587             	4.02104809e+02
588             	4.02104442e+02
589             	4.02104097e+02
590             	4.02103891e+02
591             	4.02103830e+02
592             	4.02103884e+02
593             	4.02104003e+02
594             	4.02104141e+02
595             	4.02104178e+02
596             	4.02104058e+02
597             	4.02103872e+02
598             	4.02103566e+02
599             	4.02103281e+02
600             	4.02102926e+02
601             	4.02102419e+02
602             	4.02101883e+02
603             	4.02101324e+02
604             	4.02100854e+02
605             	4.02100393e+02
606             	4.02100022e+02
607             	4.02099662e+02
608             	4.02099363e+02
609             	4.02099200e+02
610             	4.02099112e+02
611             	4.02098967e+02
612             	4.02098735e+02
613             	4.02098480e+02
614             	4.02098178e+02
615             	4.02097869e+02
616             	4.02097650e+02
617             	4.02097512e+02
618             	4.02097481e+02
619             	4.02097545e+02
620             	4.02097717e+02
621             	4.02097919e+02
