# Region        : cellZone fluid
# Cells         : 8443
# Volume        : 1.66971442e+01
# Time          	volAverage(T)
1               	2.99999673e+02
2               	2.99999629e+02
3               	2.99999868e+02
4               	3.00000257e+02
5               	3.00000553e+02
6               	3.00000846e+02
7               	3.00001192e+02
8               	3.00001578e+02
9               	3.00002282e+02
10              	3.00002788e+02
11              	3.00003361e+02
12              	3.00004101e+02
13              	3.00004944e+02
14              	3.00005808e+02
15              	3.00006526e+02
16              	3.00007692e+02
17              	3.00008595e+02
18              	3.00009474e+02
19              	3.00010277e+02
20              	3.00011247e+02
21              	3.00012005e+02
22              	3.00012708e+02
23              	3.00013361e+02
24              	3.00014197e+02
25              	3.00015049e+02
26              	3.00016186e+02
27              	3.00017181e+02
28              	3.00018055e+02
29              	3.00018727e+02
30              	3.00019555e+02
31              	3.00020859e+02
32              	3.00022113e+02
33              	3.00023428e+02
34              	3.00024470e+02
35              	3.00025308e+02
36              	3.00027152e+02
37              	3.00029022e+02
38              	3.00030060e+02
39              	3.00030686e+02
40              	3.00031535e+02
41              	3.00032737e+02
42              	3.00033736e+02
43              	3.00034071e+02
44              	3.00034645e+02
45              	3.00035854e+02
46              	3.00038199e+02
47              	3.00039606e+02
48              	3.00039989e+02
49              	3.00040421e+02
50              	3.00041968e+02
51              	3.00043644e+02
52              	3.00044600e+02
53              	3.00045212e+02
54              	3.00046124e+02
55              	3.00047731e+02
56              	3.00049136e+02
57              	3.00050253e+02
58              	3.00050899e+02
59              	3.00051919e+02
60              	3.00053427e+02
61              	3.00054387e+02
62              	3.00054750e+02
63              	3.00055869e+02
64              	3.00057217e+02
65              	3.00058422e+02
66              	3.00059051e+02
67              	3.00059862e+02
68              	3.00061413e+02
69              	3.00062788e+02
70              	3.00063685e+02
71              	3.00064116e+02
72              	3.00065027e+02
73              	3.00066276e+02
74              	3.00067295e+02
75              	3.00068363e+02
76              	3.00069303e+02
77              	3.00070727e+02
78              	3.00072401e+02
79              	3.00073589e+02
80              	3.00073993e+02
81              	3.00074721e+02
82              	3.00075875e+02
83              	3.00076440e+02
84              	3.00076615e+02
85              	3.00077009e+02
86              	3.00077983e+02
87              	3.00079341e+02
88              	3.00079773e+02
89              	3.00079654e+02
90              	3.00079777e+02
91              	3.00080874e+02
92              	3.00081879e+02
93              	3.00082047e+02
94              	3.00081982e+02
95              	3.00083221e+02
96              	3.00084510e+02
97              	3.00085538e+02
98              	3.00085849e+02
99              	3.00086558e+02
100             	3.00087643e+02
101             	3.00088861e+02
102             	3.00089392e+02
103             	3.00089798e+02
104             	3.00090837e+02
105             	3.00092521e+02
106             	3.00093453e+02
107             	3.00093972e+02
108             	3.00094280e+02
109             	3.00095442e+02
110             	3.00096802e+02
111             	3.00097178e+02
112             	3.00097293e+02
113             	3.00097820e+02
114             	3.00098800e+02
115             	3.00099313e+02
116             	3.00099602e+02
117             	3.00099890e+02
118             	3.00100795e+02
119             	3.00101684e+02
120             	3.00101977e+02
121             	3.00102124e+02
122             	3.00102418e+02
123             	3.00103387e+02
124             	3.00104016e+02
125             	3.00104108e+02
126             	3.00104310e+02
127             	3.00105466e+02
128             	3.00106751e+02
129             	3.00107275e+02
130             	3.00107141e+02
131             	3.00107525e+02
132             	3.00108641e+02
133             	3.00109248e+02
134             	3.00109286e+02
135             	3.00109365e+02
136             	3.00110069e+02
137             	3.00110881e+02
138             	3.00111298e+02
139             	3.00111035e+02
140             	3.00111251e+02
141             	3.00111955e+02
142             	3.00112589e+02
143             	3.00112657e+02
144             	3.00112535e+02
145             	3.00113033e+02
146             	3.00113936e+02
147             	3.00114258e+02
148             	3.00113824e+02
149             	3.00114019e+02
150             	3.00114821e+02
151             	3.00115669e+02
152             	3.00115755e+02
153             	3.00115602e+02
154             	3.00115985e+02
155             	3.00116889e+02
156             	3.00117001e+02
157             	3.00116566e+02
158             	3.00116201e+02
159             	3.00116566e+02
160             	3.00117199e+02
161             	3.00117082e+02
162             	3.00116882e+02
163             	3.00117522e+02
164             	3.00118278e+02
165             	3.00119105e+02
166             	3.00118781e+02
167             	3.00118614e+02
168             	3.00119093e+02
169             	3.00119779e+02
170             	3.00119905e+02
171             	3.00119480e+02
172             	3.00119872e+02
173             	3.00120568e+02
174             	3.00121097e+02
175             	3.00120865e+02
176             	3.00120461e+02
177             	3.00120646e+02
178             	3.00121242e+02
179             	3.00121856e+02
180             	3.00121547e+02
181             	3.00121179e+02
182             	3.00121666e+02
183             	3.00122469e+02
184             	3.00122477e+02
185             	3.00122072e+02
186             	3.00122235e+02
187             	3.00122850e+02
188             	3.00122911e+02
189             	3.00122586e+02
190             	3.00122660e+02
191             	3.00123263e+02
192             	3.00123945e+02
193             	3.00123911e+02
194             	3.00123602e+02
195             	3.00124084e+02
196             	3.00124792e+02
197             	3.00124771e+02
198             	3.00124357e+02
199             	3.00123983e+02
200             	3.00124282e+02
201             	3.00124912e+02
202             	3.00125018e+02
203             	3.00124887e+02
204             	3.00125015e+02
205             	3.00125499e+02
206             	3.00125685e+02
207             	3.00125244e+02
208             	3.00125084e+02
209             	3.00125384e+02
210             	3.00125988e+02
211             	3.00126139e+02
212             	3.00125831e+02
213             	3.00125703e+02
214             	3.00126454e+02
215             	3.00126886e+02
216             	3.00126772e+02
217             	3.00126492e+02
218             	3.00126698e+02
219             	3.00127295e+02
220             	3.00127493e+02
221             	3.00127000e+02
222             	3.00127058e+02
223             	3.00127498e+02
224             	3.00128184e+02
225             	3.00128231e+02
226             	3.00127838e+02
227             	3.00127881e+02
228             	3.00128809e+02
229             	3.00128913e+02
230             	3.00128601e+02
231             	3.00128202e+02
232             	3.00128412e+02
233             	3.00128911e+02
234             	3.00128890e+02
235             	3.00128303e+02
236             	3.00128380e+02
237             	3.00128626e+02
238             	3.00129090e+02
239             	3.00128906e+02
240             	3.00128401e+02
241             	3.00128466e+02
242             	3.00129081e+02
243             	3.00129141e+02
244             	3.00128988e+02
245             	3.00128535e+02
246             	3.00128637e+02
247             	3.00129072e+02
248             	3.00128877e+02
249             	3.00128407e+02
250             	3.00128372e+02
251             	3.00128814e+02
252             	3.00129030e+02
253             	3.00128704e+02
254             	3.00128251e+02
255             	3.00128366e+02
256             	3.00129216e+02
257             	3.00129363e+02
258             	3.00129017e+02
259             	3.00128856e+02
260             	3.00129199e+02
261             	3.00129619e+02
262             	3.00129339e+02
263             	3.00128937e+02
264             	3.00129233e+02
265             	3.00129748e+02
266             	3.00130120e+02
267             	3.00129666e+02
268             	3.00129442e+02
269             	3.00129787e+02
270             	3.00130293e+02
271             	3.00130187e+02
272             	3.00129563e+02
273             	3.00129687e+02
274             	3.00130250e+02
275             	3.00130560e+02
276             	3.00130305e+02
277             	3.00129851e+02
278             	3.00130099e+02
279             	3.00130909e+02
280             	3.00130814e+02
281             	3.00130353e+02
282             	3.00130146e+02
283             	3.00130616e+02
284             	3.00130948e+02
285             	3.00130726e+02
286             	3.00130303e+02
287             	3.00130396e+02
288             	3.00130936e+02
289             	3.00130975e+02
290             	3.00130794e+02
291             	3.00130543e+02
292             	3.00130887e+02
293             	3.00131438e+02
294             	3.00131308e+02
295             	3.00130850e+02
296             	3.00130754e+02
297             	3.00131144e+02
298             	3.00131341e+02
299             	3.00131007e+02
300             	3.00130587e+02
301             	3.00130788e+02
302             	3.00131387e+02
303             	3.00131456e+02
304             	3.00131023e+02
305             	3.00130770e+02
306             	3.00131131e+02
307             	3.00131583e+02
308             	3.00131407e+02
309             	3.00130992e+02
310             	3.00131089e+02
311             	3.00131585e+02
312             	3.00131682e+02
313             	3.00131277e+02
314             	3.00130912e+02
315             	3.00131193e+02
316             	3.00131740e+02
317             	3.00131624e+02
318             	3.00131217e+02
319             	3.00131171e+02
320             	3.00131685e+02
321             	3.00131944e+02
322             	3.00131677e+02
323             	3.00131300e+02
324             	3.00131545e+02
325             	3.00132120e+02
326             	3.00132179e+02
327             	3.00131773e+02
328             	3.00131565e+02
329             	3.00131963e+02
330             	3.00132429e+02
331             	3.00132259e+02
332             	3.00131833e+02
333             	3.00131907e+02
334             	3.00132407e+02
335             	3.00132488e+02
336             	3.00132057e+02
337             	3.00131692e+02
338             	3.00131954e+02
339             	3.00132459e+02
340             	3.00132344e+02
341             	3.00131892e+02
342             	3.00131813e+02
343             	3.00132233e+02
344             	3.00132419e+02
345             	3.00132134e+02
346             	3.00131647e+02
347             	3.00131804e+02
348             	3.00132357e+02
349             	3.00132374e+02
350             	3.00131917e+02
351             	3.00131667e+02
352             	3.00132018e+02
353             	3.00132438e+02
354             	3.00132239e+02
355             	3.00131828e+02
356             	3.00131909e+02
357             	3.00132424e+02
358             	3.00132541e+02
359             	3.00132156e+02
360             	3.00131810e+02
361             	3.00132073e+02
362             	3.00132588e+02
363             	3.00132518e+02
364             	3.00132104e+02
365             	3.00132063e+02
366             	3.00132513e+02
367             	3.00132763e+02
368             	3.00132492e+02
369             	3.00132102e+02
370             	3.00132309e+02
371             	3.00132888e+02
372             	3.00132910e+02
373             	3.00132480e+02
374             	3.00132226e+02
375             	3.00132585e+02
376             	3.00133031e+02
377             	3.00132848e+02
378             	3.00132421e+02
379             	3.00132500e+02
380             	3.00133027e+02
381             	3.00133167e+02
382             	3.00132800e+02
383             	3.00132428e+02
384             	3.00132700e+02
385             	3.00133232e+02
386             	3.00133146e+02
387             	3.00132709e+02
388             	3.00132649e+02
389             	3.00133084e+02
390             	3.00133306e+02
391             	3.00132988e+02
392             	3.00132548e+02
393             	3.00132720e+02
394             	3.00133258e+02
395             	3.00133294e+02
396             	3.00132854e+02
397             	3.00132590e+02
398             	3.00132927e+02
399             	3.00133352e+02
400             	3.00133154e+02
401             	3.00132701e+02
402             	3.00132741e+02
403             	3.00133222e+02
404             	3.00133318e+02
405             	3.00132920e+02
406             	3.00132548e+02
407             	3.00132808e+02
408             	3.00133327e+02
409             	3.00133233e+02
410             	3.00132797e+02
411             	3.00132730e+02
412             	3.00133162e+02
413             	3.00133383e+02
414             	3.00133064e+02
415             	3.00132634e+02
416             	3.00132823e+02
417             	3.00133379e+02
418             	3.00133413e+02
419             	3.00132988e+02
420             	3.00132733e+02
421             	3.00133077e+02
422             	3.00133513e+02
423             	3.00133327e+02
424             	3.00132890e+02
425             	3.00132946e+02
426             	3.00133446e+02
427             	3.00133570e+02
428             	3.00133190e+02
429             	3.00132832e+02
430             	3.00133097e+02
431             	3.00133613e+02
432             	3.00133517e+02
433             	3.00133075e+02
434             	3.00132999e+02
435             	3.00133420e+02
436             	3.00133639e+02
437             	3.00133331e+02
438             	3.00132902e+02
439             	3.00133072e+02
440             	3.00133627e+02
441             	3.00133660e+02
442             	3.00133222e+02
443             	3.00132948e+02
444             	3.00133282e+02
445             	3.00133714e+02
446             	3.00133508e+02
447             	3.00133054e+02
448             	3.00133100e+02
449             	3.00133597e+02
450             	3.00133711e+02
451             	3.00133323e+02
452             	3.00132961e+02
453             	3.00133220e+02
454             	3.00133730e+02
455             	3.00133628e+02
456             	3.00133178e+02
457             	3.00133101e+02
458             	3.00133523e+02
459             	3.00133730e+02
460             	3.00133417e+02
461             	3.00132982e+02
462             	3.00133146e+02
463             	3.00133695e+02
464             	3.00133720e+02
465             	3.00133277e+02
466             	3.00133005e+02
467             	3.00133337e+02
468             	3.00133753e+02
469             	3.00133548e+02
470             	3.00133093e+02
471             	3.00133137e+02
472             	3.00133626e+02
473             	3.00133736e+02
474             	3.00133347e+02
475             	3.00132973e+02
476             	3.00133231e+02
477             	3.00133749e+02
478             	3.00133650e+02
479             	3.00133205e+02
480             	3.00133129e+02
481             	3.00133559e+02
482             	3.00133791e+02
483             	3.00133481e+02
484             	3.00133046e+02
485             	3.00133213e+02
486             	3.00133767e+02
487             	3.00133800e+02
488             	3.00133365e+02
489             	3.00133091e+02
490             	3.00133423e+02
491             	3.00133854e+02
492             	3.00133658e+02
493             	3.00133205e+02
494             	3.00133247e+02
495             	3.00133742e+02
496             	3.00133857e+02
497             	3.00133468e+02
498             	3.00133101e+02
499             	3.00133358e+02
500             	3.00133866e+02
501             	3.00133760e+02
502             	3.00133317e+02
503             	3.00133233e+02
504             	3.00133655e+02
505             	3.00133878e+02
506             	3.00133560e+02
507             	3.00133126e+02
508             	3.00133293e+02
509             	3.00133844e+02
510             	3.00133872e+02
511             	3.00133432e+02
512             	3.00133156e+02
513             	3.00133486e+02
514             	3.00133910e+02
515             	3.00133709e+02
516             	3.00133254e+02
517             	3.00133296e+02
518             	3.00133785e+02
519             	3.00133897e+02
520             	3.00133507e+02
521             	3.00133140e+02
522             	3.00133396e+02
523             	3.00133905e+02
524             	3.00133800e+02
525             	3.00133352e+02
526             	3.00133271e+02
527             	3.00133694e+02
528             	3.00133916e+02
529             	3.00133597e+02
530             	3.00133162e+02
531             	3.00133327e+02
532             	3.00133878e+02
533             	3.00133907e+02
534             	3.00133468e+02
535             	3.00133190e+02
536             	3.00133517e+02
537             	3.00133939e+02
538             	3.00133735e+02
539             	3.00133279e+02
540             	3.00133319e+02
541             	3.00133809e+02
542             	3.00133921e+02
543             	3.00133531e+02
544             	3.00133165e+02
545             	3.00133422e+02
546             	3.00133932e+02
547             	3.00133829e+02
548             	3.00133382e+02
549             	3.00133302e+02
550             	3.00133725e+02
551             	3.00133948e+02
552             	3.00133630e+02
553             	3.00133195e+02
554             	3.00133359e+02
555             	3.00133911e+02
556             	3.00133940e+02
557             	3.00133501e+02
558             	3.00133223e+02
559             	3.00133551e+02
560             	3.00133974e+02
561             	3.00133772e+02
562             	3.00133316e+02
563             	3.00133356e+02
564             	3.00133845e+02
565             	3.00133957e+02
566             	3.00133569e+02
567             	3.00133199e+02
568             	3.00133455e+02
569             	3.00133963e+02
570             	3.00133859e+02
571             	3.00133411e+02
572             	3.00133330e+02
573             	3.00133749e+02
574             	3.00133971e+02
575             	3.00133654e+02
576             	3.00133218e+02
577             	3.00133382e+02
578             	3.00133933e+02
579             	3.00133961e+02
580             	3.00133522e+02
581             	3.00133244e+02
582             	3.00133574e+02
583             	3.00133996e+02
584             	3.00133793e+02
585             	3.00133337e+02
586             	3.00133377e+02
587             	3.00133865e+02
588             	3.00133977e+02
589             	3.00133585e+02
590             	3.00133217e+02
591             	3.00133473e+02
592             	3.00133982e+02
593             	3.00133877e+02
594             	3.00133428e+02
595             	3.00133347e+02
596             	3.00133769e+02
597             	3.00133991e+02
598             	3.00133672e+02
599             	3.00133236e+02
600             	3.00133399e+02
601             	3.00133948e+02
602             	3.00133975e+02
603             	3.00133535e+02
604             	3.00133257e+02
605             	3.00133584e+02
606             	3.00134008e+02
607             	3.00133806e+02
608             	3.00133351e+02
609             	3.00133392e+02
610             	3.00133881e+02
611             	3.00133992e+02
612             	3.00133600e+02
613             	3.00133232e+02
614             	3.00133487e+02
615             	3.00133995e+02
616             	3.00133889e+02
617             	3.00133441e+02
618             	3.00133360e+02
619             	3.00133781e+02
620             	3.00134003e+02
621             	3.00133683e+02
