# Region        : cellZone component_3
# Cells         : 131
# Volume        : 2.90632962e-01
# Time          	volAverage(T)
1               	3.00361824e+02
2               	3.00719065e+02
3               	3.01056134e+02
4               	3.01380499e+02
5               	3.01698200e+02
6               	3.02010578e+02
7               	3.02318593e+02
8               	3.02623448e+02
9               	3.02925831e+02
10              	3.03226304e+02
11              	3.03525502e+02
12              	3.03822831e+02
13              	3.04118416e+02
14              	3.04412017e+02
15              	3.04704756e+02
16              	3.04995876e+02
17              	3.05286241e+02
18              	3.05574117e+02
19              	3.05858490e+02
20              	3.06140043e+02
21              	3.06418385e+02
22              	3.06692552e+02
23              	3.06961948e+02
24              	3.07226422e+02
25              	3.07485668e+02
26              	3.07741806e+02
27              	3.07994783e+02
28              	3.08246042e+02
29              	3.08496480e+02
30              	3.08747837e+02
31              	3.08998492e+02
32              	3.09248530e+02
33              	3.09496141e+02
34              	3.09740809e+02
35              	3.09981671e+02
36              	3.10216790e+02
37              	3.10446748e+02
38              	3.10671351e+02
39              	3.10891075e+02
40              	3.11108786e+02
41              	3.11325841e+02
42              	3.11542857e+02
43              	3.11762891e+02
44              	3.11982579e+02
45              	3.12200541e+02
46              	3.12416068e+02
47              	3.12627024e+02
48              	3.12830975e+02
49              	3.13029392e+02
50              	3.13222014e+02
51              	3.13409166e+02
52              	3.13592518e+02
53              	3.13777677e+02
54              	3.13966623e+02
55              	3.14153284e+02
56              	3.14331122e+02
57              	3.14503657e+02
58              	3.14676462e+02
59              	3.14845238e+02
60              	3.15009871e+02
61              	3.15169011e+02
62              	3.15321680e+02
63              	3.15473122e+02
64              	3.15621444e+02
65              	3.15771957e+02
66              	3.15922670e+02
67              	3.16086232e+02
68              	3.16245773e+02
69              	3.16400879e+02
70              	3.16549416e+02
71              	3.16695919e+02
72              	3.16839809e+02
73              	3.16977076e+02
74              	3.17108431e+02
75              	3.17232568e+02
76              	3.17353399e+02
77              	3.17470934e+02
78              	3.17590323e+02
79              	3.17711980e+02
80              	3.17836825e+02
81              	3.17966698e+02
82              	3.18099943e+02
83              	3.18236246e+02
84              	3.18369430e+02
85              	3.18501564e+02
86              	3.18626461e+02
87              	3.18744441e+02
88              	3.18857545e+02
89              	3.18965004e+02
90              	3.19067699e+02
91              	3.19171258e+02
92              	3.19275530e+02
93              	3.19382410e+02
94              	3.19491927e+02
95              	3.19604087e+02
96              	3.19717959e+02
97              	3.19832196e+02
98              	3.19944400e+02
99              	3.20053146e+02
100             	3.20156635e+02
101             	3.20253910e+02
102             	3.20346117e+02
103             	3.20433828e+02
104             	3.20519103e+02
105             	3.20604174e+02
106             	3.20689414e+02
107             	3.20775103e+02
108             	3.20862666e+02
109             	3.20953076e+02
110             	3.21044621e+02
111             	3.21135469e+02
112             	3.21223890e+02
113             	3.21309556e+02
114             	3.21391525e+02
115             	3.21470429e+02
116             	3.21545386e+02
117             	3.21618394e+02
118             	3.21689119e+02
119             	3.21760402e+02
120             	3.21831327e+02
121             	3.21902288e+02
122             	3.21974163e+02
123             	3.22046196e+02
124             	3.22119510e+02
125             	3.22192181e+02
126             	3.22264051e+02
127             	3.22334241e+02
128             	3.22401851e+02
129             	3.22466894e+02
130             	3.22528956e+02
131             	3.22587500e+02
132             	3.22642977e+02
133             	3.22698350e+02
134             	3.22753583e+02
135             	3.22809066e+02
136             	3.22866259e+02
137             	3.22924117e+02
138             	3.22983308e+02
139             	3.23041927e+02
140             	3.23098774e+02
141             	3.23152428e+02
142             	3.23202120e+02
143             	3.23248095e+02
144             	3.23289824e+02
145             	3.23329713e+02
146             	3.23368490e+02
147             	3.23408437e+02
148             	3.23450373e+02
149             	3.23493404e+02
150             	3.23536528e+02
151             	3.23581335e+02
152             	3.23625375e+02
153             	3.23667807e+02
154             	3.23708220e+02
155             	3.23746478e+02
156             	3.23783183e+02
157             	3.23817758e+02
158             	3.23850638e+02
159             	3.23881669e+02
160             	3.23911492e+02
161             	3.23941667e+02
162             	3.23971920e+02
163             	3.24003780e+02
164             	3.24037465e+02
165             	3.24071926e+02
166             	3.24106758e+02
167             	3.24140457e+02
168             	3.24173138e+02
169             	3.24203340e+02
170             	3.24230786e+02
171             	3.24255242e+02
172             	3.24277167e+02
173             	3.24297345e+02
174             	3.24317006e+02
175             	3.24337201e+02
176             	3.24358492e+02
177             	3.24381335e+02
178             	3.24405498e+02
179             	3.24430693e+02
180             	3.24456400e+02
181             	3.24481264e+02
182             	3.24505248e+02
183             	3.24527787e+02
184             	3.24548114e+02
185             	3.24566534e+02
186             	3.24582712e+02
187             	3.24596838e+02
188             	3.24609591e+02
189             	3.24621576e+02
190             	3.24633395e+02
191             	3.24645616e+02
192             	3.24659164e+02
193             	3.24674650e+02
194             	3.24691719e+02
195             	3.24709824e+02
196             	3.24727802e+02
197             	3.24745114e+02
198             	3.24760250e+02
199             	3.24773112e+02
200             	3.24783271e+02
201             	3.24791319e+02
202             	3.24798315e+02
203             	3.24805422e+02
204             	3.24813343e+02
205             	3.24822760e+02
206             	3.24833694e+02
207             	3.24845734e+02
208             	3.24858631e+02
209             	3.24871246e+02
210             	3.24883055e+02
211             	3.24893565e+02
212             	3.24902145e+02
213             	3.24908953e+02
214             	3.24913815e+02
215             	3.24917063e+02
216             	3.24919309e+02
217             	3.24921596e+02
218             	3.24924647e+02
219             	3.24929169e+02
220             	3.24935574e+02
221             	3.24943653e+02
222             	3.24951954e+02
223             	3.24960768e+02
224             	3.24969416e+02
225             	3.24977117e+02
226             	3.24983691e+02
227             	3.24988917e+02
228             	3.24992825e+02
229             	3.24995330e+02
230             	3.24996538e+02
231             	3.24996601e+02
232             	3.24996071e+02
233             	3.24995490e+02
234             	3.24995646e+02
235             	3.24996939e+02
236             	3.24999756e+02
237             	3.25004269e+02
238             	3.25010111e+02
239             	3.25016086e+02
240             	3.25021967e+02
241             	3.25027108e+02
242             	3.25030902e+02
243             	3.25033319e+02
244             	3.25034537e+02
245             	3.25034839e+02
246             	3.25034499e+02
247             	3.25033891e+02
248             	3.25033288e+02
249             	3.25032774e+02
250             	3.25032461e+02
251             	3.25032276e+02
252             	3.25032386e+02
253             	3.25032949e+02
254             	3.25034081e+02
255             	3.25035926e+02
256             	3.25038525e+02
257             	3.25041860e+02
258             	3.25045461e+02
259             	3.25048921e+02
260             	3.25051892e+02
261             	3.25054053e+02
262             	3.25055278e+02
263             	3.25055686e+02
264             	3.25055552e+02
265             	3.25055119e+02
266             	3.25054621e+02
267             	3.25054208e+02
268             	3.25053928e+02
269             	3.25053705e+02
270             	3.25053431e+02
271             	3.25053070e+02
272             	3.25052590e+02
273             	3.25052066e+02
274             	3.25051512e+02
275             	3.25051052e+02
276             	3.25050907e+02
277             	3.25051132e+02
278             	3.25051829e+02
279             	3.25052788e+02
280             	3.25053817e+02
281             	3.25054576e+02
282             	3.25054859e+02
283             	3.25054516e+02
284             	3.25053624e+02
285             	3.25052283e+02
286             	3.25050776e+02
287             	3.25049235e+02
288             	3.25047845e+02
289             	3.25046681e+02
290             	3.25045740e+02
291             	3.25045028e+02
292             	3.25044496e+02
293             	3.25044156e+02
294             	3.25044056e+02
295             	3.25044143e+02
296             	3.25044291e+02
297             	3.25044529e+02
298             	3.25044765e+02
299             	3.25044936e+02
300             	3.25044969e+02
301             	3.25044764e+02
302             	3.25044228e+02
303             	3.25043321e+02
304             	3.25042069e+02
305             	3.25040623e+02
306             	3.25039144e+02
307             	3.25037772e+02
308             	3.25036572e+02
309             	3.25035559e+02
310             	3.25034738e+02
311             	3.25034053e+02
312             	3.25033431e+02
313             	3.25032853e+02
314             	3.25032259e+02
315             	3.25031640e+02
316             	3.25031056e+02
317             	3.25030574e+02
318             	3.25030244e+02
319             	3.25030103e+02
320             	3.25030084e+02
321             	3.25030071e+02
322             	3.25029966e+02
323             	3.25029675e+02
324             	3.25029148e+02
325             	3.25028391e+02
326             	3.25027443e+02
327             	3.25026383e+02
328             	3.25025302e+02
329             	3.25024291e+02
330             	3.25023374e+02
331             	3.25022567e+02
332             	3.25021835e+02
333             	3.25021151e+02
334             	3.25020470e+02
335             	3.25019768e+02
336             	3.25019049e+02
337             	3.25018344e+02
338             	3.25017690e+02
339             	3.25017122e+02
340             	3.25016655e+02
341             	3.25016283e+02
342             	3.25015971e+02
343             	3.25015683e+02
344             	3.25015364e+02
345             	3.25014986e+02
346             	3.25014517e+02
347             	3.25013953e+02
348             	3.25013306e+02
349             	3.25012597e+02
350             	3.25011861e+02
351             	3.25011131e+02
352             	3.25010426e+02
353             	3.25009751e+02
354             	3.25009117e+02
355             	3.25008519e+02
356             	3.25007949e+02
357             	3.25007403e+02
358             	3.25006890e+02
359             	3.25006430e+02
360             	3.25006037e+02
361             	3.25005687e+02
362             	3.25005382e+02
363             	3.25005097e+02
364             	3.25004805e+02
365             	3.25004473e+02
366             	3.25004069e+02
367             	3.25003581e+02
368             	3.25003006e+02
369             	3.25002370e+02
370             	3.25001718e+02
371             	3.25001111e+02
372             	3.25000591e+02
373             	3.25000184e+02
374             	3.24999892e+02
375             	3.24999699e+02
376             	3.24999567e+02
377             	3.24999431e+02
378             	3.24999250e+02
379             	3.24998999e+02
380             	3.24998665e+02
381             	3.24998255e+02
382             	3.24997800e+02
383             	3.24997340e+02
384             	3.24996901e+02
385             	3.24996496e+02
386             	3.24996123e+02
387             	3.24995773e+02
388             	3.24995438e+02
389             	3.24995116e+02
390             	3.24994807e+02
391             	3.24994514e+02
392             	3.24994245e+02
393             	3.24994015e+02
394             	3.24993830e+02
395             	3.24993680e+02
396             	3.24993551e+02
397             	3.24993433e+02
398             	3.24993310e+02
399             	3.24993175e+02
400             	3.24993019e+02
401             	3.24992845e+02
402             	3.24992653e+02
403             	3.24992446e+02
404             	3.24992227e+02
405             	3.24992000e+02
406             	3.24991782e+02
407             	3.24991578e+02
408             	3.24991402e+02
409             	3.24991255e+02
410             	3.24991137e+02
411             	3.24991046e+02
412             	3.24990974e+02
413             	3.24990907e+02
414             	3.24990837e+02
415             	3.24990757e+02
416             	3.24990666e+02
417             	3.24990564e+02
418             	3.24990456e+02
419             	3.24990349e+02
420             	3.24990253e+02
421             	3.24990173e+02
422             	3.24990115e+02
423             	3.24990080e+02
424             	3.24990065e+02
425             	3.24990067e+02
426             	3.24990078e+02
427             	3.24990096e+02
428             	3.24990116e+02
429             	3.24990136e+02
430             	3.24990155e+02
431             	3.24990173e+02
432             	3.24990190e+02
433             	3.24990206e+02
434             	3.24990221e+02
435             	3.24990233e+02
436             	3.24990241e+02
437             	3.24990251e+02
438             	3.24990265e+02
439             	3.24990288e+02
440             	3.24990323e+02
441             	3.24990377e+02
442             	3.24990455e+02
443             	3.24990558e+02
444             	3.24990679e+02
445             	3.24990808e+02
446             	3.24990934e+02
447             	3.24991049e+02
448             	3.24991149e+02
449             	3.24991235e+02
450             	3.24991309e+02
451             	3.24991385e+02
452             	3.24991471e+02
453             	3.24991574e+02
454             	3.24991699e+02
455             	3.24991849e+02
456             	3.24992021e+02
457             	3.24992213e+02
458             	3.24992415e+02
459             	3.24992619e+02
460             	3.24992820e+02
461             	3.24993011e+02
462             	3.24993194e+02
463             	3.24993368e+02
464             	3.24993537e+02
465             	3.24993704e+02
466             	3.24993874e+02
467             	3.24994052e+02
468             	3.24994242e+02
469             	3.24994446e+02
470             	3.24994664e+02
471             	3.24994895e+02
472             	3.24995133e+02
473             	3.24995377e+02
474             	3.24995626e+02
475             	3.24995878e+02
476             	3.24996133e+02
477             	3.24996390e+02
478             	3.24996650e+02
479             	3.24996908e+02
480             	3.24997166e+02
481             	3.24997423e+02
482             	3.24997678e+02
483             	3.24997932e+02
484             	3.24998187e+02
485             	3.24998446e+02
486             	3.24998711e+02
487             	3.24998983e+02
488             	3.24999265e+02
489             	3.24999557e+02
490             	3.24999858e+02
491             	3.25000166e+02
492             	3.25000480e+02
493             	3.25000797e+02
494             	3.25001115e+02
495             	3.25001434e+02
496             	3.25001753e+02
497             	3.25002071e+02
498             	3.25002389e+02
499             	3.25002706e+02
500             	3.25003023e+02
501             	3.25003340e+02
502             	3.25003658e+02
503             	3.25003975e+02
504             	3.25004293e+02
505             	3.25004614e+02
506             	3.25004937e+02
507             	3.25005264e+02
508             	3.25005596e+02
509             	3.25005931e+02
510             	3.25006270e+02
511             	3.25006612e+02
512             	3.25006956e+02
513             	3.25007303e+02
514             	3.25007653e+02
515             	3.25008006e+02
516             	3.25008362e+02
517             	3.25008721e+02
518             	3.25009083e+02
519             	3.25009448e+02
520             	3.25009817e+02
521             	3.25010188e+02
522             	3.25010562e+02
523             	3.25010939e+02
524             	3.25011319e+02
525             	3.25011702e+02
526             	3.25012087e+02
527             	3.25012474e+02
528             	3.25012860e+02
529             	3.25013245e+02
530             	3.25013627e+02
531             	3.25014008e+02
532             	3.25014386e+02
533             	3.25014764e+02
534             	3.25015142e+02
535             	3.25015520e+02
536             	3.25015900e+02
537             	3.25016282e+02
538             	3.25016664e+02
539             	3.25017047e+02
540             	3.25017431e+02
541             	3.25017816e+02
542             	3.25018201e+02
543             	3.25018588e+02
544             	3.25018975e+02
545             	3.25019364e+02
546             	3.25019756e+02
547             	3.25020150e+02
548             	3.25020547e+02
549             	3.25020947e+02
550             	3.25021350e+02
551             	3.25021754e+02
552             	3.25022161e+02
553             	3.25022569e+02
554             	3.25022977e+02
555             	3.25023384e+02
556             	3.25023790e+02
557             	3.25024195e+02
558             	3.25024598e+02
559             	3.25024999e+02
560             	3.25025400e+02
561             	3.25025799e+02
562             	3.25026198e+02
563             	3.25026598e+02
564             	3.25026998e+02
565             	3.25027398e+02
566             	3.25027799e+02
567             	3.25028200e+02
568             	3.25028602e+02
569             	3.25029004e+02
570             	3.25029406e+02
571             	3.25029808e+02
572             	3.25030211e+02
573             	3.25030613e+02
574             	3.25031015e+02
575             	3.25031417e+02
576             	3.25031818e+02
577             	3.25032219e+02
578             	3.25032621e+02
579             	3.25033022e+02
580             	3.25033424e+02
581             	3.25033826e+02
582             	3.25034228e+02
583             	3.25034631e+02
584             	3.25035034e+02
585             	3.25035437e+02
586             	3.25035840e+02
587             	3.25036243e+02
588             	3.25036647e+02
589             	3.25037050e+02
590             	3.25037453e+02
591             	3.25037855e+02
592             	3.25038258e+02
593             	3.25038660e+02
594             	3.25039062e+02
595             	3.25039464e+02
596             	3.25039865e+02
597             	3.25040266e+02
598             	3.25040666e+02
599             	3.25041066e+02
600             	3.25041466e+02
601             	3.25041866e+02
602             	3.25042267e+02
603             	3.25042667e+02
604             	3.25043068e+02
605             	3.25043468e+02
606             	3.25043868e+02
607             	3.25044266e+02
608             	3.25044663e+02
609             	3.25045059e+02
610             	3.25045452e+02
611             	3.25045844e+02
612             	3.25046235e+02
613             	3.25046625e+02
614             	3.25047014e+02
615             	3.25047404e+02
616             	3.25047794e+02
617             	3.25048184e+02
618             	3.25048574e+02
619             	3.25048963e+02
620             	3.25049352e+02
621             	3.25049739e+02
