# Region        : cellZone component_3
# Cells         : 154
# Volume        : 2.91107477e-01
# Time          	volAverage(T)
1               	3.00147016e+02
2               	3.00292208e+02
3               	3.00429615e+02
4               	3.00561598e+02
5               	3.00689826e+02
6               	3.00814828e+02
7               	3.00937228e+02
8               	3.01057509e+02
9               	3.01176157e+02
10              	3.01293127e+02
11              	3.01408763e+02
12              	3.01522710e+02
13              	3.01635588e+02
14              	3.01747543e+02
15              	3.01858212e+02
16              	3.01967641e+02
17              	3.02076328e+02
18              	3.02185639e+02
19              	3.02291280e+02
20              	3.02394208e+02
21              	3.02495712e+02
22              	3.02596809e+02
23              	3.02696748e+02
24              	3.02794839e+02
25              	3.02890840e+02
26              	3.02984865e+02
27              	3.03077299e+02
28              	3.03168296e+02
29              	3.03258029e+02
30              	3.03346768e+02
31              	3.03436652e+02
32              	3.03523780e+02
33              	3.03604921e+02
34              	3.03685540e+02
35              	3.03764879e+02
36              	3.03842164e+02
37              	3.03916512e+02
38              	3.03987879e+02
39              	3.04058387e+02
40              	3.04127694e+02
41              	3.04197598e+02
42              	3.04268609e+02
43              	3.04342065e+02
44              	3.04415789e+02
45              	3.04491242e+02
46              	3.04566838e+02
47              	3.04641164e+02
48              	3.04712490e+02
49              	3.04781461e+02
50              	3.04849383e+02
51              	3.04910431e+02
52              	3.04972393e+02
53              	3.05032144e+02
54              	3.05091462e+02
55              	3.05151021e+02
56              	3.05212677e+02
57              	3.05274654e+02
58              	3.05335475e+02
59              	3.05396765e+02
60              	3.05455225e+02
61              	3.05510280e+02
62              	3.05560228e+02
63              	3.05608677e+02
64              	3.05655860e+02
65              	3.05704311e+02
66              	3.05753821e+02
67              	3.05805500e+02
68              	3.05857570e+02
69              	3.05912295e+02
70              	3.05965978e+02
71              	3.06018382e+02
72              	3.06066798e+02
73              	3.06112328e+02
74              	3.06154120e+02
75              	3.06195376e+02
76              	3.06237538e+02
77              	3.06281716e+02
78              	3.06327251e+02
79              	3.06374896e+02
80              	3.06424700e+02
81              	3.06475970e+02
82              	3.06523819e+02
83              	3.06568346e+02
84              	3.06609675e+02
85              	3.06646815e+02
86              	3.06683940e+02
87              	3.06719916e+02
88              	3.06756368e+02
89              	3.06795150e+02
90              	3.06836231e+02
91              	3.06880601e+02
92              	3.06922763e+02
93              	3.06966143e+02
94              	3.07004960e+02
95              	3.07040105e+02
96              	3.07072340e+02
97              	3.07100237e+02
98              	3.07129390e+02
99              	3.07158860e+02
100             	3.07190756e+02
101             	3.07226217e+02
102             	3.07263771e+02
103             	3.07302392e+02
104             	3.07339157e+02
105             	3.07373376e+02
106             	3.07405209e+02
107             	3.07433200e+02
108             	3.07460077e+02
109             	3.07485801e+02
110             	3.07510755e+02
111             	3.07537783e+02
112             	3.07566692e+02
113             	3.07599460e+02
114             	3.07633933e+02
115             	3.07667168e+02
116             	3.07700462e+02
117             	3.07731212e+02
118             	3.07757670e+02
119             	3.07781512e+02
120             	3.07805118e+02
121             	3.07829279e+02
122             	3.07854033e+02
123             	3.07879559e+02
124             	3.07907313e+02
125             	3.07937706e+02
126             	3.07967026e+02
127             	3.07995649e+02
128             	3.08022164e+02
129             	3.08046884e+02
130             	3.08069340e+02
131             	3.08091713e+02
132             	3.08113807e+02
133             	3.08135519e+02
134             	3.08158417e+02
135             	3.08182254e+02
136             	3.08207971e+02
137             	3.08234104e+02
138             	3.08261903e+02
139             	3.08288774e+02
140             	3.08313749e+02
141             	3.08337581e+02
142             	3.08360807e+02
143             	3.08382539e+02
144             	3.08403731e+02
145             	3.08424980e+02
146             	3.08446423e+02
147             	3.08468910e+02
148             	3.08493068e+02
149             	3.08518075e+02
150             	3.08543597e+02
151             	3.08568879e+02
152             	3.08592733e+02
153             	3.08614431e+02
154             	3.08634681e+02
155             	3.08654434e+02
156             	3.08673036e+02
157             	3.08691029e+02
158             	3.08709590e+02
159             	3.08728530e+02
160             	3.08747876e+02
161             	3.08768217e+02
162             	3.08788535e+02
163             	3.08809445e+02
164             	3.08830615e+02
165             	3.08850805e+02
166             	3.08870364e+02
167             	3.08889717e+02
168             	3.08908624e+02
169             	3.08927183e+02
170             	3.08945436e+02
171             	3.08963509e+02
172             	3.08981526e+02
173             	3.08999443e+02
174             	3.09017243e+02
175             	3.09034818e+02
176             	3.09052142e+02
177             	3.09068736e+02
178             	3.09085304e+02
179             	3.09101631e+02
180             	3.09117858e+02
181             	3.09133978e+02
182             	3.09150012e+02
183             	3.09165989e+02
184             	3.09181768e+02
185             	3.09197693e+02
186             	3.09213666e+02
187             	3.09229483e+02
188             	3.09245215e+02
189             	3.09260826e+02
190             	3.09276237e+02
191             	3.09291495e+02
192             	3.09306611e+02
193             	3.09321463e+02
194             	3.09335811e+02
195             	3.09349705e+02
196             	3.09363466e+02
197             	3.09377222e+02
198             	3.09390752e+02
199             	3.09403958e+02
200             	3.09416606e+02
201             	3.09429335e+02
202             	3.09441970e+02
203             	3.09454474e+02
204             	3.09466928e+02
205             	3.09479366e+02
206             	3.09491827e+02
207             	3.09504083e+02
208             	3.09515928e+02
209             	3.09527554e+02
210             	3.09539003e+02
211             	3.09550355e+02
212             	3.09561827e+02
213             	3.09573365e+02
214             	3.09584649e+02
215             	3.09595944e+02
216             	3.09607208e+02
217             	3.09618422e+02
218             	3.09629766e+02
219             	3.09641036e+02
220             	3.09652161e+02
221             	3.09663151e+02
222             	3.09673994e+02
223             	3.09684765e+02
224             	3.09695501e+02
225             	3.09705790e+02
226             	3.09715721e+02
227             	3.09725403e+02
228             	3.09734805e+02
229             	3.09743831e+02
230             	3.09752603e+02
231             	3.09761318e+02
232             	3.09769995e+02
233             	3.09778620e+02
234             	3.09787177e+02
235             	3.09795662e+02
236             	3.09804082e+02
237             	3.09812431e+02
238             	3.09820689e+02
239             	3.09828812e+02
240             	3.09836756e+02
241             	3.09844489e+02
242             	3.09852049e+02
243             	3.09859355e+02
244             	3.09866408e+02
245             	3.09873338e+02
246             	3.09880158e+02
247             	3.09886891e+02
248             	3.09893573e+02
249             	3.09900234e+02
250             	3.09906900e+02
251             	3.09913583e+02
252             	3.09920306e+02
253             	3.09927075e+02
254             	3.09933904e+02
255             	3.09940742e+02
256             	3.09947584e+02
257             	3.09954491e+02
258             	3.09961421e+02
259             	3.09968291e+02
260             	3.09975260e+02
261             	3.09982002e+02
262             	3.09988674e+02
263             	3.09995323e+02
264             	3.10001931e+02
265             	3.10008635e+02
266             	3.10015109e+02
267             	3.10021427e+02
268             	3.10027700e+02
269             	3.10033647e+02
270             	3.10039333e+02
271             	3.10044782e+02
272             	3.10050016e+02
273             	3.10055050e+02
274             	3.10059916e+02
275             	3.10064577e+02
276             	3.10069024e+02
277             	3.10073152e+02
278             	3.10077026e+02
279             	3.10080712e+02
280             	3.10084321e+02
281             	3.10087869e+02
282             	3.10091414e+02
283             	3.10095015e+02
284             	3.10098681e+02
285             	3.10102411e+02
286             	3.10106163e+02
287             	3.10109917e+02
288             	3.10113669e+02
289             	3.10117431e+02
290             	3.10121223e+02
291             	3.10125093e+02
292             	3.10129086e+02
293             	3.10133245e+02
294             	3.10137588e+02
295             	3.10142128e+02
296             	3.10146744e+02
297             	3.10151314e+02
298             	3.10155861e+02
299             	3.10160320e+02
300             	3.10164607e+02
301             	3.10168687e+02
302             	3.10172703e+02
303             	3.10176357e+02
304             	3.10179735e+02
305             	3.10182889e+02
306             	3.10185853e+02
307             	3.10188662e+02
308             	3.10191331e+02
309             	3.10193876e+02
310             	3.10196313e+02
311             	3.10198653e+02
312             	3.10200915e+02
313             	3.10203006e+02
314             	3.10205011e+02
315             	3.10206847e+02
316             	3.10208613e+02
317             	3.10210344e+02
318             	3.10212083e+02
319             	3.10213809e+02
320             	3.10215657e+02
321             	3.10217642e+02
322             	3.10219771e+02
323             	3.10222042e+02
324             	3.10224457e+02
325             	3.10227053e+02
326             	3.10229704e+02
327             	3.10232481e+02
328             	3.10235281e+02
329             	3.10238173e+02
330             	3.10241172e+02
331             	3.10244304e+02
332             	3.10247562e+02
333             	3.10250823e+02
334             	3.10254050e+02
335             	3.10257317e+02
336             	3.10260561e+02
337             	3.10263709e+02
338             	3.10266676e+02
339             	3.10269421e+02
340             	3.10271963e+02
341             	3.10274279e+02
342             	3.10276351e+02
343             	3.10278189e+02
344             	3.10279837e+02
345             	3.10281292e+02
346             	3.10282554e+02
347             	3.10283628e+02
348             	3.10284543e+02
349             	3.10285227e+02
350             	3.10285777e+02
351             	3.10286327e+02
352             	3.10286905e+02
353             	3.10287573e+02
354             	3.10288379e+02
355             	3.10289341e+02
356             	3.10290480e+02
357             	3.10291716e+02
358             	3.10293079e+02
359             	3.10294551e+02
360             	3.10296124e+02
361             	3.10297768e+02
362             	3.10299495e+02
363             	3.10301323e+02
364             	3.10303309e+02
365             	3.10305389e+02
366             	3.10307578e+02
367             	3.10309904e+02
368             	3.10312331e+02
369             	3.10314710e+02
370             	3.10316914e+02
371             	3.10318964e+02
372             	3.10320814e+02
373             	3.10322465e+02
374             	3.10323901e+02
375             	3.10324978e+02
376             	3.10326051e+02
377             	3.10327043e+02
378             	3.10327931e+02
379             	3.10328705e+02
380             	3.10329503e+02
381             	3.10330364e+02
382             	3.10331286e+02
383             	3.10332267e+02
384             	3.10333295e+02
385             	3.10334275e+02
386             	3.10335146e+02
387             	3.10335839e+02
388             	3.10336433e+02
389             	3.10337007e+02
390             	3.10337598e+02
391             	3.10338213e+02
392             	3.10338994e+02
393             	3.10339814e+02
394             	3.10340703e+02
395             	3.10341621e+02
396             	3.10342560e+02
397             	3.10343515e+02
398             	3.10344492e+02
399             	3.10345455e+02
400             	3.10346398e+02
401             	3.10347375e+02
402             	3.10348332e+02
403             	3.10349400e+02
404             	3.10350718e+02
405             	3.10352055e+02
406             	3.10353141e+02
407             	3.10354137e+02
408             	3.10355141e+02
409             	3.10355951e+02
410             	3.10356596e+02
411             	3.10357013e+02
412             	3.10357364e+02
413             	3.10357810e+02
414             	3.10358323e+02
415             	3.10358864e+02
416             	3.10359434e+02
417             	3.10360071e+02
418             	3.10360778e+02
419             	3.10361566e+02
420             	3.10362392e+02
421             	3.10363258e+02
422             	3.10364087e+02
423             	3.10364815e+02
424             	3.10365420e+02
425             	3.10365907e+02
426             	3.10366294e+02
427             	3.10366628e+02
428             	3.10366981e+02
429             	3.10367405e+02
430             	3.10367914e+02
431             	3.10368509e+02
432             	3.10369213e+02
433             	3.10370013e+02
434             	3.10370909e+02
435             	3.10371897e+02
436             	3.10372981e+02
437             	3.10374176e+02
438             	3.10375487e+02
439             	3.10376923e+02
440             	3.10378529e+02
441             	3.10380259e+02
442             	3.10381955e+02
443             	3.10383545e+02
444             	3.10385135e+02
445             	3.10386450e+02
446             	3.10387486e+02
447             	3.10388314e+02
448             	3.10388967e+02
449             	3.10389450e+02
450             	3.10389749e+02
451             	3.10389860e+02
452             	3.10389803e+02
453             	3.10389619e+02
454             	3.10389345e+02
455             	3.10389003e+02
456             	3.10388597e+02
457             	3.10388118e+02
458             	3.10387525e+02
459             	3.10386815e+02
460             	3.10386023e+02
461             	3.10385287e+02
462             	3.10384588e+02
463             	3.10383954e+02
464             	3.10383432e+02
465             	3.10383048e+02
466             	3.10382820e+02
467             	3.10382746e+02
468             	3.10382800e+02
469             	3.10382955e+02
470             	3.10383188e+02
471             	3.10383487e+02
472             	3.10383867e+02
473             	3.10384343e+02
474             	3.10384966e+02
475             	3.10385759e+02
476             	3.10386631e+02
477             	3.10387510e+02
478             	3.10388068e+02
479             	3.10388461e+02
480             	3.10388650e+02
481             	3.10388622e+02
482             	3.10388443e+02
483             	3.10388304e+02
484             	3.10388195e+02
485             	3.10388088e+02
486             	3.10387960e+02
487             	3.10387857e+02
488             	3.10387783e+02
489             	3.10387738e+02
490             	3.10387743e+02
491             	3.10387761e+02
492             	3.10387752e+02
493             	3.10387713e+02
494             	3.10387618e+02
495             	3.10387418e+02
496             	3.10387136e+02
497             	3.10386826e+02
498             	3.10386575e+02
499             	3.10386418e+02
500             	3.10386378e+02
501             	3.10386464e+02
502             	3.10386666e+02
503             	3.10387012e+02
504             	3.10387394e+02
505             	3.10387817e+02
506             	3.10388260e+02
507             	3.10388709e+02
508             	3.10389162e+02
509             	3.10389618e+02
510             	3.10390097e+02
511             	3.10390646e+02
512             	3.10391320e+02
513             	3.10392151e+02
514             	3.10393018e+02
515             	3.10393667e+02
516             	3.10394177e+02
517             	3.10394569e+02
518             	3.10394775e+02
519             	3.10394855e+02
520             	3.10394905e+02
521             	3.10394972e+02
522             	3.10394996e+02
523             	3.10394943e+02
524             	3.10394822e+02
525             	3.10394671e+02
526             	3.10394467e+02
527             	3.10394184e+02
528             	3.10393804e+02
529             	3.10393333e+02
530             	3.10392810e+02
531             	3.10392228e+02
532             	3.10391571e+02
533             	3.10390896e+02
534             	3.10390312e+02
535             	3.10389803e+02
536             	3.10389393e+02
537             	3.10389105e+02
538             	3.10388955e+02
539             	3.10388957e+02
540             	3.10389125e+02
541             	3.10389459e+02
542             	3.10389949e+02
543             	3.10390570e+02
544             	3.10391308e+02
545             	3.10392142e+02
546             	3.10393054e+02
547             	3.10394039e+02
548             	3.10395070e+02
549             	3.10396066e+02
550             	3.10396943e+02
551             	3.10397631e+02
552             	3.10398233e+02
553             	3.10398682e+02
554             	3.10398934e+02
555             	3.10399045e+02
556             	3.10399083e+02
557             	3.10399072e+02
558             	3.10399007e+02
559             	3.10398877e+02
560             	3.10398680e+02
561             	3.10398428e+02
562             	3.10398132e+02
563             	3.10397794e+02
564             	3.10397401e+02
565             	3.10396967e+02
566             	3.10396422e+02
567             	3.10395823e+02
568             	3.10395327e+02
569             	3.10394902e+02
570             	3.10394556e+02
571             	3.10394349e+02
572             	3.10394313e+02
573             	3.10394427e+02
574             	3.10394694e+02
575             	3.10395065e+02
576             	3.10395499e+02
577             	3.10395976e+02
578             	3.10396473e+02
579             	3.10396987e+02
580             	3.10397430e+02
581             	3.10397883e+02
582             	3.10398409e+02
583             	3.10399078e+02
584             	3.10399916e+02
585             	3.10400890e+02
586             	3.10401883e+02
587             	3.10402870e+02
588             	3.10403901e+02
589             	3.10404916e+02
590             	3.10405823e+02
591             	3.10406601e+02
592             	3.10407300e+02
593             	3.10407952e+02
594             	3.10408544e+02
595             	3.10409036e+02
596             	3.10409421e+02
597             	3.10409707e+02
598             	3.10409905e+02
599             	3.10410027e+02
600             	3.10410064e+02
601             	3.10410007e+02
602             	3.10409849e+02
603             	3.10409562e+02
604             	3.10409143e+02
605             	3.10408671e+02
606             	3.10408245e+02
607             	3.10407883e+02
608             	3.10407620e+02
609             	3.10407493e+02
610             	3.10407500e+02
611             	3.10407664e+02
612             	3.10407980e+02
613             	3.10408418e+02
614             	3.10408960e+02
615             	3.10409579e+02
616             	3.10410245e+02
617             	3.10410938e+02
618             	3.10411651e+02
619             	3.10412408e+02
620             	3.10413229e+02
621             	3.10414128e+02
