# Region        : cellZone component_1
# Cells         : 144
# Volume        : 2.49348807e-01
# Time          	volAverage(T)
1               	3.01333869e+02
2               	3.02640484e+02
3               	3.03730613e+02
4               	3.04672705e+02
5               	3.05567287e+02
6               	3.06440993e+02
7               	3.07278280e+02
8               	3.08071406e+02
9               	3.08835725e+02
10              	3.09587365e+02
11              	3.10280703e+02
12              	3.10945342e+02
13              	3.11602069e+02
14              	3.12276120e+02
15              	3.12931412e+02
16              	3.13555615e+02
17              	3.14161972e+02
18              	3.14768499e+02
19              	3.15377288e+02
20              	3.15982582e+02
21              	3.16534974e+02
22              	3.17000950e+02
23              	3.17427496e+02
24              	3.17835050e+02
25              	3.18217027e+02
26              	3.18576583e+02
27              	3.18929841e+02
28              	3.19295329e+02
29              	3.19652158e+02
30              	3.20000587e+02
31              	3.20369276e+02
32              	3.20712750e+02
33              	3.21058965e+02
34              	3.21379615e+02
35              	3.21677444e+02
36              	3.21961141e+02
37              	3.22230686e+02
38              	3.22514217e+02
39              	3.22797013e+02
40              	3.23092790e+02
41              	3.23395407e+02
42              	3.23643849e+02
43              	3.23911482e+02
44              	3.24179834e+02
45              	3.24469002e+02
46              	3.24735502e+02
47              	3.24977895e+02
48              	3.25189795e+02
49              	3.25386494e+02
50              	3.25583926e+02
51              	3.25792096e+02
52              	3.25999267e+02
53              	3.26197270e+02
54              	3.26395528e+02
55              	3.26574828e+02
56              	3.26784883e+02
57              	3.27026097e+02
58              	3.27276531e+02
59              	3.27526034e+02
60              	3.27759872e+02
61              	3.27972337e+02
62              	3.28178406e+02
63              	3.28385318e+02
64              	3.28580848e+02
65              	3.28756825e+02
66              	3.28900002e+02
67              	3.29011640e+02
68              	3.29138690e+02
69              	3.29252551e+02
70              	3.29407181e+02
71              	3.29577904e+02
72              	3.29771110e+02
73              	3.29981011e+02
74              	3.30187649e+02
75              	3.30386999e+02
76              	3.30560319e+02
77              	3.30682491e+02
78              	3.30779573e+02
79              	3.30854258e+02
80              	3.30929771e+02
81              	3.31001978e+02
82              	3.31083033e+02
83              	3.31163566e+02
84              	3.31249504e+02
85              	3.31349959e+02
86              	3.31466923e+02
87              	3.31601472e+02
88              	3.31739739e+02
89              	3.31863779e+02
90              	3.31985491e+02
91              	3.32113404e+02
92              	3.32248034e+02
93              	3.32386007e+02
94              	3.32522221e+02
95              	3.32650389e+02
96              	3.32773492e+02
97              	3.32906220e+02
98              	3.33038310e+02
99              	3.33153785e+02
100             	3.33239885e+02
101             	3.33324451e+02
102             	3.33375683e+02
103             	3.33445373e+02
104             	3.33532391e+02
105             	3.33607877e+02
106             	3.33681731e+02
107             	3.33747058e+02
108             	3.33810188e+02
109             	3.33869983e+02
110             	3.33914484e+02
111             	3.33958489e+02
112             	3.34002441e+02
113             	3.34021667e+02
114             	3.34056925e+02
115             	3.34099407e+02
116             	3.34149595e+02
117             	3.34213322e+02
118             	3.34287195e+02
119             	3.34372257e+02
120             	3.34453749e+02
121             	3.34537196e+02
122             	3.34624789e+02
123             	3.34691448e+02
124             	3.34759347e+02
125             	3.34818044e+02
126             	3.34881941e+02
127             	3.34915670e+02
128             	3.34951910e+02
129             	3.34989143e+02
130             	3.35023299e+02
131             	3.35044569e+02
132             	3.35077540e+02
133             	3.35115105e+02
134             	3.35152997e+02
135             	3.35192876e+02
136             	3.35239546e+02
137             	3.35275772e+02
138             	3.35317174e+02
139             	3.35345275e+02
140             	3.35381511e+02
141             	3.35413504e+02
142             	3.35435122e+02
143             	3.35454824e+02
144             	3.35476753e+02
145             	3.35505034e+02
146             	3.35540132e+02
147             	3.35580192e+02
148             	3.35598254e+02
149             	3.35627295e+02
150             	3.35664346e+02
151             	3.35699394e+02
152             	3.35708804e+02
153             	3.35714601e+02
154             	3.35716888e+02
155             	3.35703551e+02
156             	3.35697099e+02
157             	3.35689391e+02
158             	3.35683177e+02
159             	3.35682557e+02
160             	3.35687424e+02
161             	3.35695073e+02
162             	3.35691870e+02
163             	3.35699226e+02
164             	3.35715833e+02
165             	3.35722663e+02
166             	3.35739836e+02
167             	3.35762603e+02
168             	3.35773056e+02
169             	3.35792787e+02
170             	3.35818256e+02
171             	3.35842717e+02
172             	3.35866383e+02
173             	3.35892124e+02
174             	3.35915750e+02
175             	3.35936403e+02
176             	3.35955774e+02
177             	3.35957477e+02
178             	3.35963996e+02
179             	3.35973230e+02
180             	3.35972317e+02
181             	3.35969997e+02
182             	3.35969067e+02
183             	3.35968081e+02
184             	3.35969050e+02
185             	3.35976534e+02
186             	3.35971608e+02
187             	3.35976578e+02
188             	3.35978948e+02
189             	3.35994210e+02
190             	3.36014982e+02
191             	3.36030406e+02
192             	3.36037526e+02
193             	3.36041955e+02
194             	3.36044326e+02
195             	3.36047650e+02
196             	3.36052518e+02
197             	3.36043239e+02
198             	3.36043566e+02
199             	3.36053175e+02
200             	3.36065158e+02
201             	3.36073739e+02
202             	3.36079984e+02
203             	3.36084165e+02
204             	3.36088778e+02
205             	3.36096522e+02
206             	3.36106328e+02
207             	3.36119081e+02
208             	3.36132268e+02
209             	3.36147328e+02
210             	3.36163285e+02
211             	3.36180429e+02
212             	3.36191785e+02
213             	3.36196732e+02
214             	3.36201908e+02
215             	3.36209485e+02
216             	3.36219746e+02
217             	3.36233246e+02
218             	3.36249560e+02
219             	3.36270127e+02
220             	3.36294038e+02
221             	3.36317956e+02
222             	3.36340916e+02
223             	3.36349609e+02
224             	3.36369117e+02
225             	3.36397267e+02
226             	3.36405315e+02
227             	3.36417073e+02
228             	3.36431974e+02
229             	3.36445000e+02
230             	3.36453314e+02
231             	3.36460778e+02
232             	3.36469862e+02
233             	3.36481317e+02
234             	3.36491089e+02
235             	3.36503155e+02
236             	3.36499190e+02
237             	3.36500819e+02
238             	3.36507202e+02
239             	3.36515117e+02
240             	3.36523475e+02
241             	3.36527162e+02
242             	3.36526188e+02
243             	3.36529898e+02
244             	3.36536891e+02
245             	3.36545227e+02
246             	3.36551379e+02
247             	3.36560077e+02
248             	3.36555494e+02
249             	3.36557580e+02
250             	3.36562698e+02
251             	3.36570007e+02
252             	3.36575140e+02
253             	3.36577533e+02
254             	3.36570554e+02
255             	3.36567047e+02
256             	3.36569189e+02
257             	3.36576867e+02
258             	3.36570677e+02
259             	3.36572135e+02
260             	3.36565152e+02
261             	3.36565378e+02
262             	3.36572578e+02
263             	3.36557855e+02
264             	3.36547462e+02
265             	3.36540323e+02
266             	3.36528717e+02
267             	3.36518656e+02
268             	3.36511975e+02
269             	3.36509149e+02
270             	3.36509175e+02
271             	3.36511760e+02
272             	3.36497522e+02
273             	3.36494047e+02
274             	3.36497242e+02
275             	3.36501972e+02
276             	3.36504819e+02
277             	3.36501134e+02
278             	3.36492912e+02
279             	3.36487961e+02
280             	3.36486212e+02
281             	3.36486319e+02
282             	3.36488490e+02
283             	3.36492424e+02
284             	3.36481549e+02
285             	3.36481444e+02
286             	3.36488002e+02
287             	3.36492247e+02
288             	3.36492508e+02
289             	3.36489423e+02
290             	3.36482498e+02
291             	3.36478850e+02
292             	3.36477647e+02
293             	3.36477010e+02
294             	3.36476532e+02
295             	3.36476014e+02
296             	3.36475227e+02
297             	3.36476342e+02
298             	3.36477926e+02
299             	3.36476659e+02
300             	3.36473465e+02
301             	3.36463752e+02
302             	3.36457395e+02
303             	3.36454487e+02
304             	3.36453128e+02
305             	3.36452251e+02
306             	3.36454542e+02
307             	3.36457927e+02
308             	3.36460690e+02
309             	3.36463495e+02
310             	3.36451997e+02
311             	3.36448594e+02
312             	3.36449452e+02
313             	3.36450505e+02
314             	3.36449809e+02
315             	3.36447314e+02
316             	3.36445753e+02
317             	3.36444425e+02
318             	3.36445011e+02
319             	3.36447090e+02
320             	3.36450940e+02
321             	3.36452337e+02
322             	3.36450750e+02
323             	3.36435190e+02
324             	3.36428734e+02
325             	3.36427982e+02
326             	3.36426723e+02
327             	3.36422632e+02
328             	3.36416317e+02
329             	3.36411715e+02
330             	3.36410491e+02
331             	3.36411234e+02
332             	3.36411327e+02
333             	3.36411289e+02
334             	3.36413481e+02
335             	3.36417304e+02
336             	3.36420601e+02
337             	3.36422520e+02
338             	3.36423968e+02
339             	3.36425519e+02
340             	3.36428184e+02
341             	3.36434250e+02
342             	3.36442492e+02
343             	3.36452681e+02
344             	3.36464437e+02
345             	3.36463808e+02
346             	3.36471995e+02
347             	3.36484131e+02
348             	3.36495448e+02
349             	3.36502327e+02
350             	3.36507574e+02
351             	3.36513182e+02
352             	3.36517396e+02
353             	3.36520345e+02
354             	3.36523307e+02
355             	3.36526930e+02
356             	3.36530337e+02
357             	3.36532998e+02
358             	3.36535818e+02
359             	3.36538856e+02
360             	3.36541601e+02
361             	3.36544864e+02
362             	3.36548681e+02
363             	3.36552772e+02
364             	3.36556770e+02
365             	3.36559980e+02
366             	3.36562002e+02
367             	3.36563649e+02
368             	3.36566552e+02
369             	3.36568080e+02
370             	3.36569155e+02
371             	3.36570342e+02
372             	3.36571971e+02
373             	3.36574258e+02
374             	3.36577042e+02
375             	3.36577575e+02
376             	3.36578607e+02
377             	3.36579710e+02
378             	3.36580447e+02
379             	3.36580761e+02
380             	3.36580915e+02
381             	3.36580264e+02
382             	3.36579059e+02
383             	3.36577813e+02
384             	3.36576660e+02
385             	3.36575967e+02
386             	3.36575776e+02
387             	3.36575267e+02
388             	3.36575603e+02
389             	3.36577147e+02
390             	3.36578922e+02
391             	3.36580545e+02
392             	3.36581957e+02
393             	3.36583625e+02
394             	3.36585635e+02
395             	3.36586444e+02
396             	3.36586514e+02
397             	3.36586440e+02
398             	3.36586431e+02
399             	3.36586550e+02
400             	3.36586874e+02
401             	3.36587671e+02
402             	3.36589104e+02
403             	3.36590914e+02
404             	3.36593129e+02
405             	3.36595670e+02
406             	3.36598067e+02
407             	3.36600466e+02
408             	3.36602773e+02
409             	3.36604843e+02
410             	3.36606468e+02
411             	3.36607357e+02
412             	3.36607685e+02
413             	3.36607802e+02
414             	3.36607639e+02
415             	3.36607253e+02
416             	3.36606705e+02
417             	3.36606157e+02
418             	3.36605720e+02
419             	3.36605389e+02
420             	3.36605001e+02
421             	3.36604460e+02
422             	3.36603775e+02
423             	3.36602941e+02
424             	3.36601804e+02
425             	3.36600288e+02
426             	3.36598495e+02
427             	3.36596816e+02
428             	3.36595368e+02
429             	3.36593721e+02
430             	3.36592288e+02
431             	3.36591275e+02
432             	3.36590659e+02
433             	3.36590329e+02
434             	3.36590107e+02
435             	3.36589692e+02
436             	3.36589135e+02
437             	3.36588536e+02
438             	3.36588055e+02
439             	3.36587333e+02
440             	3.36586379e+02
441             	3.36585314e+02
442             	3.36584330e+02
443             	3.36583454e+02
444             	3.36582716e+02
445             	3.36582196e+02
446             	3.36581953e+02
447             	3.36581992e+02
448             	3.36582234e+02
449             	3.36582665e+02
450             	3.36583188e+02
451             	3.36583865e+02
452             	3.36584656e+02
453             	3.36585518e+02
454             	3.36585792e+02
455             	3.36586169e+02
456             	3.36586739e+02
457             	3.36587340e+02
458             	3.36587812e+02
459             	3.36587851e+02
460             	3.36587887e+02
461             	3.36587946e+02
462             	3.36587830e+02
463             	3.36587959e+02
464             	3.36587804e+02
465             	3.36587254e+02
466             	3.36586444e+02
467             	3.36585663e+02
468             	3.36584961e+02
469             	3.36584355e+02
470             	3.36583927e+02
471             	3.36583708e+02
472             	3.36583794e+02
473             	3.36584280e+02
474             	3.36585179e+02
475             	3.36586432e+02
476             	3.36587954e+02
477             	3.36589664e+02
478             	3.36591483e+02
479             	3.36593356e+02
480             	3.36595151e+02
481             	3.36596827e+02
482             	3.36598342e+02
483             	3.36599666e+02
484             	3.36600777e+02
485             	3.36601657e+02
486             	3.36602307e+02
487             	3.36602716e+02
488             	3.36602874e+02
489             	3.36602795e+02
490             	3.36602472e+02
491             	3.36601878e+02
492             	3.36600822e+02
493             	3.36599630e+02
494             	3.36598305e+02
495             	3.36597048e+02
496             	3.36595801e+02
497             	3.36594694e+02
498             	3.36593850e+02
499             	3.36593437e+02
500             	3.36593276e+02
501             	3.36593341e+02
502             	3.36593591e+02
503             	3.36593910e+02
504             	3.36594158e+02
505             	3.36594263e+02
506             	3.36594190e+02
507             	3.36593944e+02
508             	3.36593565e+02
509             	3.36593112e+02
510             	3.36592654e+02
511             	3.36592250e+02
512             	3.36591932e+02
513             	3.36591707e+02
514             	3.36591568e+02
515             	3.36591508e+02
516             	3.36591502e+02
517             	3.36591547e+02
518             	3.36591640e+02
519             	3.36591783e+02
520             	3.36592046e+02
521             	3.36592432e+02
522             	3.36592930e+02
523             	3.36593465e+02
524             	3.36593988e+02
525             	3.36594446e+02
526             	3.36594750e+02
527             	3.36594870e+02
528             	3.36594621e+02
529             	3.36593882e+02
530             	3.36593059e+02
531             	3.36592242e+02
532             	3.36591416e+02
533             	3.36590584e+02
534             	3.36589887e+02
535             	3.36589530e+02
536             	3.36589523e+02
537             	3.36590082e+02
538             	3.36590763e+02
539             	3.36591479e+02
540             	3.36592269e+02
541             	3.36592819e+02
542             	3.36593331e+02
543             	3.36593754e+02
544             	3.36594008e+02
545             	3.36594029e+02
546             	3.36593672e+02
547             	3.36593292e+02
548             	3.36592935e+02
549             	3.36592369e+02
550             	3.36591574e+02
551             	3.36590577e+02
552             	3.36589511e+02
553             	3.36588397e+02
554             	3.36587076e+02
555             	3.36585609e+02
556             	3.36584277e+02
557             	3.36583148e+02
558             	3.36582377e+02
559             	3.36581877e+02
560             	3.36581845e+02
561             	3.36582329e+02
562             	3.36583250e+02
563             	3.36584583e+02
564             	3.36586060e+02
565             	3.36587575e+02
566             	3.36589006e+02
567             	3.36590070e+02
568             	3.36590863e+02
569             	3.36591410e+02
570             	3.36591576e+02
571             	3.36591310e+02
572             	3.36590549e+02
573             	3.36589372e+02
574             	3.36587998e+02
575             	3.36586578e+02
576             	3.36585176e+02
577             	3.36583969e+02
578             	3.36582813e+02
579             	3.36581811e+02
580             	3.36581125e+02
581             	3.36580801e+02
582             	3.36580843e+02
583             	3.36581128e+02
584             	3.36581774e+02
585             	3.36582626e+02
586             	3.36583669e+02
587             	3.36584710e+02
588             	3.36585685e+02
589             	3.36586546e+02
590             	3.36587237e+02
591             	3.36587717e+02
592             	3.36587908e+02
593             	3.36587848e+02
594             	3.36587569e+02
595             	3.36587061e+02
596             	3.36586413e+02
597             	3.36585661e+02
598             	3.36584850e+02
599             	3.36583942e+02
600             	3.36582999e+02
601             	3.36582134e+02
602             	3.36581397e+02
603             	3.36580840e+02
604             	3.36580518e+02
605             	3.36580269e+02
606             	3.36580111e+02
607             	3.36580128e+02
608             	3.36580345e+02
609             	3.36580718e+02
610             	3.36581005e+02
611             	3.36581308e+02
612             	3.36581577e+02
613             	3.36581739e+02
614             	3.36581751e+02
615             	3.36581597e+02
616             	3.36581319e+02
617             	3.36580943e+02
618             	3.36580451e+02
619             	3.36579865e+02
620             	3.36579221e+02
621             	3.36578563e+02
