# Region        : cellZone component_3
# Cells         : 228
# Volume        : 4.66650284e-01
# Time          	volAverage(T)
1               	3.00161220e+02
2               	3.00320817e+02
3               	3.00470147e+02
4               	3.00612175e+02
5               	3.00749741e+02
6               	3.00883734e+02
7               	3.01014774e+02
8               	3.01143538e+02
9               	3.01270811e+02
10              	3.01396016e+02
11              	3.01519922e+02
12              	3.01642396e+02
13              	3.01763384e+02
14              	3.01881645e+02
15              	3.01998977e+02
16              	3.02113498e+02
17              	3.02227266e+02
18              	3.02339062e+02
19              	3.02448875e+02
20              	3.02558931e+02
21              	3.02665747e+02
22              	3.02769430e+02
23              	3.02869300e+02
24              	3.02967096e+02
25              	3.03060853e+02
26              	3.03154890e+02
27              	3.03246980e+02
28              	3.03338168e+02
29              	3.03430954e+02
30              	3.03523456e+02
31              	3.03612775e+02
32              	3.03698886e+02
33              	3.03782081e+02
34              	3.03862820e+02
35              	3.03944376e+02
36              	3.04025460e+02
37              	3.04103643e+02
38              	3.04179900e+02
39              	3.04252921e+02
40              	3.04321899e+02
41              	3.04387143e+02
42              	3.04448729e+02
43              	3.04510510e+02
44              	3.04573628e+02
45              	3.04635845e+02
46              	3.04701166e+02
47              	3.04761765e+02
48              	3.04817582e+02
49              	3.04864541e+02
50              	3.04907963e+02
51              	3.04953151e+02
52              	3.04999301e+02
53              	3.05045838e+02
54              	3.05089641e+02
55              	3.05133741e+02
56              	3.05173586e+02
57              	3.05212530e+02
58              	3.05251796e+02
59              	3.05289815e+02
60              	3.05331705e+02
61              	3.05375124e+02
62              	3.05420099e+02
63              	3.05463826e+02
64              	3.05487442e+02
65              	3.05511567e+02
66              	3.05537229e+02
67              	3.05564215e+02
68              	3.05590797e+02
69              	3.05616307e+02
70              	3.05641291e+02
71              	3.05666226e+02
72              	3.05690077e+02
73              	3.05713746e+02
74              	3.05736518e+02
75              	3.05759167e+02
76              	3.05782531e+02
77              	3.05805060e+02
78              	3.05827870e+02
79              	3.05850239e+02
80              	3.05872433e+02
81              	3.05894266e+02
82              	3.05916331e+02
83              	3.05937723e+02
84              	3.05958611e+02
85              	3.05978923e+02
86              	3.05998552e+02
87              	3.06018415e+02
88              	3.06037453e+02
89              	3.06056699e+02
90              	3.06074647e+02
91              	3.06092933e+02
92              	3.06111475e+02
93              	3.06129945e+02
94              	3.06147814e+02
95              	3.06165841e+02
96              	3.06174706e+02
97              	3.06184451e+02
98              	3.06196257e+02
99              	3.06208462e+02
100             	3.06220683e+02
101             	3.06232366e+02
102             	3.06243246e+02
103             	3.06253411e+02
104             	3.06263250e+02
105             	3.06272413e+02
106             	3.06281445e+02
107             	3.06290402e+02
108             	3.06299375e+02
109             	3.06308694e+02
110             	3.06318166e+02
111             	3.06328070e+02
112             	3.06337719e+02
113             	3.06347168e+02
114             	3.06356671e+02
115             	3.06366001e+02
116             	3.06375141e+02
117             	3.06383918e+02
118             	3.06392397e+02
119             	3.06400625e+02
120             	3.06408854e+02
121             	3.06416608e+02
122             	3.06424309e+02
123             	3.06431741e+02
124             	3.06438967e+02
125             	3.06446022e+02
126             	3.06453034e+02
127             	3.06459966e+02
128             	3.06467094e+02
129             	3.06474111e+02
130             	3.06481449e+02
131             	3.06489022e+02
132             	3.06496678e+02
133             	3.06504328e+02
134             	3.06511895e+02
135             	3.06519116e+02
136             	3.06526157e+02
137             	3.06532933e+02
138             	3.06539275e+02
139             	3.06545170e+02
140             	3.06550728e+02
141             	3.06556065e+02
142             	3.06561256e+02
143             	3.06566369e+02
144             	3.06571465e+02
145             	3.06576554e+02
146             	3.06581653e+02
147             	3.06586856e+02
148             	3.06592081e+02
149             	3.06597281e+02
150             	3.06602453e+02
151             	3.06607583e+02
152             	3.06612616e+02
153             	3.06617493e+02
154             	3.06622210e+02
155             	3.06626748e+02
156             	3.06631091e+02
157             	3.06635233e+02
158             	3.06639162e+02
159             	3.06642879e+02
160             	3.06646406e+02
161             	3.06649778e+02
162             	3.06653116e+02
163             	3.06656457e+02
164             	3.06659703e+02
165             	3.06662966e+02
166             	3.06666283e+02
167             	3.06669643e+02
168             	3.06673069e+02
169             	3.06676579e+02
170             	3.06680148e+02
171             	3.06683798e+02
172             	3.06687543e+02
173             	3.06691364e+02
174             	3.06695149e+02
175             	3.06699028e+02
176             	3.06702964e+02
177             	3.06706911e+02
178             	3.06710829e+02
179             	3.06714668e+02
180             	3.06718392e+02
181             	3.06721946e+02
182             	3.06725382e+02
183             	3.06728688e+02
184             	3.06731870e+02
185             	3.06734992e+02
186             	3.06737967e+02
187             	3.06740827e+02
188             	3.06743604e+02
189             	3.06746329e+02
190             	3.06749028e+02
191             	3.06751711e+02
192             	3.06754391e+02
193             	3.06757082e+02
194             	3.06759789e+02
195             	3.06762511e+02
196             	3.06765244e+02
197             	3.06768025e+02
198             	3.06770843e+02
199             	3.06773584e+02
200             	3.06776331e+02
201             	3.06779051e+02
202             	3.06781731e+02
203             	3.06784345e+02
204             	3.06786883e+02
205             	3.06789341e+02
206             	3.06791703e+02
207             	3.06793977e+02
208             	3.06796155e+02
209             	3.06798312e+02
210             	3.06800445e+02
211             	3.06802574e+02
212             	3.06804710e+02
213             	3.06806840e+02
214             	3.06808960e+02
215             	3.06811065e+02
216             	3.06813188e+02
217             	3.06815352e+02
218             	3.06817551e+02
219             	3.06819781e+02
220             	3.06822033e+02
221             	3.06824261e+02
222             	3.06826549e+02
223             	3.06828885e+02
224             	3.06831223e+02
225             	3.06833553e+02
226             	3.06835846e+02
227             	3.06838085e+02
228             	3.06840254e+02
229             	3.06842357e+02
230             	3.06844384e+02
231             	3.06846335e+02
232             	3.06848203e+02
233             	3.06850006e+02
234             	3.06851740e+02
235             	3.06853432e+02
236             	3.06855135e+02
237             	3.06856846e+02
238             	3.06858557e+02
239             	3.06860275e+02
240             	3.06862007e+02
241             	3.06863759e+02
242             	3.06865476e+02
243             	3.06867217e+02
244             	3.06868982e+02
245             	3.06870725e+02
246             	3.06872457e+02
247             	3.06874166e+02
248             	3.06875839e+02
249             	3.06877459e+02
250             	3.06879016e+02
251             	3.06880513e+02
252             	3.06881946e+02
253             	3.06883293e+02
254             	3.06884588e+02
255             	3.06885856e+02
256             	3.06887101e+02
257             	3.06888318e+02
258             	3.06889521e+02
259             	3.06890722e+02
260             	3.06891938e+02
261             	3.06893180e+02
262             	3.06894455e+02
263             	3.06895771e+02
264             	3.06897126e+02
265             	3.06898517e+02
266             	3.06899945e+02
267             	3.06901398e+02
268             	3.06902828e+02
269             	3.06904291e+02
270             	3.06905765e+02
271             	3.06907216e+02
272             	3.06908639e+02
273             	3.06910026e+02
274             	3.06911368e+02
275             	3.06912662e+02
276             	3.06913926e+02
277             	3.06915100e+02
278             	3.06916230e+02
279             	3.06917307e+02
280             	3.06918339e+02
281             	3.06919342e+02
282             	3.06920327e+02
283             	3.06921306e+02
284             	3.06922292e+02
285             	3.06923295e+02
286             	3.06924322e+02
287             	3.06925372e+02
288             	3.06926441e+02
289             	3.06927540e+02
290             	3.06928642e+02
291             	3.06929768e+02
292             	3.06930882e+02
293             	3.06932002e+02
294             	3.06933124e+02
295             	3.06934243e+02
296             	3.06935344e+02
297             	3.06936414e+02
298             	3.06937445e+02
299             	3.06938433e+02
300             	3.06939380e+02
301             	3.06940287e+02
302             	3.06941154e+02
303             	3.06941985e+02
304             	3.06942790e+02
305             	3.06943573e+02
306             	3.06944335e+02
307             	3.06945080e+02
308             	3.06945824e+02
309             	3.06946574e+02
310             	3.06947326e+02
311             	3.06948081e+02
312             	3.06948851e+02
313             	3.06949638e+02
314             	3.06950435e+02
315             	3.06951246e+02
316             	3.06952073e+02
317             	3.06952919e+02
318             	3.06953785e+02
319             	3.06954662e+02
320             	3.06955550e+02
321             	3.06956446e+02
322             	3.06957355e+02
323             	3.06958262e+02
324             	3.06959158e+02
325             	3.06960038e+02
326             	3.06960899e+02
327             	3.06961732e+02
328             	3.06962544e+02
329             	3.06963331e+02
330             	3.06964098e+02
331             	3.06964850e+02
332             	3.06965595e+02
333             	3.06966340e+02
334             	3.06967073e+02
335             	3.06967777e+02
336             	3.06968492e+02
337             	3.06969220e+02
338             	3.06969942e+02
339             	3.06970651e+02
340             	3.06971339e+02
341             	3.06972002e+02
342             	3.06972639e+02
343             	3.06973247e+02
344             	3.06973826e+02
345             	3.06974381e+02
346             	3.06974918e+02
347             	3.06975444e+02
348             	3.06975967e+02
349             	3.06976496e+02
350             	3.06977039e+02
351             	3.06977604e+02
352             	3.06978196e+02
353             	3.06978817e+02
354             	3.06979469e+02
355             	3.06980151e+02
356             	3.06980859e+02
357             	3.06981585e+02
358             	3.06982325e+02
359             	3.06983073e+02
360             	3.06983823e+02
361             	3.06984567e+02
362             	3.06985301e+02
363             	3.06986019e+02
364             	3.06986710e+02
365             	3.06987372e+02
366             	3.06988008e+02
367             	3.06988614e+02
368             	3.06989183e+02
369             	3.06989724e+02
370             	3.06990236e+02
371             	3.06990716e+02
372             	3.06991182e+02
373             	3.06991626e+02
374             	3.06992062e+02
375             	3.06992490e+02
376             	3.06992916e+02
377             	3.06993339e+02
378             	3.06993765e+02
379             	3.06994210e+02
380             	3.06994657e+02
381             	3.06995109e+02
382             	3.06995568e+02
383             	3.06996038e+02
384             	3.06996517e+02
385             	3.06997000e+02
386             	3.06997482e+02
387             	3.06997960e+02
388             	3.06998432e+02
389             	3.06998897e+02
390             	3.06999356e+02
391             	3.06999810e+02
392             	3.07000258e+02
393             	3.07000699e+02
394             	3.07001115e+02
395             	3.07001522e+02
396             	3.07001923e+02
397             	3.07002307e+02
398             	3.07002667e+02
399             	3.07002997e+02
400             	3.07003297e+02
401             	3.07003559e+02
402             	3.07003808e+02
403             	3.07004036e+02
404             	3.07004244e+02
405             	3.07004442e+02
406             	3.07004623e+02
407             	3.07004799e+02
408             	3.07004987e+02
409             	3.07005184e+02
410             	3.07005407e+02
411             	3.07005661e+02
412             	3.07005947e+02
413             	3.07006265e+02
414             	3.07006610e+02
415             	3.07006981e+02
416             	3.07007372e+02
417             	3.07007775e+02
418             	3.07008191e+02
419             	3.07008611e+02
420             	3.07009031e+02
421             	3.07009440e+02
422             	3.07009846e+02
423             	3.07010250e+02
424             	3.07010644e+02
425             	3.07011008e+02
426             	3.07011362e+02
427             	3.07011706e+02
428             	3.07012027e+02
429             	3.07012321e+02
430             	3.07012585e+02
431             	3.07012817e+02
432             	3.07013020e+02
433             	3.07013204e+02
434             	3.07013382e+02
435             	3.07013545e+02
436             	3.07013682e+02
437             	3.07013809e+02
438             	3.07013975e+02
439             	3.07014172e+02
440             	3.07014389e+02
441             	3.07014629e+02
442             	3.07014904e+02
443             	3.07015215e+02
444             	3.07015562e+02
445             	3.07015941e+02
446             	3.07016345e+02
447             	3.07016774e+02
448             	3.07017228e+02
449             	3.07017707e+02
450             	3.07018218e+02
451             	3.07018756e+02
452             	3.07019316e+02
453             	3.07019885e+02
454             	3.07020456e+02
455             	3.07021015e+02
456             	3.07021563e+02
457             	3.07022093e+02
458             	3.07022584e+02
459             	3.07023034e+02
460             	3.07023433e+02
461             	3.07023778e+02
462             	3.07024067e+02
463             	3.07024306e+02
464             	3.07024498e+02
465             	3.07024648e+02
466             	3.07024762e+02
467             	3.07024839e+02
468             	3.07024907e+02
469             	3.07024971e+02
470             	3.07025034e+02
471             	3.07025100e+02
472             	3.07025176e+02
473             	3.07025264e+02
474             	3.07025364e+02
475             	3.07025475e+02
476             	3.07025598e+02
477             	3.07025729e+02
478             	3.07025865e+02
479             	3.07026003e+02
480             	3.07026141e+02
481             	3.07026275e+02
482             	3.07026403e+02
483             	3.07026525e+02
484             	3.07026643e+02
485             	3.07026763e+02
486             	3.07026890e+02
487             	3.07027032e+02
488             	3.07027177e+02
489             	3.07027331e+02
490             	3.07027500e+02
491             	3.07027688e+02
492             	3.07027897e+02
493             	3.07028128e+02
494             	3.07028381e+02
495             	3.07028636e+02
496             	3.07028895e+02
497             	3.07029166e+02
498             	3.07029437e+02
499             	3.07029699e+02
500             	3.07029941e+02
501             	3.07030152e+02
502             	3.07030314e+02
503             	3.07030431e+02
504             	3.07030528e+02
505             	3.07030597e+02
506             	3.07030637e+02
507             	3.07030648e+02
508             	3.07030629e+02
509             	3.07030600e+02
510             	3.07030572e+02
511             	3.07030542e+02
512             	3.07030502e+02
513             	3.07030462e+02
514             	3.07030434e+02
515             	3.07030417e+02
516             	3.07030406e+02
517             	3.07030399e+02
518             	3.07030394e+02
519             	3.07030385e+02
520             	3.07030369e+02
521             	3.07030345e+02
522             	3.07030311e+02
523             	3.07030266e+02
524             	3.07030201e+02
525             	3.07030149e+02
526             	3.07030121e+02
527             	3.07030100e+02
528             	3.07030088e+02
529             	3.07030087e+02
530             	3.07030089e+02
531             	3.07030112e+02
532             	3.07030170e+02
533             	3.07030248e+02
534             	3.07030340e+02
535             	3.07030442e+02
536             	3.07030558e+02
537             	3.07030657e+02
538             	3.07030737e+02
539             	3.07030803e+02
540             	3.07030861e+02
541             	3.07030915e+02
542             	3.07030971e+02
543             	3.07031038e+02
544             	3.07031119e+02
545             	3.07031218e+02
546             	3.07031335e+02
547             	3.07031465e+02
548             	3.07031575e+02
549             	3.07031685e+02
550             	3.07031808e+02
551             	3.07031925e+02
552             	3.07032055e+02
553             	3.07032182e+02
554             	3.07032306e+02
555             	3.07032403e+02
556             	3.07032466e+02
557             	3.07032505e+02
558             	3.07032534e+02
559             	3.07032567e+02
560             	3.07032615e+02
561             	3.07032681e+02
562             	3.07032768e+02
563             	3.07032875e+02
564             	3.07033002e+02
565             	3.07033147e+02
566             	3.07033300e+02
567             	3.07033455e+02
568             	3.07033621e+02
569             	3.07033787e+02
570             	3.07033937e+02
571             	3.07034066e+02
572             	3.07034175e+02
573             	3.07034263e+02
574             	3.07034332e+02
575             	3.07034383e+02
576             	3.07034422e+02
577             	3.07034459e+02
578             	3.07034496e+02
579             	3.07034539e+02
580             	3.07034591e+02
581             	3.07034659e+02
582             	3.07034746e+02
583             	3.07034854e+02
584             	3.07034982e+02
585             	3.07035124e+02
586             	3.07035276e+02
587             	3.07035434e+02
588             	3.07035572e+02
589             	3.07035706e+02
590             	3.07035829e+02
591             	3.07035933e+02
592             	3.07036009e+02
593             	3.07036054e+02
594             	3.07036067e+02
595             	3.07036049e+02
596             	3.07036005e+02
597             	3.07035939e+02
598             	3.07035856e+02
599             	3.07035764e+02
600             	3.07035671e+02
601             	3.07035582e+02
602             	3.07035502e+02
603             	3.07035437e+02
604             	3.07035389e+02
605             	3.07035365e+02
606             	3.07035353e+02
607             	3.07035355e+02
608             	3.07035371e+02
609             	3.07035395e+02
610             	3.07035425e+02
611             	3.07035463e+02
612             	3.07035511e+02
613             	3.07035565e+02
614             	3.07035623e+02
615             	3.07035685e+02
616             	3.07035767e+02
617             	3.07035857e+02
618             	3.07035951e+02
619             	3.07036055e+02
620             	3.07036175e+02
621             	3.07036312e+02
