# Region        : cellZone component_2
# Cells         : 150
# Volume        : 2.72285159e-01
# Time          	volAverage(T)
1               	3.00333185e+02
2               	3.00661522e+02
3               	3.00972573e+02
4               	3.01272461e+02
5               	3.01565581e+02
6               	3.01853848e+02
7               	3.02138939e+02
8               	3.02423155e+02
9               	3.02706267e+02
10              	3.02986606e+02
11              	3.03262193e+02
12              	3.03531168e+02
13              	3.03795312e+02
14              	3.04054046e+02
15              	3.04310499e+02
16              	3.04569730e+02
17              	3.04825767e+02
18              	3.05077371e+02
19              	3.05325663e+02
20              	3.05572167e+02
21              	3.05815113e+02
22              	3.06058828e+02
23              	3.06288405e+02
24              	3.06499847e+02
25              	3.06702823e+02
26              	3.06908971e+02
27              	3.07126826e+02
28              	3.07344990e+02
29              	3.07561983e+02
30              	3.07775585e+02
31              	3.07993194e+02
32              	3.08208828e+02
33              	3.08418541e+02
34              	3.08621681e+02
35              	3.08809450e+02
36              	3.08991665e+02
37              	3.09174390e+02
38              	3.09359094e+02
39              	3.09546230e+02
40              	3.09733588e+02
41              	3.09919715e+02
42              	3.10101552e+02
43              	3.10278791e+02
44              	3.10447968e+02
45              	3.10612367e+02
46              	3.10773532e+02
47              	3.10932345e+02
48              	3.11090346e+02
49              	3.11247019e+02
50              	3.11400662e+02
51              	3.11549827e+02
52              	3.11699549e+02
53              	3.11840267e+02
54              	3.11962292e+02
55              	3.12084165e+02
56              	3.12206306e+02
57              	3.12327534e+02
58              	3.12446630e+02
59              	3.12539965e+02
60              	3.12626541e+02
61              	3.12721946e+02
62              	3.12821822e+02
63              	3.12922774e+02
64              	3.13020123e+02
65              	3.13116903e+02
66              	3.13210431e+02
67              	3.13301991e+02
68              	3.13391213e+02
69              	3.13477957e+02
70              	3.13561833e+02
71              	3.13645967e+02
72              	3.13729818e+02
73              	3.13814301e+02
74              	3.13899018e+02
75              	3.13983306e+02
76              	3.14064348e+02
77              	3.14146596e+02
78              	3.14226114e+02
79              	3.14304425e+02
80              	3.14380233e+02
81              	3.14453093e+02
82              	3.14523421e+02
83              	3.14591873e+02
84              	3.14659220e+02
85              	3.14726962e+02
86              	3.14794321e+02
87              	3.14863205e+02
88              	3.14932174e+02
89              	3.15000400e+02
90              	3.15065663e+02
91              	3.15130818e+02
92              	3.15195024e+02
93              	3.15257054e+02
94              	3.15315337e+02
95              	3.15372116e+02
96              	3.15427061e+02
97              	3.15483624e+02
98              	3.15539934e+02
99              	3.15597938e+02
100             	3.15656414e+02
101             	3.15717078e+02
102             	3.15775989e+02
103             	3.15833966e+02
104             	3.15890667e+02
105             	3.15945434e+02
106             	3.15995279e+02
107             	3.16041424e+02
108             	3.16084782e+02
109             	3.16127911e+02
110             	3.16171247e+02
111             	3.16217821e+02
112             	3.16273266e+02
113             	3.16327311e+02
114             	3.16379963e+02
115             	3.16435507e+02
116             	3.16498788e+02
117             	3.16560488e+02
118             	3.16618065e+02
119             	3.16673889e+02
120             	3.16727521e+02
121             	3.16780181e+02
122             	3.16817076e+02
123             	3.16850997e+02
124             	3.16889045e+02
125             	3.16935433e+02
126             	3.16982327e+02
127             	3.17022592e+02
128             	3.17059653e+02
129             	3.17102774e+02
130             	3.17143354e+02
131             	3.17177277e+02
132             	3.17208118e+02
133             	3.17239227e+02
134             	3.17273529e+02
135             	3.17309306e+02
136             	3.17344994e+02
137             	3.17382169e+02
138             	3.17421411e+02
139             	3.17463522e+02
140             	3.17509060e+02
141             	3.17554177e+02
142             	3.17595399e+02
143             	3.17633477e+02
144             	3.17669667e+02
145             	3.17703885e+02
146             	3.17734703e+02
147             	3.17765494e+02
148             	3.17795176e+02
149             	3.17822832e+02
150             	3.17850060e+02
151             	3.17879256e+02
152             	3.17914443e+02
153             	3.17954034e+02
154             	3.17997081e+02
155             	3.18037607e+02
156             	3.18073269e+02
157             	3.18100221e+02
158             	3.18124614e+02
159             	3.18149324e+02
160             	3.18172979e+02
161             	3.18193814e+02
162             	3.18214536e+02
163             	3.18237946e+02
164             	3.18264832e+02
165             	3.18294770e+02
166             	3.18328489e+02
167             	3.18363685e+02
168             	3.18397421e+02
169             	3.18430066e+02
170             	3.18463981e+02
171             	3.18496057e+02
172             	3.18525971e+02
173             	3.18554793e+02
174             	3.18583923e+02
175             	3.18614355e+02
176             	3.18645586e+02
177             	3.18678179e+02
178             	3.18711961e+02
179             	3.18746093e+02
180             	3.18778902e+02
181             	3.18809478e+02
182             	3.18838538e+02
183             	3.18866223e+02
184             	3.18892388e+02
185             	3.18917491e+02
186             	3.18941734e+02
187             	3.18966601e+02
188             	3.18990959e+02
189             	3.19017570e+02
190             	3.19045937e+02
191             	3.19075143e+02
192             	3.19103225e+02
193             	3.19127847e+02
194             	3.19147953e+02
195             	3.19166834e+02
196             	3.19184818e+02
197             	3.19201581e+02
198             	3.19216796e+02
199             	3.19231836e+02
200             	3.19248380e+02
201             	3.19266629e+02
202             	3.19288401e+02
203             	3.19309037e+02
204             	3.19330362e+02
205             	3.19351433e+02
206             	3.19371951e+02
207             	3.19391688e+02
208             	3.19410047e+02
209             	3.19427425e+02
210             	3.19444068e+02
211             	3.19460415e+02
212             	3.19477102e+02
213             	3.19494330e+02
214             	3.19512247e+02
215             	3.19530815e+02
216             	3.19549827e+02
217             	3.19568802e+02
218             	3.19587769e+02
219             	3.19606703e+02
220             	3.19625237e+02
221             	3.19643307e+02
222             	3.19660660e+02
223             	3.19677802e+02
224             	3.19694825e+02
225             	3.19711826e+02
226             	3.19728710e+02
227             	3.19745262e+02
228             	3.19761617e+02
229             	3.19777579e+02
230             	3.19793257e+02
231             	3.19808871e+02
232             	3.19824476e+02
233             	3.19840062e+02
234             	3.19855743e+02
235             	3.19871105e+02
236             	3.19885448e+02
237             	3.19899480e+02
238             	3.19912712e+02
239             	3.19925739e+02
240             	3.19938648e+02
241             	3.19951062e+02
242             	3.19962984e+02
243             	3.19975251e+02
244             	3.19987789e+02
245             	3.20000153e+02
246             	3.20012977e+02
247             	3.20026241e+02
248             	3.20039773e+02
249             	3.20052837e+02
250             	3.20065579e+02
251             	3.20078186e+02
252             	3.20090321e+02
253             	3.20101989e+02
254             	3.20113238e+02
255             	3.20124212e+02
256             	3.20134939e+02
257             	3.20145603e+02
258             	3.20156278e+02
259             	3.20166843e+02
260             	3.20177549e+02
261             	3.20188386e+02
262             	3.20199210e+02
263             	3.20209978e+02
264             	3.20220663e+02
265             	3.20231344e+02
266             	3.20241681e+02
267             	3.20251866e+02
268             	3.20261916e+02
269             	3.20271992e+02
270             	3.20281586e+02
271             	3.20291283e+02
272             	3.20301037e+02
273             	3.20310765e+02
274             	3.20320428e+02
275             	3.20329877e+02
276             	3.20339371e+02
277             	3.20348441e+02
278             	3.20357552e+02
279             	3.20366541e+02
280             	3.20375377e+02
281             	3.20384183e+02
282             	3.20392996e+02
283             	3.20401632e+02
284             	3.20410257e+02
285             	3.20418907e+02
286             	3.20427528e+02
287             	3.20436014e+02
288             	3.20444316e+02
289             	3.20452373e+02
290             	3.20460245e+02
291             	3.20467840e+02
292             	3.20475202e+02
293             	3.20482369e+02
294             	3.20489381e+02
295             	3.20496217e+02
296             	3.20502803e+02
297             	3.20509637e+02
298             	3.20516253e+02
299             	3.20522570e+02
300             	3.20528799e+02
301             	3.20535217e+02
302             	3.20541576e+02
303             	3.20547819e+02
304             	3.20553996e+02
305             	3.20560140e+02
306             	3.20566342e+02
307             	3.20572445e+02
308             	3.20578552e+02
309             	3.20584687e+02
310             	3.20590806e+02
311             	3.20596852e+02
312             	3.20602745e+02
313             	3.20608561e+02
314             	3.20614352e+02
315             	3.20620021e+02
316             	3.20625620e+02
317             	3.20631137e+02
318             	3.20636609e+02
319             	3.20642022e+02
320             	3.20647409e+02
321             	3.20652652e+02
322             	3.20657952e+02
323             	3.20663174e+02
324             	3.20668469e+02
325             	3.20673720e+02
326             	3.20678865e+02
327             	3.20683917e+02
328             	3.20688919e+02
329             	3.20693807e+02
330             	3.20698641e+02
331             	3.20703487e+02
332             	3.20708453e+02
333             	3.20713283e+02
334             	3.20718081e+02
335             	3.20722845e+02
336             	3.20727496e+02
337             	3.20732085e+02
338             	3.20736462e+02
339             	3.20740561e+02
340             	3.20744658e+02
341             	3.20748717e+02
342             	3.20752673e+02
343             	3.20756549e+02
344             	3.20760392e+02
345             	3.20764240e+02
346             	3.20768133e+02
347             	3.20771974e+02
348             	3.20775750e+02
349             	3.20779479e+02
350             	3.20783195e+02
351             	3.20786874e+02
352             	3.20790520e+02
353             	3.20794134e+02
354             	3.20797718e+02
355             	3.20801272e+02
356             	3.20804797e+02
357             	3.20808292e+02
358             	3.20811733e+02
359             	3.20815133e+02
360             	3.20818505e+02
361             	3.20821834e+02
362             	3.20825116e+02
363             	3.20828347e+02
364             	3.20831528e+02
365             	3.20834662e+02
366             	3.20837746e+02
367             	3.20840799e+02
368             	3.20843824e+02
369             	3.20846816e+02
370             	3.20849788e+02
371             	3.20852737e+02
372             	3.20855666e+02
373             	3.20858529e+02
374             	3.20861359e+02
375             	3.20864174e+02
376             	3.20866949e+02
377             	3.20869678e+02
378             	3.20872354e+02
379             	3.20874985e+02
380             	3.20877562e+02
381             	3.20880093e+02
382             	3.20882579e+02
383             	3.20885023e+02
384             	3.20887440e+02
385             	3.20889833e+02
386             	3.20892218e+02
387             	3.20894587e+02
388             	3.20896944e+02
389             	3.20899281e+02
390             	3.20901604e+02
391             	3.20903912e+02
392             	3.20906188e+02
393             	3.20908440e+02
394             	3.20910667e+02
395             	3.20912864e+02
396             	3.20915034e+02
397             	3.20917177e+02
398             	3.20919294e+02
399             	3.20921384e+02
400             	3.20923446e+02
401             	3.20925481e+02
402             	3.20927485e+02
403             	3.20929461e+02
404             	3.20931415e+02
405             	3.20933344e+02
406             	3.20935252e+02
407             	3.20937144e+02
408             	3.20939019e+02
409             	3.20940879e+02
410             	3.20942718e+02
411             	3.20944531e+02
412             	3.20946321e+02
413             	3.20948090e+02
414             	3.20949833e+02
415             	3.20951549e+02
416             	3.20953237e+02
417             	3.20954899e+02
418             	3.20956537e+02
419             	3.20958151e+02
420             	3.20959742e+02
421             	3.20961311e+02
422             	3.20962862e+02
423             	3.20964393e+02
424             	3.20965907e+02
425             	3.20967405e+02
426             	3.20968887e+02
427             	3.20970354e+02
428             	3.20971806e+02
429             	3.20973244e+02
430             	3.20974668e+02
431             	3.20976081e+02
432             	3.20977476e+02
433             	3.20978855e+02
434             	3.20980222e+02
435             	3.20981575e+02
436             	3.20982912e+02
437             	3.20984232e+02
438             	3.20985537e+02
439             	3.20986832e+02
440             	3.20988115e+02
441             	3.20989387e+02
442             	3.20990650e+02
443             	3.20991900e+02
444             	3.20993137e+02
445             	3.20994361e+02
446             	3.20995569e+02
447             	3.20996761e+02
448             	3.20997934e+02
449             	3.20999084e+02
450             	3.21000215e+02
451             	3.21001324e+02
452             	3.21002414e+02
453             	3.21003487e+02
454             	3.21004543e+02
455             	3.21005590e+02
456             	3.21006628e+02
457             	3.21007657e+02
458             	3.21008679e+02
459             	3.21009692e+02
460             	3.21010692e+02
461             	3.21011674e+02
462             	3.21012642e+02
463             	3.21013598e+02
464             	3.21014539e+02
465             	3.21015465e+02
466             	3.21016377e+02
467             	3.21017277e+02
468             	3.21018168e+02
469             	3.21019052e+02
470             	3.21019938e+02
471             	3.21020817e+02
472             	3.21021691e+02
473             	3.21022556e+02
474             	3.21023410e+02
475             	3.21024254e+02
476             	3.21025089e+02
477             	3.21025912e+02
478             	3.21026721e+02
479             	3.21027519e+02
480             	3.21028306e+02
481             	3.21029083e+02
482             	3.21029850e+02
483             	3.21030608e+02
484             	3.21031357e+02
485             	3.21032099e+02
486             	3.21032835e+02
487             	3.21033566e+02
488             	3.21034293e+02
489             	3.21035013e+02
490             	3.21035726e+02
491             	3.21036432e+02
492             	3.21037128e+02
493             	3.21037813e+02
494             	3.21038488e+02
495             	3.21039153e+02
496             	3.21039806e+02
497             	3.21040448e+02
498             	3.21041081e+02
499             	3.21041704e+02
500             	3.21042319e+02
501             	3.21042927e+02
502             	3.21043531e+02
503             	3.21044131e+02
504             	3.21044727e+02
505             	3.21045319e+02
506             	3.21045906e+02
507             	3.21046488e+02
508             	3.21047064e+02
509             	3.21047634e+02
510             	3.21048195e+02
511             	3.21048749e+02
512             	3.21049296e+02
513             	3.21049834e+02
514             	3.21050365e+02
515             	3.21050887e+02
516             	3.21051400e+02
517             	3.21051907e+02
518             	3.21052409e+02
519             	3.21052905e+02
520             	3.21053396e+02
521             	3.21053882e+02
522             	3.21054361e+02
523             	3.21054835e+02
524             	3.21055304e+02
525             	3.21055770e+02
526             	3.21056232e+02
527             	3.21056689e+02
528             	3.21057142e+02
529             	3.21057592e+02
530             	3.21058038e+02
531             	3.21058481e+02
532             	3.21058920e+02
533             	3.21059355e+02
534             	3.21059786e+02
535             	3.21060213e+02
536             	3.21060636e+02
537             	3.21061053e+02
538             	3.21061464e+02
539             	3.21061871e+02
540             	3.21062272e+02
541             	3.21062668e+02
542             	3.21063060e+02
543             	3.21063447e+02
544             	3.21063830e+02
545             	3.21064208e+02
546             	3.21064581e+02
547             	3.21064950e+02
548             	3.21065313e+02
549             	3.21065671e+02
550             	3.21066023e+02
551             	3.21066371e+02
552             	3.21066715e+02
553             	3.21067054e+02
554             	3.21067388e+02
555             	3.21067719e+02
556             	3.21068047e+02
557             	3.21068371e+02
558             	3.21068691e+02
559             	3.21069006e+02
560             	3.21069317e+02
561             	3.21069625e+02
562             	3.21069929e+02
563             	3.21070232e+02
564             	3.21070532e+02
565             	3.21070829e+02
566             	3.21071123e+02
567             	3.21071415e+02
568             	3.21071704e+02
569             	3.21071990e+02
570             	3.21072274e+02
571             	3.21072554e+02
572             	3.21072832e+02
573             	3.21073107e+02
574             	3.21073378e+02
575             	3.21073647e+02
576             	3.21073912e+02
577             	3.21074174e+02
578             	3.21074433e+02
579             	3.21074688e+02
580             	3.21074939e+02
581             	3.21075187e+02
582             	3.21075431e+02
583             	3.21075670e+02
584             	3.21075906e+02
585             	3.21076140e+02
586             	3.21076370e+02
587             	3.21076598e+02
588             	3.21076824e+02
589             	3.21077047e+02
590             	3.21077268e+02
591             	3.21077487e+02
592             	3.21077704e+02
593             	3.21077917e+02
594             	3.21078129e+02
595             	3.21078338e+02
596             	3.21078546e+02
597             	3.21078752e+02
598             	3.21078956e+02
599             	3.21079158e+02
600             	3.21079359e+02
601             	3.21079557e+02
602             	3.21079751e+02
603             	3.21079945e+02
604             	3.21080136e+02
605             	3.21080324e+02
606             	3.21080508e+02
607             	3.21080691e+02
608             	3.21080871e+02
609             	3.21081052e+02
610             	3.21081231e+02
611             	3.21081408e+02
612             	3.21081584e+02
613             	3.21081756e+02
614             	3.21081927e+02
615             	3.21082096e+02
616             	3.21082263e+02
617             	3.21082427e+02
618             	3.21082590e+02
619             	3.21082749e+02
620             	3.21082905e+02
621             	3.21083059e+02
