# Region        : cellZone component_3
# Cells         : 16
# Volume        : 2.67869211e-02
# Time          	volAverage(T)
1               	3.04512364e+02
2               	3.08853342e+02
3               	3.11748641e+02
4               	3.13810383e+02
5               	3.15766518e+02
6               	3.17744203e+02
7               	3.19639173e+02
8               	3.21363996e+02
9               	3.22964509e+02
10              	3.24406680e+02
11              	3.25749568e+02
12              	3.26866423e+02
13              	3.27885720e+02
14              	3.28863540e+02
15              	3.29772560e+02
16              	3.30626680e+02
17              	3.31224492e+02
18              	3.31752618e+02
19              	3.32234630e+02
20              	3.32714145e+02
21              	3.33206085e+02
22              	3.33794205e+02
23              	3.34468971e+02
24              	3.35090981e+02
25              	3.35601638e+02
26              	3.36111020e+02
27              	3.36454724e+02
28              	3.36743158e+02
29              	3.36668349e+02
30              	3.36551706e+02
31              	3.36422170e+02
32              	3.36244612e+02
33              	3.36127211e+02
34              	3.36051335e+02
35              	3.35849468e+02
36              	3.35629245e+02
37              	3.35347734e+02
38              	3.35108361e+02
39              	3.35084388e+02
40              	3.35158309e+02
41              	3.35413555e+02
42              	3.35739902e+02
43              	3.36115423e+02
44              	3.36306302e+02
45              	3.36388911e+02
46              	3.36472915e+02
47              	3.36438045e+02
48              	3.36290480e+02
49              	3.36120215e+02
50              	3.36025013e+02
51              	3.36076045e+02
52              	3.35948273e+02
53              	3.35690448e+02
54              	3.35638681e+02
55              	3.35733049e+02
56              	3.35824239e+02
57              	3.35895075e+02
58              	3.36002808e+02
59              	3.36258875e+02
60              	3.36448702e+02
61              	3.36562198e+02
62              	3.36401091e+02
63              	3.36443886e+02
64              	3.36474679e+02
65              	3.36342048e+02
66              	3.36163833e+02
67              	3.35991978e+02
68              	3.35977884e+02
69              	3.35962133e+02
70              	3.35964740e+02
71              	3.36130664e+02
72              	3.36281866e+02
73              	3.36401117e+02
74              	3.36456072e+02
75              	3.36638328e+02
76              	3.36944471e+02
77              	3.36950448e+02
78              	3.37116375e+02
79              	3.37195861e+02
80              	3.37035516e+02
81              	3.36783688e+02
82              	3.36586352e+02
83              	3.36425064e+02
84              	3.36394044e+02
85              	3.36298446e+02
86              	3.36315774e+02
87              	3.36397884e+02
88              	3.36454818e+02
89              	3.36545212e+02
90              	3.36667902e+02
91              	3.36786032e+02
92              	3.36772646e+02
93              	3.36676559e+02
94              	3.36600138e+02
95              	3.36357773e+02
96              	3.36184523e+02
97              	3.35895897e+02
98              	3.35789140e+02
99              	3.35857276e+02
100             	3.35930843e+02
101             	3.36018057e+02
102             	3.36026274e+02
103             	3.35908728e+02
104             	3.35938414e+02
105             	3.36001127e+02
106             	3.36116295e+02
107             	3.36267786e+02
108             	3.36258381e+02
109             	3.36236255e+02
110             	3.36088022e+02
111             	3.36088282e+02
112             	3.36134593e+02
113             	3.36189974e+02
114             	3.36315962e+02
115             	3.36502463e+02
116             	3.36706159e+02
117             	3.36962857e+02
118             	3.37289396e+02
119             	3.37668221e+02
120             	3.38083993e+02
121             	3.38481574e+02
122             	3.38760239e+02
123             	3.39000065e+02
124             	3.39016164e+02
125             	3.39018200e+02
126             	3.38965338e+02
127             	3.38893050e+02
128             	3.38806897e+02
129             	3.38628561e+02
130             	3.38673060e+02
131             	3.38814153e+02
132             	3.38924942e+02
133             	3.39108381e+02
134             	3.39263820e+02
135             	3.39333985e+02
136             	3.39332755e+02
137             	3.39353482e+02
138             	3.38993211e+02
139             	3.38750941e+02
140             	3.38543105e+02
141             	3.38379024e+02
142             	3.38200874e+02
143             	3.38029398e+02
144             	3.37855122e+02
145             	3.37731766e+02
146             	3.37732511e+02
147             	3.37800900e+02
148             	3.37917052e+02
149             	3.38090162e+02
150             	3.38317317e+02
151             	3.38494361e+02
152             	3.38620212e+02
153             	3.38584901e+02
154             	3.38601355e+02
155             	3.38571669e+02
156             	3.38563655e+02
157             	3.38502446e+02
158             	3.38488850e+02
159             	3.38512212e+02
160             	3.38452853e+02
161             	3.38566214e+02
162             	3.38736214e+02
163             	3.38874195e+02
164             	3.39051222e+02
165             	3.39254316e+02
166             	3.39556268e+02
167             	3.39879363e+02
168             	3.40237435e+02
169             	3.40591446e+02
170             	3.40606840e+02
171             	3.40654590e+02
172             	3.40779434e+02
173             	3.40660564e+02
174             	3.40593641e+02
175             	3.40567799e+02
176             	3.40533223e+02
177             	3.40410517e+02
178             	3.40275545e+02
179             	3.40250421e+02
180             	3.40271202e+02
181             	3.40317198e+02
182             	3.40436359e+02
183             	3.40545635e+02
184             	3.40618522e+02
185             	3.40438093e+02
186             	3.40378654e+02
187             	3.40454016e+02
188             	3.40339112e+02
189             	3.40212264e+02
190             	3.40312299e+02
191             	3.40484431e+02
192             	3.40626267e+02
193             	3.40689668e+02
194             	3.40738896e+02
195             	3.40814345e+02
196             	3.40946647e+02
197             	3.41136792e+02
198             	3.41357721e+02
199             	3.41620911e+02
200             	3.41639985e+02
201             	3.41750835e+02
202             	3.41888947e+02
203             	3.41758982e+02
204             	3.41708145e+02
205             	3.41760081e+02
206             	3.41669626e+02
207             	3.41537126e+02
208             	3.41484803e+02
209             	3.41469791e+02
210             	3.41510389e+02
211             	3.41622152e+02
212             	3.41738265e+02
213             	3.41847272e+02
214             	3.41778151e+02
215             	3.41801234e+02
216             	3.41587140e+02
217             	3.41526813e+02
218             	3.41574870e+02
219             	3.41464923e+02
220             	3.41447516e+02
221             	3.41474257e+02
222             	3.41461765e+02
223             	3.41477602e+02
224             	3.41547578e+02
225             	3.41650288e+02
226             	3.41752426e+02
227             	3.41845695e+02
228             	3.41940311e+02
229             	3.42014675e+02
230             	3.41893918e+02
231             	3.41910565e+02
232             	3.42078587e+02
233             	3.42000461e+02
234             	3.42010330e+02
235             	3.41900294e+02
236             	3.41880324e+02
237             	3.41869690e+02
238             	3.41821774e+02
239             	3.41830951e+02
240             	3.41873728e+02
241             	3.41915670e+02
242             	3.41962950e+02
243             	3.42023815e+02
244             	3.42094116e+02
245             	3.42199617e+02
246             	3.42343888e+02
247             	3.42286163e+02
248             	3.42338760e+02
249             	3.42504174e+02
250             	3.42408923e+02
251             	3.42388645e+02
252             	3.42435257e+02
253             	3.42306917e+02
254             	3.42264563e+02
255             	3.42272086e+02
256             	3.42279173e+02
257             	3.42270617e+02
258             	3.42242467e+02
259             	3.42195384e+02
260             	3.42141159e+02
261             	3.42129099e+02
262             	3.42142050e+02
263             	3.42160356e+02
264             	3.42188412e+02
265             	3.42228797e+02
266             	3.42248797e+02
267             	3.42261487e+02
268             	3.42306173e+02
269             	3.42358470e+02
270             	3.42417298e+02
271             	3.42484932e+02
272             	3.42560221e+02
273             	3.42655115e+02
274             	3.42747320e+02
275             	3.42816540e+02
276             	3.42880786e+02
277             	3.42917244e+02
278             	3.42958923e+02
279             	3.42971821e+02
280             	3.42927742e+02
281             	3.42873119e+02
282             	3.42861283e+02
283             	3.42814669e+02
284             	3.42758109e+02
285             	3.42714376e+02
286             	3.42670088e+02
287             	3.42606530e+02
288             	3.42534053e+02
289             	3.42504225e+02
290             	3.42505150e+02
291             	3.42516014e+02
292             	3.42528123e+02
293             	3.42536544e+02
294             	3.42554694e+02
295             	3.42587552e+02
296             	3.42626300e+02
297             	3.42663987e+02
298             	3.42703258e+02
299             	3.42740390e+02
300             	3.42774034e+02
301             	3.42792857e+02
302             	3.42816382e+02
303             	3.42841468e+02
304             	3.42836540e+02
305             	3.42822426e+02
306             	3.42805139e+02
307             	3.42798465e+02
308             	3.42791325e+02
309             	3.42783327e+02
310             	3.42768542e+02
311             	3.42743762e+02
312             	3.42698605e+02
313             	3.42651815e+02
314             	3.42618672e+02
315             	3.42604383e+02
316             	3.42604068e+02
317             	3.42624975e+02
318             	3.42649715e+02
319             	3.42669982e+02
320             	3.42695645e+02
321             	3.42725449e+02
322             	3.42785242e+02
323             	3.42832187e+02
324             	3.42829373e+02
325             	3.42821791e+02
326             	3.42831305e+02
327             	3.42837491e+02
328             	3.42842799e+02
329             	3.42835448e+02
330             	3.42828130e+02
331             	3.42801720e+02
332             	3.42757373e+02
333             	3.42710653e+02
334             	3.42691700e+02
335             	3.42683037e+02
336             	3.42677728e+02
337             	3.42676406e+02
338             	3.42678127e+02
339             	3.42685509e+02
340             	3.42699335e+02
341             	3.42719959e+02
342             	3.42736926e+02
343             	3.42745262e+02
344             	3.42751357e+02
345             	3.42756391e+02
346             	3.42759116e+02
347             	3.42761738e+02
348             	3.42767935e+02
349             	3.42772043e+02
350             	3.42766353e+02
351             	3.42758498e+02
352             	3.42752769e+02
353             	3.42747166e+02
354             	3.42735880e+02
355             	3.42718214e+02
356             	3.42697974e+02
357             	3.42685315e+02
358             	3.42675673e+02
359             	3.42668260e+02
360             	3.42661444e+02
361             	3.42660698e+02
362             	3.42667037e+02
363             	3.42678463e+02
364             	3.42691380e+02
365             	3.42706470e+02
366             	3.42719989e+02
367             	3.42733907e+02
368             	3.42736796e+02
369             	3.42737166e+02
370             	3.42736340e+02
371             	3.42732332e+02
372             	3.42724620e+02
373             	3.42714571e+02
374             	3.42704269e+02
375             	3.42694372e+02
376             	3.42686270e+02
377             	3.42675977e+02
378             	3.42669238e+02
379             	3.42664371e+02
380             	3.42660058e+02
381             	3.42659887e+02
382             	3.42663461e+02
383             	3.42668804e+02
384             	3.42675685e+02
385             	3.42684334e+02
386             	3.42693740e+02
387             	3.42702892e+02
388             	3.42715378e+02
389             	3.42731553e+02
390             	3.42738305e+02
391             	3.42739784e+02
392             	3.42742029e+02
393             	3.42740769e+02
394             	3.42734993e+02
395             	3.42723223e+02
396             	3.42716172e+02
397             	3.42710764e+02
398             	3.42705283e+02
399             	3.42698520e+02
400             	3.42695501e+02
401             	3.42694844e+02
402             	3.42695081e+02
403             	3.42696199e+02
404             	3.42698198e+02
405             	3.42704186e+02
406             	3.42707470e+02
407             	3.42707167e+02
408             	3.42706511e+02
409             	3.42706606e+02
410             	3.42705473e+02
411             	3.42701730e+02
412             	3.42695551e+02
413             	3.42690550e+02
414             	3.42687476e+02
415             	3.42686084e+02
416             	3.42685657e+02
417             	3.42685394e+02
418             	3.42686067e+02
419             	3.42686751e+02
420             	3.42687174e+02
421             	3.42687957e+02
422             	3.42690802e+02
423             	3.42695371e+02
424             	3.42699404e+02
425             	3.42702400e+02
426             	3.42705391e+02
427             	3.42708222e+02
428             	3.42709991e+02
429             	3.42710517e+02
430             	3.42711291e+02
431             	3.42712139e+02
432             	3.42711999e+02
433             	3.42711195e+02
434             	3.42709813e+02
435             	3.42707836e+02
436             	3.42705929e+02
437             	3.42703720e+02
438             	3.42700602e+02
439             	3.42697027e+02
440             	3.42693986e+02
441             	3.42691623e+02
442             	3.42689487e+02
443             	3.42687141e+02
444             	3.42684822e+02
445             	3.42685430e+02
446             	3.42686973e+02
447             	3.42688618e+02
448             	3.42690085e+02
449             	3.42691696e+02
450             	3.42693218e+02
451             	3.42694919e+02
452             	3.42696613e+02
453             	3.42698136e+02
454             	3.42699496e+02
455             	3.42700493e+02
456             	3.42700948e+02
457             	3.42700772e+02
458             	3.42701445e+02
459             	3.42700726e+02
460             	3.42698633e+02
461             	3.42696619e+02
462             	3.42695051e+02
463             	3.42692636e+02
464             	3.42690782e+02
465             	3.42689830e+02
466             	3.42690068e+02
467             	3.42690372e+02
468             	3.42690772e+02
469             	3.42691246e+02
470             	3.42693199e+02
471             	3.42695469e+02
472             	3.42698668e+02
473             	3.42700677e+02
474             	3.42702377e+02
475             	3.42703900e+02
476             	3.42704611e+02
477             	3.42704282e+02
478             	3.42703286e+02
479             	3.42701688e+02
480             	3.42699570e+02
481             	3.42697382e+02
482             	3.42695178e+02
483             	3.42692442e+02
484             	3.42690996e+02
485             	3.42689896e+02
486             	3.42688748e+02
487             	3.42689905e+02
488             	3.42691976e+02
489             	3.42693881e+02
490             	3.42695582e+02
491             	3.42698292e+02
492             	3.42700432e+02
493             	3.42703697e+02
494             	3.42704669e+02
495             	3.42704696e+02
496             	3.42704603e+02
497             	3.42704194e+02
498             	3.42703367e+02
499             	3.42701992e+02
500             	3.42700481e+02
501             	3.42698966e+02
502             	3.42697501e+02
503             	3.42695838e+02
504             	3.42694913e+02
505             	3.42694533e+02
506             	3.42693789e+02
507             	3.42693759e+02
508             	3.42694116e+02
509             	3.42694574e+02
510             	3.42695112e+02
511             	3.42695671e+02
512             	3.42696370e+02
513             	3.42697199e+02
514             	3.42697918e+02
515             	3.42698672e+02
516             	3.42699603e+02
517             	3.42700501e+02
518             	3.42701408e+02
519             	3.42702420e+02
520             	3.42702461e+02
521             	3.42702084e+02
522             	3.42701705e+02
523             	3.42701456e+02
524             	3.42700848e+02
525             	3.42700048e+02
526             	3.42699272e+02
527             	3.42698566e+02
528             	3.42697899e+02
529             	3.42697282e+02
530             	3.42696876e+02
531             	3.42696454e+02
532             	3.42696358e+02
533             	3.42696401e+02
534             	3.42696377e+02
535             	3.42696391e+02
536             	3.42696576e+02
537             	3.42696884e+02
538             	3.42697189e+02
539             	3.42697599e+02
540             	3.42698095e+02
541             	3.42698685e+02
542             	3.42699204e+02
543             	3.42699596e+02
544             	3.42699854e+02
545             	3.42700089e+02
546             	3.42700248e+02
547             	3.42699936e+02
548             	3.42699499e+02
549             	3.42698978e+02
550             	3.42698475e+02
551             	3.42697898e+02
552             	3.42697188e+02
553             	3.42696464e+02
554             	3.42695721e+02
555             	3.42695203e+02
556             	3.42694899e+02
557             	3.42694702e+02
558             	3.42694740e+02
559             	3.42694930e+02
560             	3.42695127e+02
561             	3.42695512e+02
562             	3.42696099e+02
563             	3.42696728e+02
564             	3.42697303e+02
565             	3.42697832e+02
566             	3.42698324e+02
567             	3.42698785e+02
568             	3.42699188e+02
569             	3.42699515e+02
570             	3.42699743e+02
571             	3.42699866e+02
572             	3.42699921e+02
573             	3.42699962e+02
574             	3.42699898e+02
575             	3.42699596e+02
576             	3.42699220e+02
577             	3.42698839e+02
578             	3.42698452e+02
579             	3.42698034e+02
580             	3.42697527e+02
581             	3.42696969e+02
582             	3.42696441e+02
583             	3.42696068e+02
584             	3.42695798e+02
585             	3.42695600e+02
586             	3.42695570e+02
587             	3.42695657e+02
588             	3.42695800e+02
589             	3.42695994e+02
590             	3.42696390e+02
591             	3.42696866e+02
592             	3.42697083e+02
593             	3.42697267e+02
594             	3.42697476e+02
595             	3.42697499e+02
596             	3.42697424e+02
597             	3.42697322e+02
598             	3.42697162e+02
599             	3.42696826e+02
600             	3.42696538e+02
601             	3.42696584e+02
602             	3.42696667e+02
603             	3.42696675e+02
604             	3.42696630e+02
605             	3.42696892e+02
606             	3.42697190e+02
607             	3.42697262e+02
608             	3.42697446e+02
609             	3.42697469e+02
610             	3.42697399e+02
611             	3.42697331e+02
612             	3.42697191e+02
613             	3.42696959e+02
614             	3.42696718e+02
615             	3.42696719e+02
616             	3.42696732e+02
617             	3.42696664e+02
618             	3.42696561e+02
619             	3.42696678e+02
620             	3.42696924e+02
621             	3.42697198e+02
