# Region        : cellZone component_0
# Cells         : 75
# Volume        : 1.35714373e-01
# Time          	volAverage(T)
1               	3.01812808e+02
2               	3.03588776e+02
3               	3.05132300e+02
4               	3.06556672e+02
5               	3.07948278e+02
6               	3.09326457e+02
7               	3.10693167e+02
8               	3.12060479e+02
9               	3.13439393e+02
10              	3.14746047e+02
11              	3.15970386e+02
12              	3.17134482e+02
13              	3.18275442e+02
14              	3.19410841e+02
15              	3.20572109e+02
16              	3.21797793e+02
17              	3.23002811e+02
18              	3.24167088e+02
19              	3.25272540e+02
20              	3.26364950e+02
21              	3.27397038e+02
22              	3.28318133e+02
23              	3.29135475e+02
24              	3.29955625e+02
25              	3.30822989e+02
26              	3.31676890e+02
27              	3.32602732e+02
28              	3.33508952e+02
29              	3.34402549e+02
30              	3.35261751e+02
31              	3.36115526e+02
32              	3.36984444e+02
33              	3.37871640e+02
34              	3.38721696e+02
35              	3.39525593e+02
36              	3.40276649e+02
37              	3.40999067e+02
38              	3.41673651e+02
39              	3.42283818e+02
40              	3.42823413e+02
41              	3.43347953e+02
42              	3.43846233e+02
43              	3.44315351e+02
44              	3.44727051e+02
45              	3.45055854e+02
46              	3.45351751e+02
47              	3.45683384e+02
48              	3.45991666e+02
49              	3.46302282e+02
50              	3.46653456e+02
51              	3.47080602e+02
52              	3.47514953e+02
53              	3.47920780e+02
54              	3.48324131e+02
55              	3.48748367e+02
56              	3.49153706e+02
57              	3.49526455e+02
58              	3.49835063e+02
59              	3.50113271e+02
60              	3.50416361e+02
61              	3.50702373e+02
62              	3.50977882e+02
63              	3.51265074e+02
64              	3.51577641e+02
65              	3.51908651e+02
66              	3.52233514e+02
67              	3.52502083e+02
68              	3.52638988e+02
69              	3.52775737e+02
70              	3.52904974e+02
71              	3.53010501e+02
72              	3.53127075e+02
73              	3.53259638e+02
74              	3.53391676e+02
75              	3.53507710e+02
76              	3.53625634e+02
77              	3.53760911e+02
78              	3.53929857e+02
79              	3.54131136e+02
80              	3.54275519e+02
81              	3.54398961e+02
82              	3.54486001e+02
83              	3.54538533e+02
84              	3.54545558e+02
85              	3.54576332e+02
86              	3.54631617e+02
87              	3.54687297e+02
88              	3.54724900e+02
89              	3.54809202e+02
90              	3.54919279e+02
91              	3.55017200e+02
92              	3.55060477e+02
93              	3.55044222e+02
94              	3.55095689e+02
95              	3.55133115e+02
96              	3.55193821e+02
97              	3.55254860e+02
98              	3.55283346e+02
99              	3.55316627e+02
100             	3.55331103e+02
101             	3.55385574e+02
102             	3.55433937e+02
103             	3.55484047e+02
104             	3.55507933e+02
105             	3.55540034e+02
106             	3.55580751e+02
107             	3.55635606e+02
108             	3.55693160e+02
109             	3.55715283e+02
110             	3.55743169e+02
111             	3.55752607e+02
112             	3.55740707e+02
113             	3.55701208e+02
114             	3.55672471e+02
115             	3.55644099e+02
116             	3.55612302e+02
117             	3.55591679e+02
118             	3.55589561e+02
119             	3.55574974e+02
120             	3.55580790e+02
121             	3.55573300e+02
122             	3.55564617e+02
123             	3.55561063e+02
124             	3.55532961e+02
125             	3.55503306e+02
126             	3.55471754e+02
127             	3.55433648e+02
128             	3.55382289e+02
129             	3.55348406e+02
130             	3.55325498e+02
131             	3.55312285e+02
132             	3.55303436e+02
133             	3.55302507e+02
134             	3.55306234e+02
135             	3.55287805e+02
136             	3.55275176e+02
137             	3.55262841e+02
138             	3.55244594e+02
139             	3.55221064e+02
140             	3.55197915e+02
141             	3.55176490e+02
142             	3.55159621e+02
143             	3.55145390e+02
144             	3.55130879e+02
145             	3.55117285e+02
146             	3.55105778e+02
147             	3.55098274e+02
148             	3.55090526e+02
149             	3.55084299e+02
150             	3.55076757e+02
151             	3.55065361e+02
152             	3.55052167e+02
153             	3.55037427e+02
154             	3.55018374e+02
155             	3.54998692e+02
156             	3.54974051e+02
157             	3.54950842e+02
158             	3.54928325e+02
159             	3.54904640e+02
160             	3.54880018e+02
161             	3.54855587e+02
162             	3.54835179e+02
163             	3.54817571e+02
164             	3.54805755e+02
165             	3.54792830e+02
166             	3.54782124e+02
167             	3.54773067e+02
168             	3.54761886e+02
169             	3.54754569e+02
170             	3.54744595e+02
171             	3.54733534e+02
172             	3.54720772e+02
173             	3.54707784e+02
174             	3.54693594e+02
175             	3.54677711e+02
176             	3.54662056e+02
177             	3.54650417e+02
178             	3.54641652e+02
179             	3.54632357e+02
180             	3.54621457e+02
181             	3.54610114e+02
182             	3.54599472e+02
183             	3.54591974e+02
184             	3.54585411e+02
185             	3.54576595e+02
186             	3.54568034e+02
187             	3.54559217e+02
188             	3.54551388e+02
189             	3.54544444e+02
190             	3.54537480e+02
191             	3.54531361e+02
192             	3.54525107e+02
193             	3.54518540e+02
194             	3.54512742e+02
195             	3.54507129e+02
196             	3.54502101e+02
197             	3.54497086e+02
198             	3.54493744e+02
199             	3.54491564e+02
200             	3.54490806e+02
201             	3.54490767e+02
202             	3.54490906e+02
203             	3.54491299e+02
204             	3.54491721e+02
205             	3.54492828e+02
206             	3.54491386e+02
207             	3.54492446e+02
208             	3.54495862e+02
209             	3.54498967e+02
210             	3.54502379e+02
211             	3.54506685e+02
212             	3.54511084e+02
213             	3.54513469e+02
214             	3.54515709e+02
215             	3.54518841e+02
216             	3.54521363e+02
217             	3.54522767e+02
218             	3.54522266e+02
219             	3.54521024e+02
220             	3.54519037e+02
221             	3.54517375e+02
222             	3.54516666e+02
223             	3.54516756e+02
224             	3.54518405e+02
225             	3.54520703e+02
226             	3.54523387e+02
227             	3.54526685e+02
228             	3.54529909e+02
229             	3.54533952e+02
230             	3.54538634e+02
231             	3.54543676e+02
232             	3.54548348e+02
233             	3.54550605e+02
234             	3.54553177e+02
235             	3.54555698e+02
236             	3.54558280e+02
237             	3.54560135e+02
238             	3.54560190e+02
239             	3.54559874e+02
240             	3.54561733e+02
241             	3.54561621e+02
242             	3.54562563e+02
243             	3.54566178e+02
244             	3.54571339e+02
245             	3.54576985e+02
246             	3.54582543e+02
247             	3.54587055e+02
248             	3.54591528e+02
249             	3.54595638e+02
250             	3.54598734e+02
251             	3.54600708e+02
252             	3.54601074e+02
253             	3.54601401e+02
254             	3.54601474e+02
255             	3.54600722e+02
256             	3.54599641e+02
257             	3.54598806e+02
258             	3.54599970e+02
259             	3.54600796e+02
260             	3.54602488e+02
261             	3.54606034e+02
262             	3.54611264e+02
263             	3.54617034e+02
264             	3.54622386e+02
265             	3.54627190e+02
266             	3.54632443e+02
267             	3.54637287e+02
268             	3.54641327e+02
269             	3.54644757e+02
270             	3.54647720e+02
271             	3.54650445e+02
272             	3.54653013e+02
273             	3.54655489e+02
274             	3.54657697e+02
275             	3.54659705e+02
276             	3.54662040e+02
277             	3.54665496e+02
278             	3.54669393e+02
279             	3.54673828e+02
280             	3.54678082e+02
281             	3.54682353e+02
282             	3.54686390e+02
283             	3.54688563e+02
284             	3.54691350e+02
285             	3.54694276e+02
286             	3.54696260e+02
287             	3.54698296e+02
288             	3.54701640e+02
289             	3.54707430e+02
290             	3.54714607e+02
291             	3.54720716e+02
292             	3.54726984e+02
293             	3.54733782e+02
294             	3.54740175e+02
295             	3.54745578e+02
296             	3.54751353e+02
297             	3.54756487e+02
298             	3.54760513e+02
299             	3.54763877e+02
300             	3.54767255e+02
301             	3.54770686e+02
302             	3.54774355e+02
303             	3.54779149e+02
304             	3.54784105e+02
305             	3.54789396e+02
306             	3.54795153e+02
307             	3.54801188e+02
308             	3.54807317e+02
309             	3.54813433e+02
310             	3.54819454e+02
311             	3.54825460e+02
312             	3.54831403e+02
313             	3.54837247e+02
314             	3.54842937e+02
315             	3.54848728e+02
316             	3.54854548e+02
317             	3.54860254e+02
318             	3.54865330e+02
319             	3.54870305e+02
320             	3.54874675e+02
321             	3.54879472e+02
322             	3.54883627e+02
323             	3.54887503e+02
324             	3.54891473e+02
325             	3.54895881e+02
326             	3.54900706e+02
327             	3.54905409e+02
328             	3.54910200e+02
329             	3.54915270e+02
330             	3.54920703e+02
331             	3.54926328e+02
332             	3.54931980e+02
333             	3.54937664e+02
334             	3.54943451e+02
335             	3.54949544e+02
336             	3.54955737e+02
337             	3.54961837e+02
338             	3.54968069e+02
339             	3.54974422e+02
340             	3.54980889e+02
341             	3.54987413e+02
342             	3.54994127e+02
343             	3.55000861e+02
344             	3.55007700e+02
345             	3.55014490e+02
346             	3.55020983e+02
347             	3.55027163e+02
348             	3.55032683e+02
349             	3.55038120e+02
350             	3.55043460e+02
351             	3.55049291e+02
352             	3.55054698e+02
353             	3.55060161e+02
354             	3.55065848e+02
355             	3.55071643e+02
356             	3.55077268e+02
357             	3.55082700e+02
358             	3.55088259e+02
359             	3.55093962e+02
360             	3.55099596e+02
361             	3.55103395e+02
362             	3.55107996e+02
363             	3.55113071e+02
364             	3.55118180e+02
365             	3.55123611e+02
366             	3.55129213e+02
367             	3.55134629e+02
368             	3.55139997e+02
369             	3.55145384e+02
370             	3.55150952e+02
371             	3.55156846e+02
372             	3.55162563e+02
373             	3.55168321e+02
374             	3.55173924e+02
375             	3.55179847e+02
376             	3.55185626e+02
377             	3.55191167e+02
378             	3.55196499e+02
379             	3.55201715e+02
380             	3.55206809e+02
381             	3.55211770e+02
382             	3.55216600e+02
383             	3.55221381e+02
384             	3.55226086e+02
385             	3.55231230e+02
386             	3.55236246e+02
387             	3.55241017e+02
388             	3.55246073e+02
389             	3.55251010e+02
390             	3.55255473e+02
391             	3.55259488e+02
392             	3.55262795e+02
393             	3.55265664e+02
394             	3.55268230e+02
395             	3.55270437e+02
396             	3.55272351e+02
397             	3.55274272e+02
398             	3.55275225e+02
399             	3.55276479e+02
400             	3.55278005e+02
401             	3.55279680e+02
402             	3.55281656e+02
403             	3.55284013e+02
404             	3.55286974e+02
405             	3.55289757e+02
406             	3.55293035e+02
407             	3.55296259e+02
408             	3.55299467e+02
409             	3.55302646e+02
410             	3.55305789e+02
411             	3.55308904e+02
412             	3.55311985e+02
413             	3.55315170e+02
414             	3.55318429e+02
415             	3.55321657e+02
416             	3.55324866e+02
417             	3.55331238e+02
418             	3.55337802e+02
419             	3.55343807e+02
420             	3.55348796e+02
421             	3.55352767e+02
422             	3.55356256e+02
423             	3.55359216e+02
424             	3.55361993e+02
425             	3.55362533e+02
426             	3.55363896e+02
427             	3.55365618e+02
428             	3.55367276e+02
429             	3.55368808e+02
430             	3.55370262e+02
431             	3.55371678e+02
432             	3.55373072e+02
433             	3.55374453e+02
434             	3.55375617e+02
435             	3.55376753e+02
436             	3.55378343e+02
437             	3.55380057e+02
438             	3.55381387e+02
439             	3.55382416e+02
440             	3.55383001e+02
441             	3.55383805e+02
442             	3.55384582e+02
443             	3.55385086e+02
444             	3.55385313e+02
445             	3.55385335e+02
446             	3.55385432e+02
447             	3.55385682e+02
448             	3.55386367e+02
449             	3.55387280e+02
450             	3.55389508e+02
451             	3.55391711e+02
452             	3.55394060e+02
453             	3.55398593e+02
454             	3.55402804e+02
455             	3.55406799e+02
456             	3.55411279e+02
457             	3.55416070e+02
458             	3.55418545e+02
459             	3.55422061e+02
460             	3.55425869e+02
461             	3.55428939e+02
462             	3.55431100e+02
463             	3.55432684e+02
464             	3.55434493e+02
465             	3.55437359e+02
466             	3.55439502e+02
467             	3.55441880e+02
468             	3.55444311e+02
469             	3.55447258e+02
470             	3.55450390e+02
471             	3.55453294e+02
472             	3.55455881e+02
473             	3.55458262e+02
474             	3.55460477e+02
475             	3.55460029e+02
476             	3.55460217e+02
477             	3.55460718e+02
478             	3.55460797e+02
479             	3.55461184e+02
480             	3.55461561e+02
481             	3.55464035e+02
482             	3.55465762e+02
483             	3.55467743e+02
484             	3.55468762e+02
485             	3.55469414e+02
486             	3.55469591e+02
487             	3.55470587e+02
488             	3.55472803e+02
489             	3.55475356e+02
490             	3.55477498e+02
491             	3.55479496e+02
492             	3.55481345e+02
493             	3.55483110e+02
494             	3.55484904e+02
495             	3.55486738e+02
496             	3.55488607e+02
497             	3.55490482e+02
498             	3.55492343e+02
499             	3.55494166e+02
500             	3.55495930e+02
501             	3.55497622e+02
502             	3.55500080e+02
503             	3.55502823e+02
504             	3.55506117e+02
505             	3.55508923e+02
506             	3.55511684e+02
507             	3.55514305e+02
508             	3.55516077e+02
509             	3.55518249e+02
510             	3.55520331e+02
511             	3.55522213e+02
512             	3.55523952e+02
513             	3.55525748e+02
514             	3.55526400e+02
515             	3.55527095e+02
516             	3.55527983e+02
517             	3.55528783e+02
518             	3.55529227e+02
519             	3.55529425e+02
520             	3.55529583e+02
521             	3.55530081e+02
522             	3.55530820e+02
523             	3.55531757e+02
524             	3.55532764e+02
525             	3.55534199e+02
526             	3.55536132e+02
527             	3.55538325e+02
528             	3.55540914e+02
529             	3.55543635e+02
530             	3.55546294e+02
531             	3.55549070e+02
532             	3.55551645e+02
533             	3.55554239e+02
534             	3.55556715e+02
535             	3.55559038e+02
536             	3.55561418e+02
537             	3.55563632e+02
538             	3.55565556e+02
539             	3.55567316e+02
540             	3.55568948e+02
541             	3.55570446e+02
542             	3.55571808e+02
543             	3.55573011e+02
544             	3.55574015e+02
545             	3.55574824e+02
546             	3.55575781e+02
547             	3.55576498e+02
548             	3.55577053e+02
549             	3.55577584e+02
550             	3.55578156e+02
551             	3.55578650e+02
552             	3.55579229e+02
553             	3.55579739e+02
554             	3.55580439e+02
555             	3.55581311e+02
556             	3.55582364e+02
557             	3.55582559e+02
558             	3.55583013e+02
559             	3.55583611e+02
560             	3.55584021e+02
561             	3.55584168e+02
562             	3.55584089e+02
563             	3.55583825e+02
564             	3.55583540e+02
565             	3.55583341e+02
566             	3.55583421e+02
567             	3.55583537e+02
568             	3.55583884e+02
569             	3.55584512e+02
570             	3.55585996e+02
571             	3.55588806e+02
572             	3.55590613e+02
573             	3.55592087e+02
574             	3.55593944e+02
575             	3.55596200e+02
576             	3.55598506e+02
577             	3.55600570e+02
578             	3.55602464e+02
579             	3.55603238e+02
580             	3.55604146e+02
581             	3.55605117e+02
582             	3.55605678e+02
583             	3.55605906e+02
584             	3.55606242e+02
585             	3.55606681e+02
586             	3.55606562e+02
587             	3.55606435e+02
588             	3.55606401e+02
589             	3.55606372e+02
590             	3.55606248e+02
591             	3.55606101e+02
592             	3.55606039e+02
593             	3.55605906e+02
594             	3.55606121e+02
595             	3.55606843e+02
596             	3.55607952e+02
597             	3.55609288e+02
598             	3.55610701e+02
599             	3.55612216e+02
600             	3.55613859e+02
601             	3.55615552e+02
602             	3.55617361e+02
603             	3.55619310e+02
604             	3.55621369e+02
605             	3.55623529e+02
606             	3.55625688e+02
607             	3.55627865e+02
608             	3.55630089e+02
609             	3.55632346e+02
610             	3.55634595e+02
611             	3.55636777e+02
612             	3.55638813e+02
613             	3.55641003e+02
614             	3.55643261e+02
615             	3.55645518e+02
616             	3.55647788e+02
617             	3.55650210e+02
618             	3.55652751e+02
619             	3.55655326e+02
620             	3.55657920e+02
621             	3.55660703e+02
