# Region        : cellZone component_1
# Cells         : 183
# Volume        : 3.18705855e-01
# Time          	volAverage(T)
1               	3.01219608e+02
2               	3.02427799e+02
3               	3.03529202e+02
4               	3.04562952e+02
5               	3.05568708e+02
6               	3.06557893e+02
7               	3.07536371e+02
8               	3.08511529e+02
9               	3.09481135e+02
10              	3.10441103e+02
11              	3.11384558e+02
12              	3.12301884e+02
13              	3.13204860e+02
14              	3.14104702e+02
15              	3.14997622e+02
16              	3.15866497e+02
17              	3.16717147e+02
18              	3.17569683e+02
19              	3.18403674e+02
20              	3.19228898e+02
21              	3.20043982e+02
22              	3.20845343e+02
23              	3.21630986e+02
24              	3.22402158e+02
25              	3.23156470e+02
26              	3.23895339e+02
27              	3.24617537e+02
28              	3.25331698e+02
29              	3.26037939e+02
30              	3.26742625e+02
31              	3.27469427e+02
32              	3.28170586e+02
33              	3.28841167e+02
34              	3.29500977e+02
35              	3.30134444e+02
36              	3.30726904e+02
37              	3.31286750e+02
38              	3.31828683e+02
39              	3.32354766e+02
40              	3.32878512e+02
41              	3.33402024e+02
42              	3.33927753e+02
43              	3.34473090e+02
44              	3.35000041e+02
45              	3.35492700e+02
46              	3.35975094e+02
47              	3.36444282e+02
48              	3.36890610e+02
49              	3.37317540e+02
50              	3.37719576e+02
51              	3.38110119e+02
52              	3.38491022e+02
53              	3.38868737e+02
54              	3.39244017e+02
55              	3.39622855e+02
56              	3.40016076e+02
57              	3.40415424e+02
58              	3.40820484e+02
59              	3.41216530e+02
60              	3.41602373e+02
61              	3.41973078e+02
62              	3.42326729e+02
63              	3.42665487e+02
64              	3.42990536e+02
65              	3.43309519e+02
66              	3.43623425e+02
67              	3.43935068e+02
68              	3.44246510e+02
69              	3.44559349e+02
70              	3.44864828e+02
71              	3.45158292e+02
72              	3.45452484e+02
73              	3.45750258e+02
74              	3.46041042e+02
75              	3.46323395e+02
76              	3.46599821e+02
77              	3.46860588e+02
78              	3.47113123e+02
79              	3.47357677e+02
80              	3.47584080e+02
81              	3.47798210e+02
82              	3.48004303e+02
83              	3.48201575e+02
84              	3.48397488e+02
85              	3.48594941e+02
86              	3.48795372e+02
87              	3.48998771e+02
88              	3.49198703e+02
89              	3.49404511e+02
90              	3.49615636e+02
91              	3.49827922e+02
92              	3.50033483e+02
93              	3.50225028e+02
94              	3.50405013e+02
95              	3.50573094e+02
96              	3.50728580e+02
97              	3.50872901e+02
98              	3.51011939e+02
99              	3.51141762e+02
100             	3.51265015e+02
101             	3.51386666e+02
102             	3.51509738e+02
103             	3.51627689e+02
104             	3.51750453e+02
105             	3.51876281e+02
106             	3.52007150e+02
107             	3.52142387e+02
108             	3.52271323e+02
109             	3.52395756e+02
110             	3.52519146e+02
111             	3.52634754e+02
112             	3.52740200e+02
113             	3.52839317e+02
114             	3.52933205e+02
115             	3.53025230e+02
116             	3.53121446e+02
117             	3.53214705e+02
118             	3.53317092e+02
119             	3.53427963e+02
120             	3.53546652e+02
121             	3.53662567e+02
122             	3.53775814e+02
123             	3.53874419e+02
124             	3.53966919e+02
125             	3.54049873e+02
126             	3.54123644e+02
127             	3.54194406e+02
128             	3.54261376e+02
129             	3.54328108e+02
130             	3.54406363e+02
131             	3.54483676e+02
132             	3.54566056e+02
133             	3.54656208e+02
134             	3.54749426e+02
135             	3.54836845e+02
136             	3.54916752e+02
137             	3.54990744e+02
138             	3.55071114e+02
139             	3.55143427e+02
140             	3.55212031e+02
141             	3.55280280e+02
142             	3.55352388e+02
143             	3.55424614e+02
144             	3.55492412e+02
145             	3.55558697e+02
146             	3.55624744e+02
147             	3.55689085e+02
148             	3.55750065e+02
149             	3.55808478e+02
150             	3.55864231e+02
151             	3.55916878e+02
152             	3.55969032e+02
153             	3.56020166e+02
154             	3.56069824e+02
155             	3.56117517e+02
156             	3.56165598e+02
157             	3.56216183e+02
158             	3.56271400e+02
159             	3.56324252e+02
160             	3.56377165e+02
161             	3.56435599e+02
162             	3.56497914e+02
163             	3.56559034e+02
164             	3.56610234e+02
165             	3.56663072e+02
166             	3.56713979e+02
167             	3.56759630e+02
168             	3.56795279e+02
169             	3.56826030e+02
170             	3.56856069e+02
171             	3.56886800e+02
172             	3.56920855e+02
173             	3.56952803e+02
174             	3.56991747e+02
175             	3.57031159e+02
176             	3.57075767e+02
177             	3.57125239e+02
178             	3.57176731e+02
179             	3.57218784e+02
180             	3.57261644e+02
181             	3.57299432e+02
182             	3.57332270e+02
183             	3.57361129e+02
184             	3.57387068e+02
185             	3.57414138e+02
186             	3.57435304e+02
187             	3.57459804e+02
188             	3.57488268e+02
189             	3.57519839e+02
190             	3.57552298e+02
191             	3.57584392e+02
192             	3.57614851e+02
193             	3.57643559e+02
194             	3.57667738e+02
195             	3.57688992e+02
196             	3.57710830e+02
197             	3.57732972e+02
198             	3.57755615e+02
199             	3.57780352e+02
200             	3.57808880e+02
201             	3.57837996e+02
202             	3.57867605e+02
203             	3.57894522e+02
204             	3.57925969e+02
205             	3.57955524e+02
206             	3.57981155e+02
207             	3.58002383e+02
208             	3.58020320e+02
209             	3.58035567e+02
210             	3.58052943e+02
211             	3.58065563e+02
212             	3.58078255e+02
213             	3.58094477e+02
214             	3.58115385e+02
215             	3.58141003e+02
216             	3.58168447e+02
217             	3.58197562e+02
218             	3.58227978e+02
219             	3.58258364e+02
220             	3.58287154e+02
221             	3.58312727e+02
222             	3.58337920e+02
223             	3.58362060e+02
224             	3.58382245e+02
225             	3.58399349e+02
226             	3.58412452e+02
227             	3.58423909e+02
228             	3.58436155e+02
229             	3.58449790e+02
230             	3.58464028e+02
231             	3.58482346e+02
232             	3.58499576e+02
233             	3.58512798e+02
234             	3.58528403e+02
235             	3.58546341e+02
236             	3.58565909e+02
237             	3.58585697e+02
238             	3.58605491e+02
239             	3.58623944e+02
240             	3.58638379e+02
241             	3.58650457e+02
242             	3.58663921e+02
243             	3.58676228e+02
244             	3.58688864e+02
245             	3.58702996e+02
246             	3.58717133e+02
247             	3.58730119e+02
248             	3.58740611e+02
249             	3.58750756e+02
250             	3.58764033e+02
251             	3.58774988e+02
252             	3.58784840e+02
253             	3.58797510e+02
254             	3.58810736e+02
255             	3.58825215e+02
256             	3.58833786e+02
257             	3.58846390e+02
258             	3.58859974e+02
259             	3.58872937e+02
260             	3.58885532e+02
261             	3.58894572e+02
262             	3.58902581e+02
263             	3.58911665e+02
264             	3.58918678e+02
265             	3.58925735e+02
266             	3.58932919e+02
267             	3.58940967e+02
268             	3.58949366e+02
269             	3.58958913e+02
270             	3.58970004e+02
271             	3.58982625e+02
272             	3.58995587e+02
273             	3.59008798e+02
274             	3.59022019e+02
275             	3.59033382e+02
276             	3.59044966e+02
277             	3.59055958e+02
278             	3.59066917e+02
279             	3.59077544e+02
280             	3.59087721e+02
281             	3.59097101e+02
282             	3.59105723e+02
283             	3.59113971e+02
284             	3.59120823e+02
285             	3.59127462e+02
286             	3.59133897e+02
287             	3.59139715e+02
288             	3.59144933e+02
289             	3.59151133e+02
290             	3.59158352e+02
291             	3.59165827e+02
292             	3.59173290e+02
293             	3.59181378e+02
294             	3.59190528e+02
295             	3.59200548e+02
296             	3.59210787e+02
297             	3.59220736e+02
298             	3.59230162e+02
299             	3.59239284e+02
300             	3.59246627e+02
301             	3.59252831e+02
302             	3.59257463e+02
303             	3.59261455e+02
304             	3.59264953e+02
305             	3.59269329e+02
306             	3.59273225e+02
307             	3.59276323e+02
308             	3.59279261e+02
309             	3.59283630e+02
310             	3.59289068e+02
311             	3.59295048e+02
312             	3.59300997e+02
313             	3.59306586e+02
314             	3.59312421e+02
315             	3.59318572e+02
316             	3.59323361e+02
317             	3.59327616e+02
318             	3.59330867e+02
319             	3.59333517e+02
320             	3.59336298e+02
321             	3.59339989e+02
322             	3.59344779e+02
323             	3.59348792e+02
324             	3.59353310e+02
325             	3.59358515e+02
326             	3.59363610e+02
327             	3.59369046e+02
328             	3.59375158e+02
329             	3.59381280e+02
330             	3.59387168e+02
331             	3.59391892e+02
332             	3.59395450e+02
333             	3.59398205e+02
334             	3.59401008e+02
335             	3.59402865e+02
336             	3.59406252e+02
337             	3.59409915e+02
338             	3.59413939e+02
339             	3.59418534e+02
340             	3.59422666e+02
341             	3.59426604e+02
342             	3.59430805e+02
343             	3.59434308e+02
344             	3.59437895e+02
345             	3.59442111e+02
346             	3.59445233e+02
347             	3.59449240e+02
348             	3.59451391e+02
349             	3.59452799e+02
350             	3.59454855e+02
351             	3.59458436e+02
352             	3.59463071e+02
353             	3.59467019e+02
354             	3.59471869e+02
355             	3.59476199e+02
356             	3.59480748e+02
357             	3.59484768e+02
358             	3.59488097e+02
359             	3.59491085e+02
360             	3.59493928e+02
361             	3.59496268e+02
362             	3.59498451e+02
363             	3.59500225e+02
364             	3.59502285e+02
365             	3.59504139e+02
366             	3.59506353e+02
367             	3.59508411e+02
368             	3.59510264e+02
369             	3.59512655e+02
370             	3.59515530e+02
371             	3.59518318e+02
372             	3.59521214e+02
373             	3.59524141e+02
374             	3.59527191e+02
375             	3.59530314e+02
376             	3.59533404e+02
377             	3.59536127e+02
378             	3.59538523e+02
379             	3.59540629e+02
380             	3.59542604e+02
381             	3.59544647e+02
382             	3.59547015e+02
383             	3.59549053e+02
384             	3.59551136e+02
385             	3.59553468e+02
386             	3.59555852e+02
387             	3.59558395e+02
388             	3.59561089e+02
389             	3.59563590e+02
390             	3.59566371e+02
391             	3.59568687e+02
392             	3.59570873e+02
393             	3.59573034e+02
394             	3.59575103e+02
395             	3.59576924e+02
396             	3.59578620e+02
397             	3.59580266e+02
398             	3.59581787e+02
399             	3.59583303e+02
400             	3.59584921e+02
401             	3.59586690e+02
402             	3.59588542e+02
403             	3.59590224e+02
404             	3.59592020e+02
405             	3.59593801e+02
406             	3.59595472e+02
407             	3.59596961e+02
408             	3.59598276e+02
409             	3.59599534e+02
410             	3.59600895e+02
411             	3.59602163e+02
412             	3.59603571e+02
413             	3.59605039e+02
414             	3.59606691e+02
415             	3.59608413e+02
416             	3.59610148e+02
417             	3.59611952e+02
418             	3.59613853e+02
419             	3.59615761e+02
420             	3.59617524e+02
421             	3.59619199e+02
422             	3.59620731e+02
423             	3.59622187e+02
424             	3.59623557e+02
425             	3.59624842e+02
426             	3.59626280e+02
427             	3.59627910e+02
428             	3.59629590e+02
429             	3.59631265e+02
430             	3.59632763e+02
431             	3.59634241e+02
432             	3.59635991e+02
433             	3.59637706e+02
434             	3.59639473e+02
435             	3.59641052e+02
436             	3.59642448e+02
437             	3.59643706e+02
438             	3.59644857e+02
439             	3.59645992e+02
440             	3.59647087e+02
441             	3.59648159e+02
442             	3.59649192e+02
443             	3.59650226e+02
444             	3.59651228e+02
445             	3.59652271e+02
446             	3.59653342e+02
447             	3.59654414e+02
448             	3.59655455e+02
449             	3.59656418e+02
450             	3.59657322e+02
451             	3.59658211e+02
452             	3.59659074e+02
453             	3.59659909e+02
454             	3.59660759e+02
455             	3.59661607e+02
456             	3.59662525e+02
457             	3.59663438e+02
458             	3.59664427e+02
459             	3.59665408e+02
460             	3.59666425e+02
461             	3.59667468e+02
462             	3.59668518e+02
463             	3.59669493e+02
464             	3.59670359e+02
465             	3.59671261e+02
466             	3.59672133e+02
467             	3.59672949e+02
468             	3.59673779e+02
469             	3.59674593e+02
470             	3.59675393e+02
471             	3.59676197e+02
472             	3.59676991e+02
473             	3.59677803e+02
474             	3.59678618e+02
475             	3.59679475e+02
476             	3.59680338e+02
477             	3.59681120e+02
478             	3.59681927e+02
479             	3.59682701e+02
480             	3.59683449e+02
481             	3.59684136e+02
482             	3.59684774e+02
483             	3.59685346e+02
484             	3.59685889e+02
485             	3.59686442e+02
486             	3.59687038e+02
487             	3.59687659e+02
488             	3.59688295e+02
489             	3.59688928e+02
490             	3.59689550e+02
491             	3.59690148e+02
492             	3.59690692e+02
493             	3.59691227e+02
494             	3.59691749e+02
495             	3.59692241e+02
496             	3.59692711e+02
497             	3.59693180e+02
498             	3.59693724e+02
499             	3.59694222e+02
500             	3.59694712e+02
501             	3.59695229e+02
502             	3.59695761e+02
503             	3.59696281e+02
504             	3.59696820e+02
505             	3.59697356e+02
506             	3.59697911e+02
507             	3.59698446e+02
508             	3.59698922e+02
509             	3.59699349e+02
510             	3.59699787e+02
511             	3.59700196e+02
512             	3.59700598e+02
513             	3.59701042e+02
514             	3.59701481e+02
515             	3.59701899e+02
516             	3.59702340e+02
517             	3.59702796e+02
518             	3.59703266e+02
519             	3.59703726e+02
520             	3.59704194e+02
521             	3.59704639e+02
522             	3.59705014e+02
523             	3.59705332e+02
524             	3.59705623e+02
525             	3.59705923e+02
526             	3.59706236e+02
527             	3.59706558e+02
528             	3.59706880e+02
529             	3.59707219e+02
530             	3.59707576e+02
531             	3.59707928e+02
532             	3.59708264e+02
533             	3.59708567e+02
534             	3.59708864e+02
535             	3.59709162e+02
536             	3.59709450e+02
537             	3.59709743e+02
538             	3.59710002e+02
539             	3.59710247e+02
540             	3.59710521e+02
541             	3.59710797e+02
542             	3.59711093e+02
543             	3.59711404e+02
544             	3.59711717e+02
545             	3.59712008e+02
546             	3.59712277e+02
547             	3.59712560e+02
548             	3.59712840e+02
549             	3.59713119e+02
550             	3.59713382e+02
551             	3.59713634e+02
552             	3.59713871e+02
553             	3.59714092e+02
554             	3.59714296e+02
555             	3.59714494e+02
556             	3.59714713e+02
557             	3.59714949e+02
558             	3.59715168e+02
559             	3.59715392e+02
560             	3.59715612e+02
561             	3.59715836e+02
562             	3.59716061e+02
563             	3.59716271e+02
564             	3.59716470e+02
565             	3.59716655e+02
566             	3.59716840e+02
567             	3.59717025e+02
568             	3.59717209e+02
569             	3.59717395e+02
570             	3.59717582e+02
571             	3.59717775e+02
572             	3.59717979e+02
573             	3.59718178e+02
574             	3.59718373e+02
575             	3.59718567e+02
576             	3.59718757e+02
577             	3.59718945e+02
578             	3.59719131e+02
579             	3.59719324e+02
580             	3.59719512e+02
581             	3.59719692e+02
582             	3.59719877e+02
583             	3.59720057e+02
584             	3.59720238e+02
585             	3.59720417e+02
586             	3.59720590e+02
587             	3.59720758e+02
588             	3.59720902e+02
589             	3.59721046e+02
590             	3.59721184e+02
591             	3.59721314e+02
592             	3.59721449e+02
593             	3.59721594e+02
594             	3.59721724e+02
595             	3.59721849e+02
596             	3.59721992e+02
597             	3.59722135e+02
598             	3.59722275e+02
599             	3.59722423e+02
600             	3.59722576e+02
601             	3.59722728e+02
602             	3.59722878e+02
603             	3.59723021e+02
604             	3.59723166e+02
605             	3.59723307e+02
606             	3.59723445e+02
607             	3.59723581e+02
608             	3.59723715e+02
609             	3.59723840e+02
610             	3.59723954e+02
611             	3.59724064e+02
612             	3.59724175e+02
613             	3.59724283e+02
614             	3.59724387e+02
615             	3.59724485e+02
616             	3.59724579e+02
617             	3.59724671e+02
618             	3.59724761e+02
619             	3.59724851e+02
620             	3.59724968e+02
621             	3.59725074e+02
