# Region        : cellZone component_0
# Cells         : 75
# Volume        : 1.25376829e-01
# Time          	volAverage(T)
1               	3.07274488e+02
2               	3.14341821e+02
3               	3.19667852e+02
4               	3.24021931e+02
5               	3.28413718e+02
6               	3.32994924e+02
7               	3.37547040e+02
8               	3.41929361e+02
9               	3.46234296e+02
10              	3.50494233e+02
11              	3.54536323e+02
12              	3.58319835e+02
13              	3.61887369e+02
14              	3.65196989e+02
15              	3.68278053e+02
16              	3.71438685e+02
17              	3.74691246e+02
18              	3.77771441e+02
19              	3.80751862e+02
20              	3.83521986e+02
21              	3.86098346e+02
22              	3.88345909e+02
23              	3.90151631e+02
24              	3.91618107e+02
25              	3.93333337e+02
26              	3.95467981e+02
27              	3.97426015e+02
28              	3.99074136e+02
29              	4.00592804e+02
30              	4.02024730e+02
31              	4.03311481e+02
32              	4.04815083e+02
33              	4.06320485e+02
34              	4.07259564e+02
35              	4.07889482e+02
36              	4.08600660e+02
37              	4.09499669e+02
38              	4.10784856e+02
39              	4.12399860e+02
40              	4.14026051e+02
41              	4.15641264e+02
42              	4.17158607e+02
43              	4.18775065e+02
44              	4.20332253e+02
45              	4.21995824e+02
46              	4.23875954e+02
47              	4.25822288e+02
48              	4.27486395e+02
49              	4.28490750e+02
50              	4.29267503e+02
51              	4.30684084e+02
52              	4.32492762e+02
53              	4.34450418e+02
54              	4.36187759e+02
55              	4.37806224e+02
56              	4.39425338e+02
57              	4.41013691e+02
58              	4.42330913e+02
59              	4.43526231e+02
60              	4.44761040e+02
61              	4.45925790e+02
62              	4.47088346e+02
63              	4.48304637e+02
64              	4.49530327e+02
65              	4.50732207e+02
66              	4.51875488e+02
67              	4.52987811e+02
68              	4.54158917e+02
69              	4.55440211e+02
70              	4.56631813e+02
71              	4.57811031e+02
72              	4.58885450e+02
73              	4.59848543e+02
74              	4.60644278e+02
75              	4.61428843e+02
76              	4.62351969e+02
77              	4.63399083e+02
78              	4.64262410e+02
79              	4.65030385e+02
80              	4.65543199e+02
81              	4.65561849e+02
82              	4.65528622e+02
83              	4.65974219e+02
84              	4.66371990e+02
85              	4.66732910e+02
86              	4.67046429e+02
87              	4.67381030e+02
88              	4.67801073e+02
89              	4.68211366e+02
90              	4.68682467e+02
91              	4.69241805e+02
92              	4.69985974e+02
93              	4.70303629e+02
94              	4.70492755e+02
95              	4.71142153e+02
96              	4.71771347e+02
97              	4.72105934e+02
98              	4.72332466e+02
99              	4.72674055e+02
100             	4.73200409e+02
101             	4.73590711e+02
102             	4.74019127e+02
103             	4.74320531e+02
104             	4.74563307e+02
105             	4.75010503e+02
106             	4.75382865e+02
107             	4.75803888e+02
108             	4.76246594e+02
109             	4.76614970e+02
110             	4.76992473e+02
111             	4.77344308e+02
112             	4.77613701e+02
113             	4.77981437e+02
114             	4.78468303e+02
115             	4.79071377e+02
116             	4.79585781e+02
117             	4.79992409e+02
118             	4.79962306e+02
119             	4.79614643e+02
120             	4.79668748e+02
121             	4.79960688e+02
122             	4.80072093e+02
123             	4.79990579e+02
124             	4.80024679e+02
125             	4.80343150e+02
126             	4.80942266e+02
127             	4.81602169e+02
128             	4.82052181e+02
129             	4.82146310e+02
130             	4.82123635e+02
131             	4.82123569e+02
132             	4.82532492e+02
133             	4.82898977e+02
134             	4.83035127e+02
135             	4.83088176e+02
136             	4.83125584e+02
137             	4.83283006e+02
138             	4.83724176e+02
139             	4.84472140e+02
140             	4.85322800e+02
141             	4.85866327e+02
142             	4.86371948e+02
143             	4.86664883e+02
144             	4.87053876e+02
145             	4.87493362e+02
146             	4.87973671e+02
147             	4.88335941e+02
148             	4.88456855e+02
149             	4.88495892e+02
150             	4.88675120e+02
151             	4.89085239e+02
152             	4.89409617e+02
153             	4.89458756e+02
154             	4.89701295e+02
155             	4.90192254e+02
156             	4.90586815e+02
157             	4.90725924e+02
158             	4.90575619e+02
159             	4.90322075e+02
160             	4.90158563e+02
161             	4.89916449e+02
162             	4.89380885e+02
163             	4.89057261e+02
164             	4.88924254e+02
165             	4.88668031e+02
166             	4.88381572e+02
167             	4.88298248e+02
168             	4.88380974e+02
169             	4.88722617e+02
170             	4.89081797e+02
171             	4.89497469e+02
172             	4.89887227e+02
173             	4.90346727e+02
174             	4.90923989e+02
175             	4.91448588e+02
176             	4.91893285e+02
177             	4.92445361e+02
178             	4.92937202e+02
179             	4.93474130e+02
180             	4.93916946e+02
181             	4.94219126e+02
182             	4.94361991e+02
183             	4.94298326e+02
184             	4.93982103e+02
185             	4.93605887e+02
186             	4.93286309e+02
187             	4.93167239e+02
188             	4.92911093e+02
189             	4.92502651e+02
190             	4.91975122e+02
191             	4.91614548e+02
192             	4.91410964e+02
193             	4.90697958e+02
194             	4.89847327e+02
195             	4.88930513e+02
196             	4.88221407e+02
197             	4.87429435e+02
198             	4.86672629e+02
199             	4.86081848e+02
200             	4.85789030e+02
201             	4.85598741e+02
202             	4.85507973e+02
203             	4.85444793e+02
204             	4.85359866e+02
205             	4.85364334e+02
206             	4.85787470e+02
207             	4.85788794e+02
208             	4.85293172e+02
209             	4.84816905e+02
210             	4.84600314e+02
211             	4.84762306e+02
212             	4.84827971e+02
213             	4.85233687e+02
214             	4.85776858e+02
215             	4.86220335e+02
216             	4.86597684e+02
217             	4.87100545e+02
218             	4.87787438e+02
219             	4.88562524e+02
220             	4.89184400e+02
221             	4.89666264e+02
222             	4.90036886e+02
223             	4.90464637e+02
224             	4.91041153e+02
225             	4.91659808e+02
226             	4.92192339e+02
227             	4.92793246e+02
228             	4.93443395e+02
229             	4.94057511e+02
230             	4.94745544e+02
231             	4.95256180e+02
232             	4.95733407e+02
233             	4.96141259e+02
234             	4.96862073e+02
235             	4.97665276e+02
236             	4.98499574e+02
237             	4.99202659e+02
238             	5.00007376e+02
239             	5.00645809e+02
240             	5.01217017e+02
241             	5.01899831e+02
242             	5.02556430e+02
243             	5.03022314e+02
244             	5.03482900e+02
245             	5.03920126e+02
246             	5.04335368e+02
247             	5.04875352e+02
248             	5.05250349e+02
249             	5.05931735e+02
250             	5.06696275e+02
251             	5.07265166e+02
252             	5.07912462e+02
253             	5.08488262e+02
254             	5.09164976e+02
255             	5.09783298e+02
256             	5.10172808e+02
257             	5.10466218e+02
258             	5.10665864e+02
259             	5.10870597e+02
260             	5.11127281e+02
261             	5.11222094e+02
262             	5.11612113e+02
263             	5.12127225e+02
264             	5.12739435e+02
265             	5.13211834e+02
266             	5.13709060e+02
267             	5.13985539e+02
268             	5.14379543e+02
269             	5.14845521e+02
270             	5.15109621e+02
271             	5.15257382e+02
272             	5.15468028e+02
273             	5.15605439e+02
274             	5.15723135e+02
275             	5.15690076e+02
276             	5.15788317e+02
277             	5.16024529e+02
278             	5.16103896e+02
279             	5.16408108e+02
280             	5.16699925e+02
281             	5.17148004e+02
282             	5.17780130e+02
283             	5.18374125e+02
284             	5.18843369e+02
285             	5.19192272e+02
286             	5.19443089e+02
287             	5.19695137e+02
288             	5.19901184e+02
289             	5.20100489e+02
290             	5.20313464e+02
291             	5.20533261e+02
292             	5.20695634e+02
293             	5.20724456e+02
294             	5.20818917e+02
295             	5.20862636e+02
296             	5.21057887e+02
297             	5.21397934e+02
298             	5.21668044e+02
299             	5.21786741e+02
300             	5.21878858e+02
301             	5.21988107e+02
302             	5.22192557e+02
303             	5.21871454e+02
304             	5.21664129e+02
305             	5.21364716e+02
306             	5.21104834e+02
307             	5.21071286e+02
308             	5.21119831e+02
309             	5.21223961e+02
310             	5.21269920e+02
311             	5.21204861e+02
312             	5.21059329e+02
313             	5.20845426e+02
314             	5.20680902e+02
315             	5.20420409e+02
316             	5.20416930e+02
317             	5.20428384e+02
318             	5.20377450e+02
319             	5.20346708e+02
320             	5.20373824e+02
321             	5.20497353e+02
322             	5.20701721e+02
323             	5.20945324e+02
324             	5.21232299e+02
325             	5.21301279e+02
326             	5.21524336e+02
327             	5.21750226e+02
328             	5.22176595e+02
329             	5.22554831e+02
330             	5.22957601e+02
331             	5.23194610e+02
332             	5.23626433e+02
333             	5.24011158e+02
334             	5.24440264e+02
335             	5.24888191e+02
336             	5.25071615e+02
337             	5.25306796e+02
338             	5.25512428e+02
339             	5.25796914e+02
340             	5.25872531e+02
341             	5.26015984e+02
342             	5.26297860e+02
343             	5.26322357e+02
344             	5.26522469e+02
345             	5.26685076e+02
346             	5.26930042e+02
347             	5.27058165e+02
348             	5.27264857e+02
349             	5.27545495e+02
350             	5.27783968e+02
351             	5.27911143e+02
352             	5.28058708e+02
353             	5.28241822e+02
354             	5.28441861e+02
355             	5.28410301e+02
356             	5.28483422e+02
357             	5.28467520e+02
358             	5.28617240e+02
359             	5.28748127e+02
360             	5.28670976e+02
361             	5.28540961e+02
362             	5.28409901e+02
363             	5.28399650e+02
364             	5.28436999e+02
365             	5.28276124e+02
366             	5.28138027e+02
367             	5.28075874e+02
368             	5.28183799e+02
369             	5.28299234e+02
370             	5.28441472e+02
371             	5.28380878e+02
372             	5.28376222e+02
373             	5.28250084e+02
374             	5.28158295e+02
375             	5.28225831e+02
376             	5.28333829e+02
377             	5.28312329e+02
378             	5.28195387e+02
379             	5.28077330e+02
380             	5.28073480e+02
381             	5.27663548e+02
382             	5.27304528e+02
383             	5.27086807e+02
384             	5.26943809e+02
385             	5.26907130e+02
386             	5.26922802e+02
387             	5.27051450e+02
388             	5.26850637e+02
389             	5.26639907e+02
390             	5.26402679e+02
391             	5.26181788e+02
392             	5.26139073e+02
393             	5.26100260e+02
394             	5.26040978e+02
395             	5.26024720e+02
396             	5.26122344e+02
397             	5.26250842e+02
398             	5.26391604e+02
399             	5.26569811e+02
400             	5.26725495e+02
401             	5.26880115e+02
402             	5.27044179e+02
403             	5.27179233e+02
404             	5.27294499e+02
405             	5.27471330e+02
406             	5.27702684e+02
407             	5.27716470e+02
408             	5.28013761e+02
409             	5.28193741e+02
410             	5.28454537e+02
411             	5.28618469e+02
412             	5.28912968e+02
413             	5.29148045e+02
414             	5.29473923e+02
415             	5.29730262e+02
416             	5.30023187e+02
417             	5.30191872e+02
418             	5.30396547e+02
419             	5.30641063e+02
420             	5.30675731e+02
421             	5.30766188e+02
422             	5.30955675e+02
423             	5.30941694e+02
424             	5.31060209e+02
425             	5.31129180e+02
426             	5.31330097e+02
427             	5.31428306e+02
428             	5.31605551e+02
429             	5.31841161e+02
430             	5.32052995e+02
431             	5.32195721e+02
432             	5.32263982e+02
433             	5.32305902e+02
434             	5.32364169e+02
435             	5.32454996e+02
436             	5.32575143e+02
437             	5.32717478e+02
438             	5.32880599e+02
439             	5.33022793e+02
440             	5.32949430e+02
441             	5.33022157e+02
442             	5.33084899e+02
443             	5.33277863e+02
444             	5.33381253e+02
445             	5.33582924e+02
446             	5.33690105e+02
447             	5.33880925e+02
448             	5.33973873e+02
449             	5.34152975e+02
450             	5.34231466e+02
451             	5.34360596e+02
452             	5.34366120e+02
453             	5.34442737e+02
454             	5.34536938e+02
455             	5.34619448e+02
456             	5.34647277e+02
457             	5.34648259e+02
458             	5.34640497e+02
459             	5.34644969e+02
460             	5.34672861e+02
461             	5.34741162e+02
462             	5.34748985e+02
463             	5.34813417e+02
464             	5.34730640e+02
465             	5.34744863e+02
466             	5.34669329e+02
467             	5.34788809e+02
468             	5.34771979e+02
469             	5.34829215e+02
470             	5.34773535e+02
471             	5.34796029e+02
472             	5.34953817e+02
473             	5.34915296e+02
474             	5.34937173e+02
475             	5.34960877e+02
476             	5.34937006e+02
477             	5.34866261e+02
478             	5.34771794e+02
479             	5.34725988e+02
480             	5.34486858e+02
481             	5.34411818e+02
482             	5.34488750e+02
483             	5.34378198e+02
484             	5.34354556e+02
485             	5.34440065e+02
486             	5.34401855e+02
487             	5.34466846e+02
488             	5.34576886e+02
489             	5.34728941e+02
490             	5.34697698e+02
491             	5.34748753e+02
492             	5.34930390e+02
493             	5.34879520e+02
494             	5.34988982e+02
495             	5.35013236e+02
496             	5.35118873e+02
497             	5.35120998e+02
498             	5.35210083e+02
499             	5.35399857e+02
500             	5.35376575e+02
501             	5.35422032e+02
502             	5.35532669e+02
503             	5.35663972e+02
504             	5.35589692e+02
505             	5.35593279e+02
506             	5.35681645e+02
507             	5.35608309e+02
508             	5.35619504e+02
509             	5.35730833e+02
510             	5.35675298e+02
511             	5.35707954e+02
512             	5.35830528e+02
513             	5.35813838e+02
514             	5.35871101e+02
515             	5.36002978e+02
516             	5.35977327e+02
517             	5.36034089e+02
518             	5.36164315e+02
519             	5.36090533e+02
520             	5.36079665e+02
521             	5.36192899e+02
522             	5.36259402e+02
523             	5.36308836e+02
524             	5.36167208e+02
525             	5.36123405e+02
526             	5.36177664e+02
527             	5.36219661e+02
528             	5.36105012e+02
529             	5.36133213e+02
530             	5.36246862e+02
531             	5.36134397e+02
532             	5.36112085e+02
533             	5.36000446e+02
534             	5.36016503e+02
535             	5.35949484e+02
536             	5.35987481e+02
537             	5.36043713e+02
538             	5.36081181e+02
539             	5.36036912e+02
540             	5.35915309e+02
541             	5.35846709e+02
542             	5.35783624e+02
543             	5.35756976e+02
544             	5.35557401e+02
545             	5.35537268e+02
546             	5.35543111e+02
547             	5.35589126e+02
548             	5.35526247e+02
549             	5.35573916e+02
550             	5.35711740e+02
551             	5.35810518e+02
552             	5.35861496e+02
553             	5.35896462e+02
554             	5.35929967e+02
555             	5.35933431e+02
556             	5.35887701e+02
557             	5.35665507e+02
558             	5.35598286e+02
559             	5.35685912e+02
560             	5.35544101e+02
561             	5.35473944e+02
562             	5.35506183e+02
563             	5.35355295e+02
564             	5.35322704e+02
565             	5.35423057e+02
566             	5.35595892e+02
567             	5.35518984e+02
568             	5.35567493e+02
569             	5.35710195e+02
570             	5.35695939e+02
571             	5.35751369e+02
572             	5.35881210e+02
573             	5.35823566e+02
574             	5.35825123e+02
575             	5.35883497e+02
576             	5.35922035e+02
577             	5.35934965e+02
578             	5.35937475e+02
579             	5.35779316e+02
580             	5.35752256e+02
581             	5.35852358e+02
582             	5.35802662e+02
583             	5.35834586e+02
584             	5.35956214e+02
585             	5.35895257e+02
586             	5.35930182e+02
587             	5.36077921e+02
588             	5.36056877e+02
589             	5.36119036e+02
590             	5.36261712e+02
591             	5.36246420e+02
592             	5.36295440e+02
593             	5.36394538e+02
594             	5.36510069e+02
595             	5.36413321e+02
596             	5.36395680e+02
597             	5.36451913e+02
598             	5.36374831e+02
599             	5.36366947e+02
600             	5.36424394e+02
601             	5.36520700e+02
602             	5.36420477e+02
603             	5.36406433e+02
604             	5.36487995e+02
605             	5.36564988e+02
606             	5.36447575e+02
607             	5.36445361e+02
608             	5.36590394e+02
609             	5.36523688e+02
610             	5.36564271e+02
611             	5.36724784e+02
612             	5.36672751e+02
613             	5.36685818e+02
614             	5.36775258e+02
615             	5.36708138e+02
616             	5.36707543e+02
617             	5.36770611e+02
618             	5.36865240e+02
619             	5.36766161e+02
620             	5.36739032e+02
621             	5.36782584e+02
