# Region        : cellZone component_1
# Cells         : 66
# Volume        : 1.14013774e-01
# Time          	volAverage(T)
1               	3.00603510e+02
2               	3.01197759e+02
3               	3.01752862e+02
4               	3.02287444e+02
5               	3.02812389e+02
6               	3.03332220e+02
7               	3.03848090e+02
8               	3.04362413e+02
9               	3.04877432e+02
10              	3.05384959e+02
11              	3.05879050e+02
12              	3.06360242e+02
13              	3.06830147e+02
14              	3.07291134e+02
15              	3.07752002e+02
16              	3.08226546e+02
17              	3.08701175e+02
18              	3.09170141e+02
19              	3.09634649e+02
20              	3.10086368e+02
21              	3.10545485e+02
22              	3.10984471e+02
23              	3.11411490e+02
24              	3.11832398e+02
25              	3.12250858e+02
26              	3.12674053e+02
27              	3.13097040e+02
28              	3.13510694e+02
29              	3.13923987e+02
30              	3.14337136e+02
31              	3.14741758e+02
32              	3.15142642e+02
33              	3.15539336e+02
34              	3.15935324e+02
35              	3.16329311e+02
36              	3.16713528e+02
37              	3.17083456e+02
38              	3.17436694e+02
39              	3.17778469e+02
40              	3.18111774e+02
41              	3.18433294e+02
42              	3.18749627e+02
43              	3.19075400e+02
44              	3.19390410e+02
45              	3.19702005e+02
46              	3.20010236e+02
47              	3.20306753e+02
48              	3.20595062e+02
49              	3.20880476e+02
50              	3.21166001e+02
51              	3.21448829e+02
52              	3.21737824e+02
53              	3.22025073e+02
54              	3.22314939e+02
55              	3.22602438e+02
56              	3.22896316e+02
57              	3.23179784e+02
58              	3.23460015e+02
59              	3.23728054e+02
60              	3.23992968e+02
61              	3.24256367e+02
62              	3.24515695e+02
63              	3.24766491e+02
64              	3.25017535e+02
65              	3.25255012e+02
66              	3.25488519e+02
67              	3.25719052e+02
68              	3.25944406e+02
69              	3.26159457e+02
70              	3.26384084e+02
71              	3.26610476e+02
72              	3.26831681e+02
73              	3.27039749e+02
74              	3.27248202e+02
75              	3.27451842e+02
76              	3.27649132e+02
77              	3.27845886e+02
78              	3.28033555e+02
79              	3.28219310e+02
80              	3.28399088e+02
81              	3.28572733e+02
82              	3.28740925e+02
83              	3.28912477e+02
84              	3.29083997e+02
85              	3.29248721e+02
86              	3.29416906e+02
87              	3.29585140e+02
88              	3.29739966e+02
89              	3.29893142e+02
90              	3.30045321e+02
91              	3.30202238e+02
92              	3.30352671e+02
93              	3.30497947e+02
94              	3.30640503e+02
95              	3.30780784e+02
96              	3.30924266e+02
97              	3.31060979e+02
98              	3.31202672e+02
99              	3.31346538e+02
100             	3.31488471e+02
101             	3.31631019e+02
102             	3.31758308e+02
103             	3.31882700e+02
104             	3.32004266e+02
105             	3.32121616e+02
106             	3.32234822e+02
107             	3.32345648e+02
108             	3.32449313e+02
109             	3.32558155e+02
110             	3.32671561e+02
111             	3.32786952e+02
112             	3.32903801e+02
113             	3.33021771e+02
114             	3.33133634e+02
115             	3.33243187e+02
116             	3.33351542e+02
117             	3.33443482e+02
118             	3.33537360e+02
119             	3.33631452e+02
120             	3.33724371e+02
121             	3.33815906e+02
122             	3.33908236e+02
123             	3.33998546e+02
124             	3.34080711e+02
125             	3.34170724e+02
126             	3.34263511e+02
127             	3.34357736e+02
128             	3.34439437e+02
129             	3.34524789e+02
130             	3.34610716e+02
131             	3.34695552e+02
132             	3.34773041e+02
133             	3.34843983e+02
134             	3.34914550e+02
135             	3.34983676e+02
136             	3.35050556e+02
137             	3.35115360e+02
138             	3.35179293e+02
139             	3.35246759e+02
140             	3.35316702e+02
141             	3.35383357e+02
142             	3.35450798e+02
143             	3.35518910e+02
144             	3.35586918e+02
145             	3.35653562e+02
146             	3.35719171e+02
147             	3.35784114e+02
148             	3.35847518e+02
149             	3.35909346e+02
150             	3.35969979e+02
151             	3.36030454e+02
152             	3.36090477e+02
153             	3.36152787e+02
154             	3.36212185e+02
155             	3.36270852e+02
156             	3.36328395e+02
157             	3.36382194e+02
158             	3.36436441e+02
159             	3.36490200e+02
160             	3.36542794e+02
161             	3.36593997e+02
162             	3.36643808e+02
163             	3.36692185e+02
164             	3.36739712e+02
165             	3.36788204e+02
166             	3.36836157e+02
167             	3.36884131e+02
168             	3.36933492e+02
169             	3.36981882e+02
170             	3.37029018e+02
171             	3.37074973e+02
172             	3.37120049e+02
173             	3.37165399e+02
174             	3.37210793e+02
175             	3.37255787e+02
176             	3.37301124e+02
177             	3.37346167e+02
178             	3.37390898e+02
179             	3.37434401e+02
180             	3.37477013e+02
181             	3.37518989e+02
182             	3.37558970e+02
183             	3.37598778e+02
184             	3.37637698e+02
185             	3.37676056e+02
186             	3.37713766e+02
187             	3.37750638e+02
188             	3.37786938e+02
189             	3.37822848e+02
190             	3.37858203e+02
191             	3.37893488e+02
192             	3.37928361e+02
193             	3.37962904e+02
194             	3.37997264e+02
195             	3.38031434e+02
196             	3.38065419e+02
197             	3.38099572e+02
198             	3.38133412e+02
199             	3.38166947e+02
200             	3.38199500e+02
201             	3.38231944e+02
202             	3.38263758e+02
203             	3.38295261e+02
204             	3.38326656e+02
205             	3.38357987e+02
206             	3.38388747e+02
207             	3.38418918e+02
208             	3.38449057e+02
209             	3.38478297e+02
210             	3.38507244e+02
211             	3.38536048e+02
212             	3.38564635e+02
213             	3.38592878e+02
214             	3.38620820e+02
215             	3.38648506e+02
216             	3.38675979e+02
217             	3.38703221e+02
218             	3.38730309e+02
219             	3.38757068e+02
220             	3.38783932e+02
221             	3.38811552e+02
222             	3.38838764e+02
223             	3.38865721e+02
224             	3.38892075e+02
225             	3.38917957e+02
226             	3.38943365e+02
227             	3.38968556e+02
228             	3.38993231e+02
229             	3.39017233e+02
230             	3.39040781e+02
231             	3.39064717e+02
232             	3.39089026e+02
233             	3.39112833e+02
234             	3.39136424e+02
235             	3.39159956e+02
236             	3.39183223e+02
237             	3.39206261e+02
238             	3.39228677e+02
239             	3.39251121e+02
240             	3.39273395e+02
241             	3.39295462e+02
242             	3.39317237e+02
243             	3.39338842e+02
244             	3.39360535e+02
245             	3.39382066e+02
246             	3.39403492e+02
247             	3.39424871e+02
248             	3.39446379e+02
249             	3.39467780e+02
250             	3.39488637e+02
251             	3.39509280e+02
252             	3.39529674e+02
253             	3.39549605e+02
254             	3.39569191e+02
255             	3.39588566e+02
256             	3.39607892e+02
257             	3.39626887e+02
258             	3.39645629e+02
259             	3.39664263e+02
260             	3.39682743e+02
261             	3.39700839e+02
262             	3.39718539e+02
263             	3.39736371e+02
264             	3.39754212e+02
265             	3.39772053e+02
266             	3.39790152e+02
267             	3.39808089e+02
268             	3.39825939e+02
269             	3.39843779e+02
270             	3.39861459e+02
271             	3.39878984e+02
272             	3.39896338e+02
273             	3.39913479e+02
274             	3.39930336e+02
275             	3.39947021e+02
276             	3.39963558e+02
277             	3.39979910e+02
278             	3.39996077e+02
279             	3.40012063e+02
280             	3.40027924e+02
281             	3.40043889e+02
282             	3.40059832e+02
283             	3.40075631e+02
284             	3.40091194e+02
285             	3.40106681e+02
286             	3.40122093e+02
287             	3.40137426e+02
288             	3.40152595e+02
289             	3.40167626e+02
290             	3.40182723e+02
291             	3.40197822e+02
292             	3.40212849e+02
293             	3.40227899e+02
294             	3.40242992e+02
295             	3.40257919e+02
296             	3.40272697e+02
297             	3.40287341e+02
298             	3.40301870e+02
299             	3.40316349e+02
300             	3.40330712e+02
301             	3.40344915e+02
302             	3.40358978e+02
303             	3.40372912e+02
304             	3.40386701e+02
305             	3.40400350e+02
306             	3.40413860e+02
307             	3.40427158e+02
308             	3.40440499e+02
309             	3.40453852e+02
310             	3.40466907e+02
311             	3.40479960e+02
312             	3.40492928e+02
313             	3.40505766e+02
314             	3.40518553e+02
315             	3.40531598e+02
316             	3.40544450e+02
317             	3.40557207e+02
318             	3.40569939e+02
319             	3.40582552e+02
320             	3.40595181e+02
321             	3.40607749e+02
322             	3.40620167e+02
323             	3.40632365e+02
324             	3.40644020e+02
325             	3.40655646e+02
326             	3.40667210e+02
327             	3.40678674e+02
328             	3.40690045e+02
329             	3.40701430e+02
330             	3.40712878e+02
331             	3.40724437e+02
332             	3.40736029e+02
333             	3.40747631e+02
334             	3.40759242e+02
335             	3.40770818e+02
336             	3.40782326e+02
337             	3.40793732e+02
338             	3.40804962e+02
339             	3.40816029e+02
340             	3.40827054e+02
341             	3.40838049e+02
342             	3.40849002e+02
343             	3.40859916e+02
344             	3.40870794e+02
345             	3.40881641e+02
346             	3.40892357e+02
347             	3.40902973e+02
348             	3.40913446e+02
349             	3.40923887e+02
350             	3.40934292e+02
351             	3.40944633e+02
352             	3.40954889e+02
353             	3.40965036e+02
354             	3.40975067e+02
355             	3.40985040e+02
356             	3.40994906e+02
357             	3.41004771e+02
358             	3.41014656e+02
359             	3.41024541e+02
360             	3.41034389e+02
361             	3.41044152e+02
362             	3.41053781e+02
363             	3.41063257e+02
364             	3.41072589e+02
365             	3.41081900e+02
366             	3.41091236e+02
367             	3.41100574e+02
368             	3.41109976e+02
369             	3.41119342e+02
370             	3.41128656e+02
371             	3.41137941e+02
372             	3.41147185e+02
373             	3.41156379e+02
374             	3.41165522e+02
375             	3.41174601e+02
376             	3.41183604e+02
377             	3.41192515e+02
378             	3.41201338e+02
379             	3.41210107e+02
380             	3.41218823e+02
381             	3.41227508e+02
382             	3.41236142e+02
383             	3.41244721e+02
384             	3.41253255e+02
385             	3.41261738e+02
386             	3.41270165e+02
387             	3.41278528e+02
388             	3.41286854e+02
389             	3.41295108e+02
390             	3.41303301e+02
391             	3.41311440e+02
392             	3.41319565e+02
393             	3.41327639e+02
394             	3.41335672e+02
395             	3.41343674e+02
396             	3.41351642e+02
397             	3.41359564e+02
398             	3.41367442e+02
399             	3.41375235e+02
400             	3.41382963e+02
401             	3.41390648e+02
402             	3.41398284e+02
403             	3.41405875e+02
404             	3.41413427e+02
405             	3.41420946e+02
406             	3.41428435e+02
407             	3.41435893e+02
408             	3.41443327e+02
409             	3.41450741e+02
410             	3.41458111e+02
411             	3.41465452e+02
412             	3.41472770e+02
413             	3.41480073e+02
414             	3.41487372e+02
415             	3.41494650e+02
416             	3.41501898e+02
417             	3.41509117e+02
418             	3.41516289e+02
419             	3.41523422e+02
420             	3.41530510e+02
421             	3.41537522e+02
422             	3.41544500e+02
423             	3.41551410e+02
424             	3.41558283e+02
425             	3.41565114e+02
426             	3.41571913e+02
427             	3.41578673e+02
428             	3.41585421e+02
429             	3.41592139e+02
430             	3.41598832e+02
431             	3.41605497e+02
432             	3.41612141e+02
433             	3.41618739e+02
434             	3.41625279e+02
435             	3.41631798e+02
436             	3.41638304e+02
437             	3.41644779e+02
438             	3.41651213e+02
439             	3.41657610e+02
440             	3.41663987e+02
441             	3.41670325e+02
442             	3.41676636e+02
443             	3.41682920e+02
444             	3.41689164e+02
445             	3.41695372e+02
446             	3.41701530e+02
447             	3.41707646e+02
448             	3.41713729e+02
449             	3.41719792e+02
450             	3.41725833e+02
451             	3.41731830e+02
452             	3.41737801e+02
453             	3.41743717e+02
454             	3.41749615e+02
455             	3.41755487e+02
456             	3.41761311e+02
457             	3.41767085e+02
458             	3.41772825e+02
459             	3.41778534e+02
460             	3.41784211e+02
461             	3.41789855e+02
462             	3.41795500e+02
463             	3.41801142e+02
464             	3.41806746e+02
465             	3.41812320e+02
466             	3.41817873e+02
467             	3.41823403e+02
468             	3.41828903e+02
469             	3.41834368e+02
470             	3.41839793e+02
471             	3.41845180e+02
472             	3.41850533e+02
473             	3.41855849e+02
474             	3.41861135e+02
475             	3.41866388e+02
476             	3.41871609e+02
477             	3.41876789e+02
478             	3.41881939e+02
479             	3.41887050e+02
480             	3.41892132e+02
481             	3.41897188e+02
482             	3.41902214e+02
483             	3.41907219e+02
484             	3.41912198e+02
485             	3.41917154e+02
486             	3.41922080e+02
487             	3.41926982e+02
488             	3.41931856e+02
489             	3.41936704e+02
490             	3.41941522e+02
491             	3.41946312e+02
492             	3.41951070e+02
493             	3.41955804e+02
494             	3.41960523e+02
495             	3.41965211e+02
496             	3.41969868e+02
497             	3.41974498e+02
498             	3.41979102e+02
499             	3.41983682e+02
500             	3.41988241e+02
501             	3.41992773e+02
502             	3.41997277e+02
503             	3.42001754e+02
504             	3.42006205e+02
505             	3.42010630e+02
506             	3.42015028e+02
507             	3.42019399e+02
508             	3.42023744e+02
509             	3.42028062e+02
510             	3.42032355e+02
511             	3.42036621e+02
512             	3.42040863e+02
513             	3.42045075e+02
514             	3.42049256e+02
515             	3.42053416e+02
516             	3.42057553e+02
517             	3.42061691e+02
518             	3.42065792e+02
519             	3.42069864e+02
520             	3.42073910e+02
521             	3.42077930e+02
522             	3.42081924e+02
523             	3.42085893e+02
524             	3.42089836e+02
525             	3.42093750e+02
526             	3.42097633e+02
527             	3.42101494e+02
528             	3.42105332e+02
529             	3.42109147e+02
530             	3.42112937e+02
531             	3.42116704e+02
532             	3.42120449e+02
533             	3.42124167e+02
534             	3.42127864e+02
535             	3.42131542e+02
536             	3.42135201e+02
537             	3.42138846e+02
538             	3.42142476e+02
539             	3.42146095e+02
540             	3.42149698e+02
541             	3.42153285e+02
542             	3.42156855e+02
543             	3.42160408e+02
544             	3.42163938e+02
545             	3.42167441e+02
546             	3.42170919e+02
547             	3.42174392e+02
548             	3.42177840e+02
549             	3.42181269e+02
550             	3.42184685e+02
551             	3.42188089e+02
552             	3.42191470e+02
553             	3.42194822e+02
554             	3.42198154e+02
555             	3.42201465e+02
556             	3.42204752e+02
557             	3.42208016e+02
558             	3.42211272e+02
559             	3.42214510e+02
560             	3.42217725e+02
561             	3.42220921e+02
562             	3.42224097e+02
563             	3.42227263e+02
564             	3.42230415e+02
565             	3.42233552e+02
566             	3.42236670e+02
567             	3.42239770e+02
568             	3.42242850e+02
569             	3.42245915e+02
570             	3.42248965e+02
571             	3.42252003e+02
572             	3.42255023e+02
573             	3.42258032e+02
574             	3.42261025e+02
575             	3.42264005e+02
576             	3.42266963e+02
577             	3.42269900e+02
578             	3.42272810e+02
579             	3.42275695e+02
580             	3.42278569e+02
581             	3.42281434e+02
582             	3.42284287e+02
583             	3.42287134e+02
584             	3.42289970e+02
585             	3.42292794e+02
586             	3.42295601e+02
587             	3.42298388e+02
588             	3.42301156e+02
589             	3.42303904e+02
590             	3.42306631e+02
591             	3.42309342e+02
592             	3.42312035e+02
593             	3.42314711e+02
594             	3.42317369e+02
595             	3.42320016e+02
596             	3.42322658e+02
597             	3.42325294e+02
598             	3.42327925e+02
599             	3.42330550e+02
600             	3.42333171e+02
601             	3.42335786e+02
602             	3.42338397e+02
603             	3.42340994e+02
604             	3.42343579e+02
605             	3.42346149e+02
606             	3.42348697e+02
607             	3.42351217e+02
608             	3.42353717e+02
609             	3.42356204e+02
610             	3.42358681e+02
611             	3.42361149e+02
612             	3.42363621e+02
613             	3.42366088e+02
614             	3.42368559e+02
615             	3.42371021e+02
616             	3.42373458e+02
617             	3.42375883e+02
618             	3.42378290e+02
619             	3.42380676e+02
620             	3.42383039e+02
621             	3.42385379e+02
