# Region        : cellZone component_3
# Cells         : 12
# Volume        : 1.76092452e-02
# Time          	volAverage(T)
1               	3.03880960e+02
2               	3.07671614e+02
3               	3.10534960e+02
4               	3.12990193e+02
5               	3.15381190e+02
6               	3.17814457e+02
7               	3.20263960e+02
8               	3.22761994e+02
9               	3.25320743e+02
10              	3.27941606e+02
11              	3.30520698e+02
12              	3.32985450e+02
13              	3.35360005e+02
14              	3.37740836e+02
15              	3.39910956e+02
16              	3.41976475e+02
17              	3.43895102e+02
18              	3.45756193e+02
19              	3.47699069e+02
20              	3.49544581e+02
21              	3.51399687e+02
22              	3.53075303e+02
23              	3.54644380e+02
24              	3.56089834e+02
25              	3.57184349e+02
26              	3.58070643e+02
27              	3.58664809e+02
28              	3.59040603e+02
29              	3.59261948e+02
30              	3.59491428e+02
31              	3.59610235e+02
32              	3.59713672e+02
33              	3.59850914e+02
34              	3.60097573e+02
35              	3.60505861e+02
36              	3.60735854e+02
37              	3.60784685e+02
38              	3.60618581e+02
39              	3.60163638e+02
40              	3.59395824e+02
41              	3.58731163e+02
42              	3.58273191e+02
43              	3.58149290e+02
44              	3.58168788e+02
45              	3.58415627e+02
46              	3.58654000e+02
47              	3.58903631e+02
48              	3.59172816e+02
49              	3.59501004e+02
50              	3.59858207e+02
51              	3.60261259e+02
52              	3.60389256e+02
53              	3.60466142e+02
54              	3.60549404e+02
55              	3.60322747e+02
56              	3.59967266e+02
57              	3.59601580e+02
58              	3.59314427e+02
59              	3.59299900e+02
60              	3.59393229e+02
61              	3.59458872e+02
62              	3.59379799e+02
63              	3.59358320e+02
64              	3.59390968e+02
65              	3.59411859e+02
66              	3.59386359e+02
67              	3.59577096e+02
68              	3.59634405e+02
69              	3.59500422e+02
70              	3.59296660e+02
71              	3.59225101e+02
72              	3.59482799e+02
73              	3.59749875e+02
74              	3.59845493e+02
75              	3.59960009e+02
76              	3.60062950e+02
77              	3.60175744e+02
78              	3.60369607e+02
79              	3.60510635e+02
80              	3.60644765e+02
81              	3.60749490e+02
82              	3.60809331e+02
83              	3.60886385e+02
84              	3.61033968e+02
85              	3.61279285e+02
86              	3.61640967e+02
87              	3.62089493e+02
88              	3.62580271e+02
89              	3.63110358e+02
90              	3.63684067e+02
91              	3.64287011e+02
92              	3.64889580e+02
93              	3.65511900e+02
94              	3.66142237e+02
95              	3.66759238e+02
96              	3.67323193e+02
97              	3.67857090e+02
98              	3.68352336e+02
99              	3.68810524e+02
100             	3.69262317e+02
101             	3.69718524e+02
102             	3.70181944e+02
103             	3.70602955e+02
104             	3.70957420e+02
105             	3.71283215e+02
106             	3.71617782e+02
107             	3.71979585e+02
108             	3.72370058e+02
109             	3.72789166e+02
110             	3.73232068e+02
111             	3.73659815e+02
112             	3.73930596e+02
113             	3.74247030e+02
114             	3.74574120e+02
115             	3.74883377e+02
116             	3.75015215e+02
117             	3.75156673e+02
118             	3.75314614e+02
119             	3.75331302e+02
120             	3.75357052e+02
121             	3.75385913e+02
122             	3.75414487e+02
123             	3.75451607e+02
124             	3.75495469e+02
125             	3.75542705e+02
126             	3.75590437e+02
127             	3.75604266e+02
128             	3.75665615e+02
129             	3.75749653e+02
130             	3.75852302e+02
131             	3.75957125e+02
132             	3.76073011e+02
133             	3.76202834e+02
134             	3.76343623e+02
135             	3.76455025e+02
136             	3.76525613e+02
137             	3.76601214e+02
138             	3.76675546e+02
139             	3.76749361e+02
140             	3.76816202e+02
141             	3.76846952e+02
142             	3.76822749e+02
143             	3.76771419e+02
144             	3.76751844e+02
145             	3.76758304e+02
146             	3.76751221e+02
147             	3.76685049e+02
148             	3.76665089e+02
149             	3.76605777e+02
150             	3.76594561e+02
151             	3.76617296e+02
152             	3.76565912e+02
153             	3.76590436e+02
154             	3.76675019e+02
155             	3.76730544e+02
156             	3.76787859e+02
157             	3.76811095e+02
158             	3.76872842e+02
159             	3.76937719e+02
160             	3.76972813e+02
161             	3.76983995e+02
162             	3.76978016e+02
163             	3.76990100e+02
164             	3.76970023e+02
165             	3.76920962e+02
166             	3.76909499e+02
167             	3.76854152e+02
168             	3.76813810e+02
169             	3.76786606e+02
170             	3.76788846e+02
171             	3.76741579e+02
172             	3.76737207e+02
173             	3.76732771e+02
174             	3.76763695e+02
175             	3.76808771e+02
176             	3.76825447e+02
177             	3.76808976e+02
178             	3.76818776e+02
179             	3.76845159e+02
180             	3.76860428e+02
181             	3.76830931e+02
182             	3.76811206e+02
183             	3.76798832e+02
184             	3.76722921e+02
185             	3.76680306e+02
186             	3.76672694e+02
187             	3.76609269e+02
188             	3.76578911e+02
189             	3.76567832e+02
190             	3.76504029e+02
191             	3.76504475e+02
192             	3.76486888e+02
193             	3.76488955e+02
194             	3.76501261e+02
195             	3.76519036e+02
196             	3.76508329e+02
197             	3.76487450e+02
198             	3.76465595e+02
199             	3.76441850e+02
200             	3.76388756e+02
201             	3.76332767e+02
202             	3.76235254e+02
203             	3.76179185e+02
204             	3.76155737e+02
205             	3.76077893e+02
206             	3.76030675e+02
207             	3.76014293e+02
208             	3.76012113e+02
209             	3.75972401e+02
210             	3.75948227e+02
211             	3.75929354e+02
212             	3.75921228e+02
213             	3.75922925e+02
214             	3.75924290e+02
215             	3.75920740e+02
216             	3.75910559e+02
217             	3.75898379e+02
218             	3.75873567e+02
219             	3.75842314e+02
220             	3.75818438e+02
221             	3.75794413e+02
222             	3.75710950e+02
223             	3.75653788e+02
224             	3.75638711e+02
225             	3.75576222e+02
226             	3.75540560e+02
227             	3.75530570e+02
228             	3.75537523e+02
229             	3.75545109e+02
230             	3.75552400e+02
231             	3.75558141e+02
232             	3.75563746e+02
233             	3.75562946e+02
234             	3.75556463e+02
235             	3.75547374e+02
236             	3.75536796e+02
237             	3.75531823e+02
238             	3.75524119e+02
239             	3.75508855e+02
240             	3.75487382e+02
241             	3.75451592e+02
242             	3.75433768e+02
243             	3.75415553e+02
244             	3.75338510e+02
245             	3.75292758e+02
246             	3.75280423e+02
247             	3.75277666e+02
248             	3.75220271e+02
249             	3.75192205e+02
250             	3.75188099e+02
251             	3.75198426e+02
252             	3.75208122e+02
253             	3.75218385e+02
254             	3.75223481e+02
255             	3.75222903e+02
256             	3.75220599e+02
257             	3.75224099e+02
258             	3.75219953e+02
259             	3.75213328e+02
260             	3.75208886e+02
261             	3.75203567e+02
262             	3.75195790e+02
263             	3.75187634e+02
264             	3.75181041e+02
265             	3.75173445e+02
266             	3.75164207e+02
267             	3.75156753e+02
268             	3.75151127e+02
269             	3.75146868e+02
270             	3.75141291e+02
271             	3.75137372e+02
272             	3.75131674e+02
273             	3.75124324e+02
274             	3.75117352e+02
275             	3.75110789e+02
276             	3.75104082e+02
277             	3.75097154e+02
278             	3.75089907e+02
279             	3.75083696e+02
280             	3.75078937e+02
281             	3.75075678e+02
282             	3.75073878e+02
283             	3.75075963e+02
284             	3.75074957e+02
285             	3.75069976e+02
286             	3.75064680e+02
287             	3.75059559e+02
288             	3.75054657e+02
289             	3.75050431e+02
290             	3.75048631e+02
291             	3.75045440e+02
292             	3.75042231e+02
293             	3.75039527e+02
294             	3.75037339e+02
295             	3.75034980e+02
296             	3.75032262e+02
297             	3.75028614e+02
298             	3.75025774e+02
299             	3.75022425e+02
300             	3.75019221e+02
301             	3.75014950e+02
302             	3.75011402e+02
303             	3.75008327e+02
304             	3.75005443e+02
305             	3.75001264e+02
306             	3.74998421e+02
307             	3.74996289e+02
308             	3.74994357e+02
309             	3.74992613e+02
310             	3.74990882e+02
311             	3.74989990e+02
312             	3.74990254e+02
313             	3.74993381e+02
314             	3.74995897e+02
315             	3.74996550e+02
316             	3.74997331e+02
317             	3.74997352e+02
318             	3.74997182e+02
319             	3.74996955e+02
320             	3.74996712e+02
321             	3.74996550e+02
322             	3.74996235e+02
323             	3.74997632e+02
324             	3.74997181e+02
325             	3.74996218e+02
326             	3.74995756e+02
327             	3.74995126e+02
328             	3.74994564e+02
329             	3.74994225e+02
330             	3.74994082e+02
331             	3.74994291e+02
332             	3.74994712e+02
333             	3.74995569e+02
334             	3.74996531e+02
335             	3.74997714e+02
336             	3.74999035e+02
337             	3.75000557e+02
338             	3.75002267e+02
339             	3.74999131e+02
340             	3.74999290e+02
341             	3.75000737e+02
342             	3.75002465e+02
343             	3.75004150e+02
344             	3.75005982e+02
345             	3.75009508e+02
346             	3.75014355e+02
347             	3.75019287e+02
348             	3.75023519e+02
349             	3.75027801e+02
350             	3.75032080e+02
351             	3.75034895e+02
352             	3.75038573e+02
353             	3.75043448e+02
354             	3.75047149e+02
355             	3.75050296e+02
356             	3.75053771e+02
357             	3.75058433e+02
358             	3.75064553e+02
359             	3.75068791e+02
360             	3.75071743e+02
361             	3.75074925e+02
362             	3.75076738e+02
363             	3.75077077e+02
364             	3.75078293e+02
365             	3.75080346e+02
366             	3.75082216e+02
367             	3.75083245e+02
368             	3.75086284e+02
369             	3.75089817e+02
370             	3.75093727e+02
371             	3.75098239e+02
372             	3.75103518e+02
373             	3.75109841e+02
374             	3.75116740e+02
375             	3.75124438e+02
376             	3.75131639e+02
377             	3.75138420e+02
378             	3.75144920e+02
379             	3.75151304e+02
380             	3.75158616e+02
381             	3.75165877e+02
382             	3.75172960e+02
383             	3.75179281e+02
384             	3.75185837e+02
385             	3.75192250e+02
386             	3.75199124e+02
387             	3.75206220e+02
388             	3.75213467e+02
389             	3.75220671e+02
390             	3.75228202e+02
391             	3.75236208e+02
392             	3.75244243e+02
393             	3.75252625e+02
394             	3.75260537e+02
395             	3.75268756e+02
396             	3.75276368e+02
397             	3.75283868e+02
398             	3.75291652e+02
399             	3.75299745e+02
400             	3.75308034e+02
401             	3.75316130e+02
402             	3.75324882e+02
403             	3.75333584e+02
404             	3.75342054e+02
405             	3.75350345e+02
406             	3.75358449e+02
407             	3.75367179e+02
408             	3.75375154e+02
409             	3.75382312e+02
410             	3.75388083e+02
411             	3.75393857e+02
412             	3.75399886e+02
413             	3.75405754e+02
414             	3.75411726e+02
415             	3.75417531e+02
416             	3.75423567e+02
417             	3.75429356e+02
418             	3.75435490e+02
419             	3.75441990e+02
420             	3.75449148e+02
421             	3.75456432e+02
422             	3.75463977e+02
423             	3.75471597e+02
424             	3.75480021e+02
425             	3.75488891e+02
426             	3.75497991e+02
427             	3.75507170e+02
428             	3.75516510e+02
429             	3.75526286e+02
430             	3.75535590e+02
431             	3.75544701e+02
432             	3.75553716e+02
433             	3.75563021e+02
434             	3.75572062e+02
435             	3.75580622e+02
436             	3.75589077e+02
437             	3.75597420e+02
438             	3.75605674e+02
439             	3.75613430e+02
440             	3.75621339e+02
441             	3.75629394e+02
442             	3.75637594e+02
443             	3.75646096e+02
444             	3.75654647e+02
445             	3.75663232e+02
446             	3.75671863e+02
447             	3.75680932e+02
448             	3.75689848e+02
449             	3.75698659e+02
450             	3.75707463e+02
451             	3.75716275e+02
452             	3.75725101e+02
453             	3.75733971e+02
454             	3.75742825e+02
455             	3.75751816e+02
456             	3.75760772e+02
457             	3.75769867e+02
458             	3.75778876e+02
459             	3.75787191e+02
460             	3.75795625e+02
461             	3.75804803e+02
462             	3.75813466e+02
463             	3.75821799e+02
464             	3.75830018e+02
465             	3.75838213e+02
466             	3.75846526e+02
467             	3.75854737e+02
468             	3.75862669e+02
469             	3.75870896e+02
470             	3.75877948e+02
471             	3.75884270e+02
472             	3.75890816e+02
473             	3.75897043e+02
474             	3.75903550e+02
475             	3.75910330e+02
476             	3.75917451e+02
477             	3.75925019e+02
478             	3.75933089e+02
479             	3.75941525e+02
480             	3.75949971e+02
481             	3.75957868e+02
482             	3.75966631e+02
483             	3.75975731e+02
484             	3.75984909e+02
485             	3.75994214e+02
486             	3.76004007e+02
487             	3.76013920e+02
488             	3.76023928e+02
489             	3.76034089e+02
490             	3.76044329e+02
491             	3.76054924e+02
492             	3.76064251e+02
493             	3.76073970e+02
494             	3.76081507e+02
495             	3.76088481e+02
496             	3.76096037e+02
497             	3.76103819e+02
498             	3.76111051e+02
499             	3.76118157e+02
500             	3.76125220e+02
501             	3.76131619e+02
502             	3.76138510e+02
503             	3.76145365e+02
504             	3.76152673e+02
505             	3.76160292e+02
506             	3.76168363e+02
507             	3.76177645e+02
508             	3.76186654e+02
509             	3.76195564e+02
510             	3.76204502e+02
511             	3.76213549e+02
512             	3.76222259e+02
513             	3.76230633e+02
514             	3.76238665e+02
515             	3.76246422e+02
516             	3.76253963e+02
517             	3.76261300e+02
518             	3.76268505e+02
519             	3.76275605e+02
520             	3.76282741e+02
521             	3.76289954e+02
522             	3.76297288e+02
523             	3.76304758e+02
524             	3.76312387e+02
525             	3.76320164e+02
526             	3.76328048e+02
527             	3.76336017e+02
528             	3.76344036e+02
529             	3.76352147e+02
530             	3.76360218e+02
531             	3.76368097e+02
532             	3.76375825e+02
533             	3.76383372e+02
534             	3.76390748e+02
535             	3.76398001e+02
536             	3.76405156e+02
537             	3.76412280e+02
538             	3.76419378e+02
539             	3.76426598e+02
540             	3.76433612e+02
541             	3.76440533e+02
542             	3.76447436e+02
543             	3.76454410e+02
544             	3.76461290e+02
545             	3.76468187e+02
546             	3.76474973e+02
547             	3.76482413e+02
548             	3.76489514e+02
549             	3.76496496e+02
550             	3.76503545e+02
551             	3.76510666e+02
552             	3.76517917e+02
553             	3.76525264e+02
554             	3.76532622e+02
555             	3.76539928e+02
556             	3.76547236e+02
557             	3.76554337e+02
558             	3.76561591e+02
559             	3.76568954e+02
560             	3.76576450e+02
561             	3.76584091e+02
562             	3.76591818e+02
563             	3.76599629e+02
564             	3.76607485e+02
565             	3.76615353e+02
566             	3.76623210e+02
567             	3.76631008e+02
568             	3.76638737e+02
569             	3.76646341e+02
570             	3.76653793e+02
571             	3.76661362e+02
572             	3.76668621e+02
573             	3.76675676e+02
574             	3.76682647e+02
575             	3.76689568e+02
576             	3.76696504e+02
577             	3.76703361e+02
578             	3.76710154e+02
579             	3.76716946e+02
580             	3.76723743e+02
581             	3.76731249e+02
582             	3.76738440e+02
583             	3.76745514e+02
584             	3.76752608e+02
585             	3.76759747e+02
586             	3.76766779e+02
587             	3.76773799e+02
588             	3.76780745e+02
589             	3.76787653e+02
590             	3.76794568e+02
591             	3.76801541e+02
592             	3.76808627e+02
593             	3.76815905e+02
594             	3.76823264e+02
595             	3.76830791e+02
596             	3.76838287e+02
597             	3.76845708e+02
598             	3.76853096e+02
599             	3.76860430e+02
600             	3.76867702e+02
601             	3.76874937e+02
602             	3.76882170e+02
603             	3.76889424e+02
604             	3.76896722e+02
605             	3.76904081e+02
606             	3.76911475e+02
607             	3.76918952e+02
608             	3.76926425e+02
609             	3.76934079e+02
610             	3.76941412e+02
611             	3.76948500e+02
612             	3.76955436e+02
613             	3.76962392e+02
614             	3.76969224e+02
615             	3.76975999e+02
616             	3.76982810e+02
617             	3.76989741e+02
618             	3.76996742e+02
619             	3.77004811e+02
620             	3.77012366e+02
621             	3.77019702e+02
