# Region        : cellZone component_2
# Cells         : 56
# Volume        : 9.57787788e-02
# Time          	volAverage(T)
1               	3.03269750e+02
2               	3.06476646e+02
3               	3.09277139e+02
4               	3.11869083e+02
5               	3.14408639e+02
6               	3.16938889e+02
7               	3.19451468e+02
8               	3.21949392e+02
9               	3.24445739e+02
10              	3.26951304e+02
11              	3.29416648e+02
12              	3.31817103e+02
13              	3.34146183e+02
14              	3.36403803e+02
15              	3.38618056e+02
16              	3.40796345e+02
17              	3.42929486e+02
18              	3.45009835e+02
19              	3.47023135e+02
20              	3.48973286e+02
21              	3.50848023e+02
22              	3.52652396e+02
23              	3.54360631e+02
24              	3.56017108e+02
25              	3.57782728e+02
26              	3.59497913e+02
27              	3.61171261e+02
28              	3.62825006e+02
29              	3.64420263e+02
30              	3.65919877e+02
31              	3.67372691e+02
32              	3.68729902e+02
33              	3.70155023e+02
34              	3.71695508e+02
35              	3.73174904e+02
36              	3.74441571e+02
37              	3.75687754e+02
38              	3.76793617e+02
39              	3.78153583e+02
40              	3.79621977e+02
41              	3.81097485e+02
42              	3.82506902e+02
43              	3.83872337e+02
44              	3.85148114e+02
45              	3.86291483e+02
46              	3.87381047e+02
47              	3.88348820e+02
48              	3.89183307e+02
49              	3.89964240e+02
50              	3.90651645e+02
51              	3.91343568e+02
52              	3.92018563e+02
53              	3.92597730e+02
54              	3.93022494e+02
55              	3.93346222e+02
56              	3.93705373e+02
57              	3.94107245e+02
58              	3.94484024e+02
59              	3.94849054e+02
60              	3.95227345e+02
61              	3.95568366e+02
62              	3.95844627e+02
63              	3.96109398e+02
64              	3.96308220e+02
65              	3.96443054e+02
66              	3.96470646e+02
67              	3.96488065e+02
68              	3.96594764e+02
69              	3.96793525e+02
70              	3.97060607e+02
71              	3.97330568e+02
72              	3.97605790e+02
73              	3.97876537e+02
74              	3.98030027e+02
75              	3.98256770e+02
76              	3.98536393e+02
77              	3.98734455e+02
78              	3.98885995e+02
79              	3.98984206e+02
80              	3.99068214e+02
81              	3.99187155e+02
82              	3.99473323e+02
83              	3.99778431e+02
84              	4.00092606e+02
85              	4.00370487e+02
86              	4.00634300e+02
87              	4.00877697e+02
88              	4.01129904e+02
89              	4.01285708e+02
90              	4.01420856e+02
91              	4.01546785e+02
92              	4.01659082e+02
93              	4.01759272e+02
94              	4.01854666e+02
95              	4.01951038e+02
96              	4.02056474e+02
97              	4.02160618e+02
98              	4.02280241e+02
99              	4.02427640e+02
100             	4.02575563e+02
101             	4.02705182e+02
102             	4.02818881e+02
103             	4.02941588e+02
104             	4.03057913e+02
105             	4.03157309e+02
106             	4.03240798e+02
107             	4.03313473e+02
108             	4.03381566e+02
109             	4.03442752e+02
110             	4.03508682e+02
111             	4.03581490e+02
112             	4.03654851e+02
113             	4.03732829e+02
114             	4.03814009e+02
115             	4.03895859e+02
116             	4.03978437e+02
117             	4.04055104e+02
118             	4.04130975e+02
119             	4.04202234e+02
120             	4.04267906e+02
121             	4.04324623e+02
122             	4.04373233e+02
123             	4.04414283e+02
124             	4.04448740e+02
125             	4.04480840e+02
126             	4.04516238e+02
127             	4.04553390e+02
128             	4.04592677e+02
129             	4.04634824e+02
130             	4.04680510e+02
131             	4.04731018e+02
132             	4.04785595e+02
133             	4.04835171e+02
134             	4.04878687e+02
135             	4.04920569e+02
136             	4.04955937e+02
137             	4.04984675e+02
138             	4.05007840e+02
139             	4.05028157e+02
140             	4.05049737e+02
141             	4.05074473e+02
142             	4.05101381e+02
143             	4.05131449e+02
144             	4.05163056e+02
145             	4.05196551e+02
146             	4.05228281e+02
147             	4.05260206e+02
148             	4.05281069e+02
149             	4.05292008e+02
150             	4.05314633e+02
151             	4.05343786e+02
152             	4.05382712e+02
153             	4.05433026e+02
154             	4.05488701e+02
155             	4.05539874e+02
156             	4.05589628e+02
157             	4.05637563e+02
158             	4.05682037e+02
159             	4.05723625e+02
160             	4.05762804e+02
161             	4.05800275e+02
162             	4.05836826e+02
163             	4.05874063e+02
164             	4.05913579e+02
165             	4.05955857e+02
166             	4.06001235e+02
167             	4.06045799e+02
168             	4.06090681e+02
169             	4.06135569e+02
170             	4.06179577e+02
171             	4.06222278e+02
172             	4.06264132e+02
173             	4.06306205e+02
174             	4.06349282e+02
175             	4.06392879e+02
176             	4.06436317e+02
177             	4.06479529e+02
178             	4.06521894e+02
179             	4.06559436e+02
180             	4.06594064e+02
181             	4.06627114e+02
182             	4.06653846e+02
183             	4.06678385e+02
184             	4.06702810e+02
185             	4.06726017e+02
186             	4.06749517e+02
187             	4.06773791e+02
188             	4.06799130e+02
189             	4.06825339e+02
190             	4.06852394e+02
191             	4.06879905e+02
192             	4.06907171e+02
193             	4.06934512e+02
194             	4.06961504e+02
195             	4.06987941e+02
196             	4.07013914e+02
197             	4.07039537e+02
198             	4.07064091e+02
199             	4.07087886e+02
200             	4.07111046e+02
201             	4.07133479e+02
202             	4.07154767e+02
203             	4.07175095e+02
204             	4.07194962e+02
205             	4.07214166e+02
206             	4.07232834e+02
207             	4.07251212e+02
208             	4.07269375e+02
209             	4.07286801e+02
210             	4.07302526e+02
211             	4.07316898e+02
212             	4.07330841e+02
213             	4.07343838e+02
214             	4.07356182e+02
215             	4.07368103e+02
216             	4.07379891e+02
217             	4.07392096e+02
218             	4.07405079e+02
219             	4.07419126e+02
220             	4.07433764e+02
221             	4.07448437e+02
222             	4.07462451e+02
223             	4.07475597e+02
224             	4.07487922e+02
225             	4.07499497e+02
226             	4.07510095e+02
227             	4.07519800e+02
228             	4.07528507e+02
229             	4.07536708e+02
230             	4.07544595e+02
231             	4.07552206e+02
232             	4.07559484e+02
233             	4.07566384e+02
234             	4.07573333e+02
235             	4.07580347e+02
236             	4.07587750e+02
237             	4.07596288e+02
238             	4.07606466e+02
239             	4.07617963e+02
240             	4.07630427e+02
241             	4.07631162e+02
242             	4.07621641e+02
243             	4.07599292e+02
244             	4.07507153e+02
245             	4.07443605e+02
246             	4.07336690e+02
247             	4.07238774e+02
248             	4.07151304e+02
249             	4.07080425e+02
250             	4.06956992e+02
251             	4.06868940e+02
252             	4.06742054e+02
253             	4.06655158e+02
254             	4.06572735e+02
255             	4.06491381e+02
256             	4.06412031e+02
257             	4.06335066e+02
258             	4.06260319e+02
259             	4.06187804e+02
260             	4.06117504e+02
261             	4.06049253e+02
262             	4.05982930e+02
263             	4.05918172e+02
264             	4.05854153e+02
265             	4.05791285e+02
266             	4.05729707e+02
267             	4.05669678e+02
268             	4.05557641e+02
269             	4.05452016e+02
270             	4.05381686e+02
271             	4.05312583e+02
272             	4.05199885e+02
273             	4.05092528e+02
274             	4.04993524e+02
275             	4.04899852e+02
276             	4.04809871e+02
277             	4.04789781e+02
278             	4.04763652e+02
279             	4.04729730e+02
280             	4.04693515e+02
281             	4.04656612e+02
282             	4.04619794e+02
283             	4.04583495e+02
284             	4.04547700e+02
285             	4.04512531e+02
286             	4.04478045e+02
287             	4.04444301e+02
288             	4.04411350e+02
289             	4.04379225e+02
290             	4.04347956e+02
291             	4.04317326e+02
292             	4.04287416e+02
293             	4.04258203e+02
294             	4.04229677e+02
295             	4.04201882e+02
296             	4.04174968e+02
297             	4.04149120e+02
298             	4.04124225e+02
299             	4.04100288e+02
300             	4.04077221e+02
301             	4.04054894e+02
302             	4.04033141e+02
303             	4.04011804e+02
304             	4.03990844e+02
305             	4.03970144e+02
306             	4.03949681e+02
307             	4.03929725e+02
308             	4.03910492e+02
309             	4.03892161e+02
310             	4.03874545e+02
311             	4.03857710e+02
312             	4.03841579e+02
313             	4.03825950e+02
314             	4.03810524e+02
315             	4.03794743e+02
316             	4.03778587e+02
317             	4.03762216e+02
318             	4.03745772e+02
319             	4.03729464e+02
320             	4.03713875e+02
321             	4.03699759e+02
322             	4.03610044e+02
323             	4.03569918e+02
324             	4.03536476e+02
325             	4.03502629e+02
326             	4.03468693e+02
327             	4.03434958e+02
328             	4.03400583e+02
329             	4.03365639e+02
330             	4.03330395e+02
331             	4.03295515e+02
332             	4.03261565e+02
333             	4.03229015e+02
334             	4.03198139e+02
335             	4.03168865e+02
336             	4.03141140e+02
337             	4.03114756e+02
338             	4.03089152e+02
339             	4.03063759e+02
340             	4.03038263e+02
341             	4.03012821e+02
342             	4.02987386e+02
343             	4.02962166e+02
344             	4.02937556e+02
345             	4.02913974e+02
346             	4.02891586e+02
347             	4.02870393e+02
348             	4.02850445e+02
349             	4.02831535e+02
350             	4.02813369e+02
351             	4.02795618e+02
352             	4.02777936e+02
353             	4.02760102e+02
354             	4.02742164e+02
355             	4.02724226e+02
356             	4.02706372e+02
357             	4.02688809e+02
358             	4.02671819e+02
359             	4.02655542e+02
360             	4.02639993e+02
361             	4.02625122e+02
362             	4.02610908e+02
363             	4.02597205e+02
364             	4.02583918e+02
365             	4.02570905e+02
366             	4.02558134e+02
367             	4.02545543e+02
368             	4.02533115e+02
369             	4.02520845e+02
370             	4.02508762e+02
371             	4.02496894e+02
372             	4.02485272e+02
373             	4.02473933e+02
374             	4.02462917e+02
375             	4.02452370e+02
376             	4.02442225e+02
377             	4.02432455e+02
378             	4.02423060e+02
379             	4.02414042e+02
380             	4.02405332e+02
381             	4.02396886e+02
382             	4.02388681e+02
383             	4.02380697e+02
384             	4.02372918e+02
385             	4.02365329e+02
386             	4.02357918e+02
387             	4.02350617e+02
388             	4.02343175e+02
389             	4.02335663e+02
390             	4.02328162e+02
391             	4.02320759e+02
392             	4.02313523e+02
393             	4.02306552e+02
394             	4.02299965e+02
395             	4.02293718e+02
396             	4.02287844e+02
397             	4.02282294e+02
398             	4.02277003e+02
399             	4.02271921e+02
400             	4.02267007e+02
401             	4.02262217e+02
402             	4.02257503e+02
403             	4.02252856e+02
404             	4.02248220e+02
405             	4.02243621e+02
406             	4.02239088e+02
407             	4.02234638e+02
408             	4.02230282e+02
409             	4.02226027e+02
410             	4.02221888e+02
411             	4.02217875e+02
412             	4.02214016e+02
413             	4.02210282e+02
414             	4.02206684e+02
415             	4.02203200e+02
416             	4.02199826e+02
417             	4.02196579e+02
418             	4.02193441e+02
419             	4.02190406e+02
420             	4.02187469e+02
421             	4.02184628e+02
422             	4.02181867e+02
423             	4.02179210e+02
424             	4.02176515e+02
425             	4.02173831e+02
426             	4.02171174e+02
427             	4.02168547e+02
428             	4.02165934e+02
429             	4.02163387e+02
430             	4.02160901e+02
431             	4.02158486e+02
432             	4.02156169e+02
433             	4.02154017e+02
434             	4.02151999e+02
435             	4.02150113e+02
436             	4.02148105e+02
437             	4.02146068e+02
438             	4.02144009e+02
439             	4.02141920e+02
440             	4.02139791e+02
441             	4.02137666e+02
442             	4.02135751e+02
443             	4.02133968e+02
444             	4.02132327e+02
445             	4.02130824e+02
446             	4.02129437e+02
447             	4.02128143e+02
448             	4.02126913e+02
449             	4.02125724e+02
450             	4.02124559e+02
451             	4.02123410e+02
452             	4.02122270e+02
453             	4.02121197e+02
454             	4.02120155e+02
455             	4.02119220e+02
456             	4.02118221e+02
457             	4.02117191e+02
458             	4.02116140e+02
459             	4.02115075e+02
460             	4.02113994e+02
461             	4.02112896e+02
462             	4.02111790e+02
463             	4.02110696e+02
464             	4.02109634e+02
465             	4.02108623e+02
466             	4.02107669e+02
467             	4.02106735e+02
468             	4.02105863e+02
469             	4.02105099e+02
470             	4.02104408e+02
471             	4.02103788e+02
472             	4.02103230e+02
473             	4.02102720e+02
474             	4.02102247e+02
475             	4.02101779e+02
476             	4.02101289e+02
477             	4.02100750e+02
478             	4.02100171e+02
479             	4.02099544e+02
480             	4.02098860e+02
481             	4.02098138e+02
482             	4.02097395e+02
483             	4.02096642e+02
484             	4.02095901e+02
485             	4.02095180e+02
486             	4.02094475e+02
487             	4.02093794e+02
488             	4.02093137e+02
489             	4.02092491e+02
490             	4.02091901e+02
491             	4.02091350e+02
492             	4.02090846e+02
493             	4.02090377e+02
494             	4.02089947e+02
495             	4.02089576e+02
496             	4.02089245e+02
497             	4.02088957e+02
498             	4.02088728e+02
499             	4.02088571e+02
500             	4.02088464e+02
501             	4.02088394e+02
502             	4.02088349e+02
503             	4.02088316e+02
504             	4.02088262e+02
505             	4.02088159e+02
506             	4.02087905e+02
507             	4.02087549e+02
508             	4.02087105e+02
509             	4.02086610e+02
510             	4.02086104e+02
511             	4.02085603e+02
512             	4.02085124e+02
513             	4.02084675e+02
514             	4.02084263e+02
515             	4.02083886e+02
516             	4.02083529e+02
517             	4.02083163e+02
518             	4.02082773e+02
519             	4.02082375e+02
520             	4.02081982e+02
521             	4.02081641e+02
522             	4.02081334e+02
523             	4.02081069e+02
524             	4.02080853e+02
525             	4.02080691e+02
526             	4.02080626e+02
527             	4.02080625e+02
528             	4.02080673e+02
529             	4.02080750e+02
530             	4.02080835e+02
531             	4.02080969e+02
532             	4.02081113e+02
533             	4.02081257e+02
534             	4.02081414e+02
535             	4.02081594e+02
536             	4.02081803e+02
537             	4.02082015e+02
538             	4.02082228e+02
539             	4.02082430e+02
540             	4.02082558e+02
541             	4.02082632e+02
542             	4.02082659e+02
543             	4.02082482e+02
544             	4.02082186e+02
545             	4.02081804e+02
546             	4.02081370e+02
547             	4.02080931e+02
548             	4.02080523e+02
549             	4.02080159e+02
550             	4.02079837e+02
551             	4.02079575e+02
552             	4.02079348e+02
553             	4.02079104e+02
554             	4.02078824e+02
555             	4.02078540e+02
556             	4.02078260e+02
557             	4.02078013e+02
558             	4.02077823e+02
559             	4.02077713e+02
560             	4.02077669e+02
561             	4.02077677e+02
562             	4.02077833e+02
563             	4.02078072e+02
564             	4.02078363e+02
565             	4.02078688e+02
566             	4.02079008e+02
567             	4.02079305e+02
568             	4.02079589e+02
569             	4.02079736e+02
570             	4.02079789e+02
571             	4.02079765e+02
572             	4.02079669e+02
573             	4.02079622e+02
574             	4.02079598e+02
575             	4.02079609e+02
576             	4.02079664e+02
577             	4.02079755e+02
578             	4.02079872e+02
579             	4.02080013e+02
580             	4.02080120e+02
581             	4.02080131e+02
582             	4.02080078e+02
583             	4.02079969e+02
584             	4.02079804e+02
585             	4.02079577e+02
586             	4.02079324e+02
587             	4.02079056e+02
588             	4.02078752e+02
589             	4.02078431e+02
590             	4.02078117e+02
591             	4.02077831e+02
592             	4.02077642e+02
593             	4.02077524e+02
594             	4.02077478e+02
595             	4.02077498e+02
596             	4.02077581e+02
597             	4.02077710e+02
598             	4.02077838e+02
599             	4.02078034e+02
600             	4.02078248e+02
601             	4.02078484e+02
602             	4.02078718e+02
603             	4.02078964e+02
604             	4.02079309e+02
605             	4.02079696e+02
606             	4.02080127e+02
607             	4.02080457e+02
608             	4.02080729e+02
609             	4.02080941e+02
610             	4.02081093e+02
611             	4.02081186e+02
612             	4.02081226e+02
613             	4.02081212e+02
614             	4.02081167e+02
615             	4.02081136e+02
616             	4.02081116e+02
617             	4.02081192e+02
618             	4.02081319e+02
619             	4.02081472e+02
620             	4.02081643e+02
621             	4.02081715e+02
