# Region        : cellZone component_4
# Cells         : 192
# Volume        : 3.66215625e-01
# Time          	volAverage(T)
1               	3.00134067e+02
2               	3.00266533e+02
3               	3.00390899e+02
4               	3.00509201e+02
5               	3.00623965e+02
6               	3.00735813e+02
7               	3.00845065e+02
8               	3.00951881e+02
9               	3.01057100e+02
10              	3.01160557e+02
11              	3.01261568e+02
12              	3.01361678e+02
13              	3.01460135e+02
14              	3.01555653e+02
15              	3.01648215e+02
16              	3.01740141e+02
17              	3.01827828e+02
18              	3.01913399e+02
19              	3.01999903e+02
20              	3.02086192e+02
21              	3.02171072e+02
22              	3.02253320e+02
23              	3.02332680e+02
24              	3.02409650e+02
25              	3.02485124e+02
26              	3.02561940e+02
27              	3.02632886e+02
28              	3.02697933e+02
29              	3.02755345e+02
30              	3.02808112e+02
31              	3.02859436e+02
32              	3.02912723e+02
33              	3.02962616e+02
34              	3.03012315e+02
35              	3.03062337e+02
36              	3.03112452e+02
37              	3.03163978e+02
38              	3.03218408e+02
39              	3.03275829e+02
40              	3.03336335e+02
41              	3.03393726e+02
42              	3.03446250e+02
43              	3.03494305e+02
44              	3.03538578e+02
45              	3.03582344e+02
46              	3.03627248e+02
47              	3.03673688e+02
48              	3.03721705e+02
49              	3.03770191e+02
50              	3.03819649e+02
51              	3.03867761e+02
52              	3.03917535e+02
53              	3.03965261e+02
54              	3.04010790e+02
55              	3.04055076e+02
56              	3.04098092e+02
57              	3.04138983e+02
58              	3.04180713e+02
59              	3.04221669e+02
60              	3.04262529e+02
61              	3.04304460e+02
62              	3.04348781e+02
63              	3.04392321e+02
64              	3.04431963e+02
65              	3.04467602e+02
66              	3.04496252e+02
67              	3.04527023e+02
68              	3.04559616e+02
69              	3.04591733e+02
70              	3.04622240e+02
71              	3.04652186e+02
72              	3.04681766e+02
73              	3.04712062e+02
74              	3.04742176e+02
75              	3.04771678e+02
76              	3.04801413e+02
77              	3.04831784e+02
78              	3.04856650e+02
79              	3.04877220e+02
80              	3.04895699e+02
81              	3.04915416e+02
82              	3.04936766e+02
83              	3.04957202e+02
84              	3.04977985e+02
85              	3.04999003e+02
86              	3.05019626e+02
87              	3.05040937e+02
88              	3.05063099e+02
89              	3.05085872e+02
90              	3.05109301e+02
91              	3.05132870e+02
92              	3.05156958e+02
93              	3.05182491e+02
94              	3.05209023e+02
95              	3.05236000e+02
96              	3.05262932e+02
97              	3.05289293e+02
98              	3.05315142e+02
99              	3.05340817e+02
100             	3.05366936e+02
101             	3.05391267e+02
102             	3.05414621e+02
103             	3.05437049e+02
104             	3.05458312e+02
105             	3.05478372e+02
106             	3.05497740e+02
107             	3.05516763e+02
108             	3.05535456e+02
109             	3.05553893e+02
110             	3.05572360e+02
111             	3.05590510e+02
112             	3.05608409e+02
113             	3.05626958e+02
114             	3.05645520e+02
115             	3.05665284e+02
116             	3.05684956e+02
117             	3.05704090e+02
118             	3.05722692e+02
119             	3.05740674e+02
120             	3.05757697e+02
121             	3.05774163e+02
122             	3.05789891e+02
123             	3.05804519e+02
124             	3.05818780e+02
125             	3.05832661e+02
126             	3.05845905e+02
127             	3.05858947e+02
128             	3.05871446e+02
129             	3.05883398e+02
130             	3.05895758e+02
131             	3.05908431e+02
132             	3.05921497e+02
133             	3.05934923e+02
134             	3.05948012e+02
135             	3.05960094e+02
136             	3.05971468e+02
137             	3.05982691e+02
138             	3.05991189e+02
139             	3.05999810e+02
140             	3.06008068e+02
141             	3.06016370e+02
142             	3.06024809e+02
143             	3.06033284e+02
144             	3.06041614e+02
145             	3.06050154e+02
146             	3.06058806e+02
147             	3.06067984e+02
148             	3.06077500e+02
149             	3.06087440e+02
150             	3.06097628e+02
151             	3.06108254e+02
152             	3.06118915e+02
153             	3.06129547e+02
154             	3.06139773e+02
155             	3.06149933e+02
156             	3.06159675e+02
157             	3.06169520e+02
158             	3.06178861e+02
159             	3.06188355e+02
160             	3.06197604e+02
161             	3.06206201e+02
162             	3.06214405e+02
163             	3.06222021e+02
164             	3.06229317e+02
165             	3.06236416e+02
166             	3.06243353e+02
167             	3.06250017e+02
168             	3.06256652e+02
169             	3.06263480e+02
170             	3.06270513e+02
171             	3.06277733e+02
172             	3.06285275e+02
173             	3.06293102e+02
174             	3.06301123e+02
175             	3.06309479e+02
176             	3.06317549e+02
177             	3.06325154e+02
178             	3.06332432e+02
179             	3.06339578e+02
180             	3.06345939e+02
181             	3.06351526e+02
182             	3.06356589e+02
183             	3.06361115e+02
184             	3.06365786e+02
185             	3.06370667e+02
186             	3.06375570e+02
187             	3.06380657e+02
188             	3.06385915e+02
189             	3.06391367e+02
190             	3.06396639e+02
191             	3.06401613e+02
192             	3.06406257e+02
193             	3.06410689e+02
194             	3.06415159e+02
195             	3.06420051e+02
196             	3.06425163e+02
197             	3.06430975e+02
198             	3.06437460e+02
199             	3.06444461e+02
200             	3.06451519e+02
201             	3.06458186e+02
202             	3.06464916e+02
203             	3.06471225e+02
204             	3.06477188e+02
205             	3.06482939e+02
206             	3.06488474e+02
207             	3.06493473e+02
208             	3.06498313e+02
209             	3.06503079e+02
210             	3.06507782e+02
211             	3.06512539e+02
212             	3.06516918e+02
213             	3.06520770e+02
214             	3.06524069e+02
215             	3.06527661e+02
216             	3.06530677e+02
217             	3.06534707e+02
218             	3.06538898e+02
219             	3.06542851e+02
220             	3.06546479e+02
221             	3.06549707e+02
222             	3.06552800e+02
223             	3.06555679e+02
224             	3.06558178e+02
225             	3.06560379e+02
226             	3.06562259e+02
227             	3.06563998e+02
228             	3.06565785e+02
229             	3.06567729e+02
230             	3.06569962e+02
231             	3.06572624e+02
232             	3.06575584e+02
233             	3.06578734e+02
234             	3.06582108e+02
235             	3.06585651e+02
236             	3.06589192e+02
237             	3.06592515e+02
238             	3.06595579e+02
239             	3.06598373e+02
240             	3.06600963e+02
241             	3.06603109e+02
242             	3.06604988e+02
243             	3.06606611e+02
244             	3.06608207e+02
245             	3.06609755e+02
246             	3.06611219e+02
247             	3.06612907e+02
248             	3.06614780e+02
249             	3.06616892e+02
250             	3.06618665e+02
251             	3.06620674e+02
252             	3.06622718e+02
253             	3.06624523e+02
254             	3.06626348e+02
255             	3.06628240e+02
256             	3.06630247e+02
257             	3.06632269e+02
258             	3.06634347e+02
259             	3.06636572e+02
260             	3.06638956e+02
261             	3.06641524e+02
262             	3.06644297e+02
263             	3.06647288e+02
264             	3.06650539e+02
265             	3.06653747e+02
266             	3.06656591e+02
267             	3.06659467e+02
268             	3.06662374e+02
269             	3.06664747e+02
270             	3.06667113e+02
271             	3.06669243e+02
272             	3.06671265e+02
273             	3.06672714e+02
274             	3.06673966e+02
275             	3.06675174e+02
276             	3.06676500e+02
277             	3.06677912e+02
278             	3.06679513e+02
279             	3.06681355e+02
280             	3.06683412e+02
281             	3.06685726e+02
282             	3.06688322e+02
283             	3.06690667e+02
284             	3.06693008e+02
285             	3.06695425e+02
286             	3.06697734e+02
287             	3.06699731e+02
288             	3.06701783e+02
289             	3.06703745e+02
290             	3.06705043e+02
291             	3.06706198e+02
292             	3.06707268e+02
293             	3.06708097e+02
294             	3.06708754e+02
295             	3.06709526e+02
296             	3.06710500e+02
297             	3.06711597e+02
298             	3.06712751e+02
299             	3.06714167e+02
300             	3.06716032e+02
301             	3.06717978e+02
302             	3.06720086e+02
303             	3.06722509e+02
304             	3.06725181e+02
305             	3.06727741e+02
306             	3.06729872e+02
307             	3.06731752e+02
308             	3.06733439e+02
309             	3.06734701e+02
310             	3.06735332e+02
311             	3.06735676e+02
312             	3.06735915e+02
313             	3.06736221e+02
314             	3.06736330e+02
315             	3.06736464e+02
316             	3.06736843e+02
317             	3.06737480e+02
318             	3.06738370e+02
319             	3.06739538e+02
320             	3.06741058e+02
321             	3.06742479e+02
322             	3.06743796e+02
323             	3.06745075e+02
324             	3.06746217e+02
325             	3.06747225e+02
326             	3.06748047e+02
327             	3.06748470e+02
328             	3.06748983e+02
329             	3.06749600e+02
330             	3.06750343e+02
331             	3.06751291e+02
332             	3.06752352e+02
333             	3.06753393e+02
334             	3.06754056e+02
335             	3.06754851e+02
336             	3.06755741e+02
337             	3.06756710e+02
338             	3.06757748e+02
339             	3.06758829e+02
340             	3.06759857e+02
341             	3.06760847e+02
342             	3.06761854e+02
343             	3.06762850e+02
344             	3.06763890e+02
345             	3.06765078e+02
346             	3.06766339e+02
347             	3.06767486e+02
348             	3.06768642e+02
349             	3.06769956e+02
350             	3.06771252e+02
351             	3.06772446e+02
352             	3.06773533e+02
353             	3.06774439e+02
354             	3.06775235e+02
355             	3.06775784e+02
356             	3.06775894e+02
357             	3.06776066e+02
358             	3.06776337e+02
359             	3.06776635e+02
360             	3.06776978e+02
361             	3.06777390e+02
362             	3.06777886e+02
363             	3.06778485e+02
364             	3.06779130e+02
365             	3.06779984e+02
366             	3.06781342e+02
367             	3.06782421e+02
368             	3.06783630e+02
369             	3.06785069e+02
370             	3.06786581e+02
371             	3.06787528e+02
372             	3.06788361e+02
373             	3.06788877e+02
374             	3.06789105e+02
375             	3.06789030e+02
376             	3.06788746e+02
377             	3.06788412e+02
378             	3.06788192e+02
379             	3.06788105e+02
380             	3.06788099e+02
381             	3.06788283e+02
382             	3.06788554e+02
383             	3.06788967e+02
384             	3.06789467e+02
385             	3.06790092e+02
386             	3.06790692e+02
387             	3.06791279e+02
388             	3.06791931e+02
389             	3.06792628e+02
390             	3.06793286e+02
391             	3.06793802e+02
392             	3.06794090e+02
393             	3.06794477e+02
394             	3.06794902e+02
395             	3.06795280e+02
396             	3.06795570e+02
397             	3.06795795e+02
398             	3.06795901e+02
399             	3.06795934e+02
400             	3.06796143e+02
401             	3.06796551e+02
402             	3.06796885e+02
403             	3.06797258e+02
404             	3.06797884e+02
405             	3.06798574e+02
406             	3.06799329e+02
407             	3.06800075e+02
408             	3.06800718e+02
409             	3.06801342e+02
410             	3.06801959e+02
411             	3.06802564e+02
412             	3.06803027e+02
413             	3.06803320e+02
414             	3.06803501e+02
415             	3.06803740e+02
416             	3.06804115e+02
417             	3.06804599e+02
418             	3.06805053e+02
419             	3.06805631e+02
420             	3.06806271e+02
421             	3.06806895e+02
422             	3.06807436e+02
423             	3.06807939e+02
424             	3.06808377e+02
425             	3.06808725e+02
426             	3.06808990e+02
427             	3.06809185e+02
428             	3.06809341e+02
429             	3.06809491e+02
430             	3.06809722e+02
431             	3.06809968e+02
432             	3.06810236e+02
433             	3.06810525e+02
434             	3.06810810e+02
435             	3.06811028e+02
436             	3.06811167e+02
437             	3.06811284e+02
438             	3.06811324e+02
439             	3.06811338e+02
440             	3.06811335e+02
441             	3.06811298e+02
442             	3.06811317e+02
443             	3.06811358e+02
444             	3.06811404e+02
445             	3.06811511e+02
446             	3.06811692e+02
447             	3.06811976e+02
448             	3.06812311e+02
449             	3.06812498e+02
450             	3.06812615e+02
451             	3.06812758e+02
452             	3.06812939e+02
453             	3.06813130e+02
454             	3.06813350e+02
455             	3.06813520e+02
456             	3.06813676e+02
457             	3.06813839e+02
458             	3.06814017e+02
459             	3.06814219e+02
460             	3.06814452e+02
461             	3.06814740e+02
462             	3.06815076e+02
463             	3.06815441e+02
464             	3.06815819e+02
465             	3.06816219e+02
466             	3.06816626e+02
467             	3.06817024e+02
468             	3.06817420e+02
469             	3.06817756e+02
470             	3.06818101e+02
471             	3.06818438e+02
472             	3.06818833e+02
473             	3.06819200e+02
474             	3.06819529e+02
475             	3.06819813e+02
476             	3.06820037e+02
477             	3.06820212e+02
478             	3.06820358e+02
479             	3.06820495e+02
480             	3.06820637e+02
481             	3.06820801e+02
482             	3.06820978e+02
483             	3.06821106e+02
484             	3.06821168e+02
485             	3.06821187e+02
486             	3.06821167e+02
487             	3.06821105e+02
488             	3.06821016e+02
489             	3.06820938e+02
490             	3.06820919e+02
491             	3.06821009e+02
492             	3.06821141e+02
493             	3.06821333e+02
494             	3.06821549e+02
495             	3.06821773e+02
496             	3.06821997e+02
497             	3.06822182e+02
498             	3.06822337e+02
499             	3.06822475e+02
500             	3.06822595e+02
501             	3.06822703e+02
502             	3.06822801e+02
503             	3.06822898e+02
504             	3.06823003e+02
505             	3.06823117e+02
506             	3.06823237e+02
507             	3.06823366e+02
508             	3.06823529e+02
509             	3.06823711e+02
510             	3.06823916e+02
511             	3.06824147e+02
512             	3.06824381e+02
513             	3.06824610e+02
514             	3.06824829e+02
515             	3.06825075e+02
516             	3.06825332e+02
517             	3.06825588e+02
518             	3.06825844e+02
519             	3.06826111e+02
520             	3.06826348e+02
521             	3.06826562e+02
522             	3.06826748e+02
523             	3.06826913e+02
524             	3.06827045e+02
525             	3.06827144e+02
526             	3.06827201e+02
527             	3.06827225e+02
528             	3.06827218e+02
529             	3.06827203e+02
530             	3.06827218e+02
531             	3.06827266e+02
532             	3.06827365e+02
533             	3.06827500e+02
534             	3.06827672e+02
535             	3.06827858e+02
536             	3.06828031e+02
537             	3.06828220e+02
538             	3.06828388e+02
539             	3.06828531e+02
540             	3.06828643e+02
541             	3.06828742e+02
542             	3.06828853e+02
543             	3.06828965e+02
544             	3.06829065e+02
545             	3.06829166e+02
546             	3.06829268e+02
547             	3.06829374e+02
548             	3.06829507e+02
549             	3.06829678e+02
550             	3.06829887e+02
551             	3.06830085e+02
552             	3.06830299e+02
553             	3.06830528e+02
554             	3.06830739e+02
555             	3.06830941e+02
556             	3.06831139e+02
557             	3.06831336e+02
558             	3.06831530e+02
559             	3.06831715e+02
560             	3.06831892e+02
561             	3.06832067e+02
562             	3.06832256e+02
563             	3.06832454e+02
564             	3.06832655e+02
565             	3.06832845e+02
566             	3.06833037e+02
567             	3.06833232e+02
568             	3.06833415e+02
569             	3.06833566e+02
570             	3.06833693e+02
571             	3.06833800e+02
572             	3.06833874e+02
573             	3.06833912e+02
574             	3.06833926e+02
575             	3.06833942e+02
576             	3.06834024e+02
577             	3.06834118e+02
578             	3.06834197e+02
579             	3.06834317e+02
580             	3.06834469e+02
581             	3.06834620e+02
582             	3.06834731e+02
583             	3.06834839e+02
584             	3.06834924e+02
585             	3.06834968e+02
586             	3.06834948e+02
587             	3.06834885e+02
588             	3.06834809e+02
589             	3.06834725e+02
590             	3.06834742e+02
591             	3.06834759e+02
592             	3.06834796e+02
593             	3.06834849e+02
594             	3.06834928e+02
595             	3.06835031e+02
596             	3.06835142e+02
597             	3.06835246e+02
598             	3.06835352e+02
599             	3.06835430e+02
600             	3.06835478e+02
601             	3.06835509e+02
602             	3.06835534e+02
603             	3.06835586e+02
604             	3.06835669e+02
605             	3.06835745e+02
606             	3.06835843e+02
607             	3.06835998e+02
608             	3.06836200e+02
609             	3.06836394e+02
610             	3.06836563e+02
611             	3.06836721e+02
612             	3.06836871e+02
613             	3.06836978e+02
614             	3.06837042e+02
615             	3.06837096e+02
616             	3.06837146e+02
617             	3.06837210e+02
618             	3.06837255e+02
619             	3.06837316e+02
620             	3.06837446e+02
621             	3.06837599e+02
