# Region        : cellZone component_1
# Cells         : 108
# Volume        : 2.11749134e-01
# Time          	volAverage(T)
1               	3.03035533e+02
2               	3.05870373e+02
3               	3.07623436e+02
4               	3.08693792e+02
5               	3.09805386e+02
6               	3.11131448e+02
7               	3.12444492e+02
8               	3.13602817e+02
9               	3.14652683e+02
10              	3.15727684e+02
11              	3.16711479e+02
12              	3.17565939e+02
13              	3.18337415e+02
14              	3.19148424e+02
15              	3.19986047e+02
16              	3.20805105e+02
17              	3.21550528e+02
18              	3.22188185e+02
19              	3.22789898e+02
20              	3.23358539e+02
21              	3.23954968e+02
22              	3.24535076e+02
23              	3.25102991e+02
24              	3.25503419e+02
25              	3.25749906e+02
26              	3.25988528e+02
27              	3.26211803e+02
28              	3.26445202e+02
29              	3.26643121e+02
30              	3.26805317e+02
31              	3.26932175e+02
32              	3.27081134e+02
33              	3.27319100e+02
34              	3.27567343e+02
35              	3.27716198e+02
36              	3.27592562e+02
37              	3.27302048e+02
38              	3.27199207e+02
39              	3.27198320e+02
40              	3.27208188e+02
41              	3.27192523e+02
42              	3.27162813e+02
43              	3.27122107e+02
44              	3.27087363e+02
45              	3.27110216e+02
46              	3.27240055e+02
47              	3.27372994e+02
48              	3.27333176e+02
49              	3.27296708e+02
50              	3.27240227e+02
51              	3.27173812e+02
52              	3.27177500e+02
53              	3.27244534e+02
54              	3.27312953e+02
55              	3.27350269e+02
56              	3.27377041e+02
57              	3.27425622e+02
58              	3.27495849e+02
59              	3.27590135e+02
60              	3.27713401e+02
61              	3.27865351e+02
62              	3.28046895e+02
63              	3.28234689e+02
64              	3.28378200e+02
65              	3.28445282e+02
66              	3.28441954e+02
67              	3.28429877e+02
68              	3.28439239e+02
69              	3.28450566e+02
70              	3.28459965e+02
71              	3.28485419e+02
72              	3.28542961e+02
73              	3.28617751e+02
74              	3.28719444e+02
75              	3.28837219e+02
76              	3.28946783e+02
77              	3.29023085e+02
78              	3.29065392e+02
79              	3.29082820e+02
80              	3.29087769e+02
81              	3.29078934e+02
82              	3.29060236e+02
83              	3.29040928e+02
84              	3.29034084e+02
85              	3.29046821e+02
86              	3.29081258e+02
87              	3.29139975e+02
88              	3.29207040e+02
89              	3.29273951e+02
90              	3.29338846e+02
91              	3.29385204e+02
92              	3.29403854e+02
93              	3.29401707e+02
94              	3.29392841e+02
95              	3.29372490e+02
96              	3.29346641e+02
97              	3.29320414e+02
98              	3.29307337e+02
99              	3.29327188e+02
100             	3.29375125e+02
101             	3.29432948e+02
102             	3.29496317e+02
103             	3.29554469e+02
104             	3.29603292e+02
105             	3.29622620e+02
106             	3.29609641e+02
107             	3.29586647e+02
108             	3.29564989e+02
109             	3.29537889e+02
110             	3.29512613e+02
111             	3.29496486e+02
112             	3.29498869e+02
113             	3.29520408e+02
114             	3.29554498e+02
115             	3.29595801e+02
116             	3.29650402e+02
117             	3.29692543e+02
118             	3.29731059e+02
119             	3.29755654e+02
120             	3.29752173e+02
121             	3.29740196e+02
122             	3.29719286e+02
123             	3.29691763e+02
124             	3.29661700e+02
125             	3.29649486e+02
126             	3.29660344e+02
127             	3.29684300e+02
128             	3.29712320e+02
129             	3.29748667e+02
130             	3.29782836e+02
131             	3.29806509e+02
132             	3.29814398e+02
133             	3.29813984e+02
134             	3.29801116e+02
135             	3.29777546e+02
136             	3.29745224e+02
137             	3.29712216e+02
138             	3.29685143e+02
139             	3.29676794e+02
140             	3.29690278e+02
141             	3.29720872e+02
142             	3.29759335e+02
143             	3.29796735e+02
144             	3.29842055e+02
145             	3.29878948e+02
146             	3.29895301e+02
147             	3.29887554e+02
148             	3.29872611e+02
149             	3.29850606e+02
150             	3.29824593e+02
151             	3.29798263e+02
152             	3.29777207e+02
153             	3.29767865e+02
154             	3.29772979e+02
155             	3.29805824e+02
156             	3.29849121e+02
157             	3.29887452e+02
158             	3.29917280e+02
159             	3.29940105e+02
160             	3.29951513e+02
161             	3.29946946e+02
162             	3.29922261e+02
163             	3.29903230e+02
164             	3.29881364e+02
165             	3.29863707e+02
166             	3.29849853e+02
167             	3.29843106e+02
168             	3.29844328e+02
169             	3.29851431e+02
170             	3.29866777e+02
171             	3.29887124e+02
172             	3.29909172e+02
173             	3.29924349e+02
174             	3.29937121e+02
175             	3.29949753e+02
176             	3.29960878e+02
177             	3.29969190e+02
178             	3.29972232e+02
179             	3.29967082e+02
180             	3.29959551e+02
181             	3.29952029e+02
182             	3.29945171e+02
183             	3.29938808e+02
184             	3.29934657e+02
185             	3.29932769e+02
186             	3.29932778e+02
187             	3.29937833e+02
188             	3.29948701e+02
189             	3.29959466e+02
190             	3.29970690e+02
191             	3.29983994e+02
192             	3.29999168e+02
193             	3.30014525e+02
194             	3.30022533e+02
195             	3.30022741e+02
196             	3.30016328e+02
197             	3.30006561e+02
198             	3.29993217e+02
199             	3.29983166e+02
200             	3.29974077e+02
201             	3.29972507e+02
202             	3.29974960e+02
203             	3.29978674e+02
204             	3.29984545e+02
205             	3.29992733e+02
206             	3.30000164e+02
207             	3.30006857e+02
208             	3.30012836e+02
209             	3.30017601e+02
210             	3.30020772e+02
211             	3.30022185e+02
212             	3.30018451e+02
213             	3.30011372e+02
214             	3.30004253e+02
215             	3.29997603e+02
216             	3.29991072e+02
217             	3.29984862e+02
218             	3.29979931e+02
219             	3.29977465e+02
220             	3.29977793e+02
221             	3.29983370e+02
222             	3.29994156e+02
223             	3.30004523e+02
224             	3.30014500e+02
225             	3.30024094e+02
226             	3.30030959e+02
227             	3.30035421e+02
228             	3.30036424e+02
229             	3.30035004e+02
230             	3.30032051e+02
231             	3.30025976e+02
232             	3.30018200e+02
233             	3.30012003e+02
234             	3.30008555e+02
235             	3.30008446e+02
236             	3.30010666e+02
237             	3.30014879e+02
238             	3.30019846e+02
239             	3.30024519e+02
240             	3.30027920e+02
241             	3.30030228e+02
242             	3.30030762e+02
243             	3.30029671e+02
244             	3.30027719e+02
245             	3.30025122e+02
246             	3.30022311e+02
247             	3.30019561e+02
248             	3.30017154e+02
249             	3.30015827e+02
250             	3.30016409e+02
251             	3.30017839e+02
252             	3.30021107e+02
253             	3.30025029e+02
254             	3.30029144e+02
255             	3.30031720e+02
256             	3.30030734e+02
257             	3.30028122e+02
258             	3.30024431e+02
259             	3.30019761e+02
260             	3.30014563e+02
261             	3.30010371e+02
262             	3.30008754e+02
263             	3.30009416e+02
264             	3.30013006e+02
265             	3.30018721e+02
266             	3.30024974e+02
267             	3.30030083e+02
268             	3.30034801e+02
269             	3.30036954e+02
270             	3.30037117e+02
271             	3.30036025e+02
272             	3.30033987e+02
273             	3.30031640e+02
274             	3.30029376e+02
275             	3.30027885e+02
276             	3.30028128e+02
277             	3.30029351e+02
278             	3.30031396e+02
279             	3.30034210e+02
280             	3.30037515e+02
281             	3.30040366e+02
282             	3.30042622e+02
283             	3.30043557e+02
284             	3.30042794e+02
285             	3.30041217e+02
286             	3.30038915e+02
287             	3.30036110e+02
288             	3.30033396e+02
289             	3.30031322e+02
290             	3.30029918e+02
291             	3.30029532e+02
292             	3.30030124e+02
293             	3.30031548e+02
294             	3.30033618e+02
295             	3.30035922e+02
296             	3.30038191e+02
297             	3.30039627e+02
298             	3.30040161e+02
299             	3.30040144e+02
300             	3.30039699e+02
301             	3.30038948e+02
302             	3.30038393e+02
303             	3.30038156e+02
304             	3.30038223e+02
305             	3.30038605e+02
306             	3.30039235e+02
307             	3.30039856e+02
308             	3.30040315e+02
309             	3.30040620e+02
310             	3.30040901e+02
311             	3.30041018e+02
312             	3.30041050e+02
313             	3.30041126e+02
314             	3.30041108e+02
315             	3.30041069e+02
316             	3.30041109e+02
317             	3.30041268e+02
318             	3.30041497e+02
319             	3.30041762e+02
320             	3.30041893e+02
321             	3.30041892e+02
322             	3.30041756e+02
323             	3.30041743e+02
324             	3.30041731e+02
325             	3.30041703e+02
326             	3.30041796e+02
327             	3.30042032e+02
328             	3.30042385e+02
329             	3.30042762e+02
330             	3.30043122e+02
331             	3.30043448e+02
332             	3.30043656e+02
333             	3.30043745e+02
334             	3.30043732e+02
335             	3.30043631e+02
336             	3.30043436e+02
337             	3.30043208e+02
338             	3.30043010e+02
339             	3.30042879e+02
340             	3.30042817e+02
341             	3.30042829e+02
342             	3.30042750e+02
343             	3.30042468e+02
344             	3.30042155e+02
345             	3.30041931e+02
346             	3.30041717e+02
347             	3.30041779e+02
348             	3.30041989e+02
349             	3.30042310e+02
350             	3.30042708e+02
351             	3.30043143e+02
352             	3.30043522e+02
353             	3.30043797e+02
354             	3.30043975e+02
355             	3.30044044e+02
356             	3.30044094e+02
357             	3.30044041e+02
358             	3.30043755e+02
359             	3.30043392e+02
360             	3.30043017e+02
361             	3.30042659e+02
362             	3.30042411e+02
363             	3.30042358e+02
364             	3.30042410e+02
365             	3.30042545e+02
366             	3.30042884e+02
367             	3.30043301e+02
368             	3.30043669e+02
369             	3.30043897e+02
370             	3.30043992e+02
371             	3.30043999e+02
372             	3.30043915e+02
373             	3.30043776e+02
374             	3.30043649e+02
375             	3.30043563e+02
376             	3.30043517e+02
377             	3.30043526e+02
378             	3.30043613e+02
379             	3.30043744e+02
380             	3.30043897e+02
381             	3.30044047e+02
382             	3.30044177e+02
383             	3.30044286e+02
384             	3.30044321e+02
385             	3.30044271e+02
386             	3.30044183e+02
387             	3.30044063e+02
388             	3.30043876e+02
389             	3.30043689e+02
390             	3.30043522e+02
391             	3.30043459e+02
392             	3.30043582e+02
393             	3.30043774e+02
394             	3.30044016e+02
395             	3.30044303e+02
396             	3.30044538e+02
397             	3.30044642e+02
398             	3.30044532e+02
399             	3.30044321e+02
400             	3.30044046e+02
401             	3.30043762e+02
402             	3.30043554e+02
403             	3.30043469e+02
404             	3.30043471e+02
405             	3.30043549e+02
406             	3.30043684e+02
407             	3.30043853e+02
408             	3.30044010e+02
409             	3.30044090e+02
410             	3.30044013e+02
411             	3.30043867e+02
412             	3.30043675e+02
413             	3.30043474e+02
414             	3.30043354e+02
415             	3.30043288e+02
416             	3.30043323e+02
417             	3.30043450e+02
418             	3.30043639e+02
419             	3.30043869e+02
420             	3.30044094e+02
421             	3.30044286e+02
422             	3.30044369e+02
423             	3.30044347e+02
424             	3.30044254e+02
425             	3.30044060e+02
426             	3.30043819e+02
427             	3.30043621e+02
428             	3.30043462e+02
429             	3.30043379e+02
430             	3.30043388e+02
431             	3.30043481e+02
432             	3.30043635e+02
433             	3.30043860e+02
434             	3.30044100e+02
435             	3.30044268e+02
436             	3.30044341e+02
437             	3.30044358e+02
438             	3.30044316e+02
439             	3.30044232e+02
440             	3.30044157e+02
441             	3.30044102e+02
442             	3.30044075e+02
443             	3.30044067e+02
444             	3.30044070e+02
445             	3.30044079e+02
446             	3.30044086e+02
447             	3.30044083e+02
448             	3.30044070e+02
449             	3.30044048e+02
450             	3.30044018e+02
451             	3.30043986e+02
452             	3.30043968e+02
453             	3.30043963e+02
454             	3.30043975e+02
455             	3.30044006e+02
456             	3.30044049e+02
457             	3.30044093e+02
458             	3.30044124e+02
459             	3.30044134e+02
460             	3.30044131e+02
461             	3.30044111e+02
462             	3.30044080e+02
463             	3.30044056e+02
464             	3.30044051e+02
465             	3.30044064e+02
466             	3.30044076e+02
467             	3.30044090e+02
468             	3.30044110e+02
469             	3.30044126e+02
470             	3.30044124e+02
471             	3.30044107e+02
472             	3.30044083e+02
473             	3.30044056e+02
474             	3.30044024e+02
475             	3.30043988e+02
476             	3.30043971e+02
477             	3.30043964e+02
478             	3.30043971e+02
479             	3.30043988e+02
480             	3.30044019e+02
481             	3.30044053e+02
482             	3.30044084e+02
483             	3.30044108e+02
484             	3.30044122e+02
485             	3.30044127e+02
486             	3.30044124e+02
487             	3.30044112e+02
488             	3.30044097e+02
489             	3.30044070e+02
490             	3.30044030e+02
491             	3.30043987e+02
492             	3.30043945e+02
493             	3.30043908e+02
494             	3.30043879e+02
495             	3.30043864e+02
496             	3.30043883e+02
497             	3.30043929e+02
498             	3.30043991e+02
499             	3.30044049e+02
500             	3.30044094e+02
501             	3.30044109e+02
502             	3.30044106e+02
503             	3.30044083e+02
504             	3.30044048e+02
505             	3.30044017e+02
506             	3.30044000e+02
507             	3.30043988e+02
508             	3.30043982e+02
509             	3.30043983e+02
510             	3.30043988e+02
511             	3.30043994e+02
512             	3.30043996e+02
513             	3.30044000e+02
514             	3.30044004e+02
515             	3.30044010e+02
516             	3.30044017e+02
517             	3.30044024e+02
518             	3.30044027e+02
519             	3.30044028e+02
520             	3.30044025e+02
521             	3.30044021e+02
522             	3.30044017e+02
523             	3.30044017e+02
524             	3.30044019e+02
525             	3.30044023e+02
526             	3.30044026e+02
527             	3.30044027e+02
528             	3.30044025e+02
529             	3.30044020e+02
530             	3.30044012e+02
531             	3.30044001e+02
532             	3.30043985e+02
533             	3.30043970e+02
534             	3.30043956e+02
535             	3.30043943e+02
536             	3.30043933e+02
537             	3.30043934e+02
538             	3.30043949e+02
539             	3.30043970e+02
540             	3.30043994e+02
541             	3.30044022e+02
542             	3.30044050e+02
543             	3.30044073e+02
544             	3.30044081e+02
545             	3.30044079e+02
546             	3.30044066e+02
547             	3.30044039e+02
548             	3.30044005e+02
549             	3.30043971e+02
550             	3.30043942e+02
551             	3.30043922e+02
552             	3.30043911e+02
553             	3.30043914e+02
554             	3.30043927e+02
555             	3.30043944e+02
556             	3.30043964e+02
557             	3.30043983e+02
558             	3.30043994e+02
559             	3.30044001e+02
560             	3.30044001e+02
561             	3.30043998e+02
562             	3.30043991e+02
563             	3.30043981e+02
564             	3.30043971e+02
565             	3.30043963e+02
566             	3.30043955e+02
567             	3.30043949e+02
568             	3.30043945e+02
569             	3.30043943e+02
570             	3.30043944e+02
571             	3.30043945e+02
572             	3.30043946e+02
573             	3.30043947e+02
574             	3.30043950e+02
575             	3.30043952e+02
576             	3.30043955e+02
577             	3.30043959e+02
578             	3.30043965e+02
579             	3.30043970e+02
580             	3.30043976e+02
581             	3.30043982e+02
582             	3.30043987e+02
583             	3.30043992e+02
584             	3.30043992e+02
585             	3.30043991e+02
586             	3.30043989e+02
587             	3.30043986e+02
588             	3.30043983e+02
589             	3.30043979e+02
590             	3.30043974e+02
591             	3.30043969e+02
592             	3.30043964e+02
593             	3.30043962e+02
594             	3.30043960e+02
595             	3.30043962e+02
596             	3.30043972e+02
597             	3.30043983e+02
598             	3.30043996e+02
599             	3.30044011e+02
600             	3.30044022e+02
601             	3.30044029e+02
602             	3.30044028e+02
603             	3.30044023e+02
604             	3.30044013e+02
605             	3.30043999e+02
606             	3.30043982e+02
607             	3.30043963e+02
608             	3.30043946e+02
609             	3.30043933e+02
610             	3.30043932e+02
611             	3.30043936e+02
612             	3.30043945e+02
613             	3.30043958e+02
614             	3.30043974e+02
615             	3.30043984e+02
616             	3.30043991e+02
617             	3.30043994e+02
618             	3.30043995e+02
619             	3.30043992e+02
620             	3.30043988e+02
621             	3.30043982e+02
