# Region        : cellZone component_4
# Cells         : 175
# Volume        : 3.69925086e-01
# Time          	volAverage(T)
1               	3.00323800e+02
2               	3.00643714e+02
3               	3.00941087e+02
4               	3.01221603e+02
5               	3.01492708e+02
6               	3.01755520e+02
7               	3.02012121e+02
8               	3.02262063e+02
9               	3.02507038e+02
10              	3.02749399e+02
11              	3.02984095e+02
12              	3.03217629e+02
13              	3.03446165e+02
14              	3.03670033e+02
15              	3.03890210e+02
16              	3.04103194e+02
17              	3.04313597e+02
18              	3.04521418e+02
19              	3.04732740e+02
20              	3.04935669e+02
21              	3.05129059e+02
22              	3.05312006e+02
23              	3.05492587e+02
24              	3.05675788e+02
25              	3.05859414e+02
26              	3.06040969e+02
27              	3.06219310e+02
28              	3.06394511e+02
29              	3.06569966e+02
30              	3.06742730e+02
31              	3.06908779e+02
32              	3.07070331e+02
33              	3.07231336e+02
34              	3.07392893e+02
35              	3.07554196e+02
36              	3.07715761e+02
37              	3.07875104e+02
38              	3.08029960e+02
39              	3.08179219e+02
40              	3.08323372e+02
41              	3.08461184e+02
42              	3.08596482e+02
43              	3.08729630e+02
44              	3.08864754e+02
45              	3.08993864e+02
46              	3.09121514e+02
47              	3.09239764e+02
48              	3.09351644e+02
49              	3.09458189e+02
50              	3.09559204e+02
51              	3.09658904e+02
52              	3.09747357e+02
53              	3.09829571e+02
54              	3.09911329e+02
55              	3.09998027e+02
56              	3.10081296e+02
57              	3.10159827e+02
58              	3.10233818e+02
59              	3.10306121e+02
60              	3.10377382e+02
61              	3.10447406e+02
62              	3.10516322e+02
63              	3.10581884e+02
64              	3.10646480e+02
65              	3.10709540e+02
66              	3.10769776e+02
67              	3.10828075e+02
68              	3.10884153e+02
69              	3.10937054e+02
70              	3.10989255e+02
71              	3.11040012e+02
72              	3.11091120e+02
73              	3.11139859e+02
74              	3.11190347e+02
75              	3.11238571e+02
76              	3.11287335e+02
77              	3.11332702e+02
78              	3.11377709e+02
79              	3.11422510e+02
80              	3.11467657e+02
81              	3.11511745e+02
82              	3.11554391e+02
83              	3.11596137e+02
84              	3.11635673e+02
85              	3.11669133e+02
86              	3.11698798e+02
87              	3.11723992e+02
88              	3.11743651e+02
89              	3.11758497e+02
90              	3.11769731e+02
91              	3.11778826e+02
92              	3.11787328e+02
93              	3.11795618e+02
94              	3.11805359e+02
95              	3.11817977e+02
96              	3.11833051e+02
97              	3.11852013e+02
98              	3.11874222e+02
99              	3.11899775e+02
100             	3.11926745e+02
101             	3.11953892e+02
102             	3.11979946e+02
103             	3.12004653e+02
104             	3.12028332e+02
105             	3.12050993e+02
106             	3.12072129e+02
107             	3.12091429e+02
108             	3.12109385e+02
109             	3.12125491e+02
110             	3.12139519e+02
111             	3.12151218e+02
112             	3.12162538e+02
113             	3.12175417e+02
114             	3.12191581e+02
115             	3.12209931e+02
116             	3.12230885e+02
117             	3.12253726e+02
118             	3.12277025e+02
119             	3.12300133e+02
120             	3.12320347e+02
121             	3.12335222e+02
122             	3.12345185e+02
123             	3.12350964e+02
124             	3.12353521e+02
125             	3.12354496e+02
126             	3.12354862e+02
127             	3.12355195e+02
128             	3.12354511e+02
129             	3.12353006e+02
130             	3.12350207e+02
131             	3.12345461e+02
132             	3.12338802e+02
133             	3.12330177e+02
134             	3.12319820e+02
135             	3.12307563e+02
136             	3.12293979e+02
137             	3.12281468e+02
138             	3.12270955e+02
139             	3.12262296e+02
140             	3.12255363e+02
141             	3.12250432e+02
142             	3.12247849e+02
143             	3.12246292e+02
144             	3.12243884e+02
145             	3.12241618e+02
146             	3.12238440e+02
147             	3.12233417e+02
148             	3.12226798e+02
149             	3.12218379e+02
150             	3.12208973e+02
151             	3.12198854e+02
152             	3.12188842e+02
153             	3.12178908e+02
154             	3.12170164e+02
155             	3.12163572e+02
156             	3.12159551e+02
157             	3.12157625e+02
158             	3.12157218e+02
159             	3.12158174e+02
160             	3.12161670e+02
161             	3.12166375e+02
162             	3.12171437e+02
163             	3.12176771e+02
164             	3.12180844e+02
165             	3.12184518e+02
166             	3.12186882e+02
167             	3.12188013e+02
168             	3.12188022e+02
169             	3.12187326e+02
170             	3.12186225e+02
171             	3.12185087e+02
172             	3.12184290e+02
173             	3.12184043e+02
174             	3.12185031e+02
175             	3.12187580e+02
176             	3.12191753e+02
177             	3.12198083e+02
178             	3.12206090e+02
179             	3.12215423e+02
180             	3.12225986e+02
181             	3.12237840e+02
182             	3.12250410e+02
183             	3.12263663e+02
184             	3.12277037e+02
185             	3.12290898e+02
186             	3.12305190e+02
187             	3.12319254e+02
188             	3.12332837e+02
189             	3.12345490e+02
190             	3.12356740e+02
191             	3.12366930e+02
192             	3.12375903e+02
193             	3.12383850e+02
194             	3.12390523e+02
195             	3.12396098e+02
196             	3.12400847e+02
197             	3.12404707e+02
198             	3.12408453e+02
199             	3.12412234e+02
200             	3.12415875e+02
201             	3.12419268e+02
202             	3.12421900e+02
203             	3.12423645e+02
204             	3.12424534e+02
205             	3.12424744e+02
206             	3.12424334e+02
207             	3.12423274e+02
208             	3.12421641e+02
209             	3.12419520e+02
210             	3.12417126e+02
211             	3.12415027e+02
212             	3.12413291e+02
213             	3.12412533e+02
214             	3.12412604e+02
215             	3.12413585e+02
216             	3.12415697e+02
217             	3.12418927e+02
218             	3.12422854e+02
219             	3.12427506e+02
220             	3.12433146e+02
221             	3.12439808e+02
222             	3.12447771e+02
223             	3.12456460e+02
224             	3.12466575e+02
225             	3.12477782e+02
226             	3.12489938e+02
227             	3.12502005e+02
228             	3.12514929e+02
229             	3.12527690e+02
230             	3.12540220e+02
231             	3.12552175e+02
232             	3.12563633e+02
233             	3.12573869e+02
234             	3.12583351e+02
235             	3.12592092e+02
236             	3.12599968e+02
237             	3.12607310e+02
238             	3.12613904e+02
239             	3.12619908e+02
240             	3.12624809e+02
241             	3.12628637e+02
242             	3.12631320e+02
243             	3.12632926e+02
244             	3.12633023e+02
245             	3.12631796e+02
246             	3.12629572e+02
247             	3.12626662e+02
248             	3.12623233e+02
249             	3.12619785e+02
250             	3.12616400e+02
251             	3.12613261e+02
252             	3.12610489e+02
253             	3.12607863e+02
254             	3.12605934e+02
255             	3.12604561e+02
256             	3.12603799e+02
257             	3.12603633e+02
258             	3.12604373e+02
259             	3.12605969e+02
260             	3.12608345e+02
261             	3.12611422e+02
262             	3.12615093e+02
263             	3.12619210e+02
264             	3.12623675e+02
265             	3.12628617e+02
266             	3.12633973e+02
267             	3.12639658e+02
268             	3.12645559e+02
269             	3.12651599e+02
270             	3.12657384e+02
271             	3.12662893e+02
272             	3.12668252e+02
273             	3.12672874e+02
274             	3.12676597e+02
275             	3.12679568e+02
276             	3.12682015e+02
277             	3.12683530e+02
278             	3.12684523e+02
279             	3.12685244e+02
280             	3.12686044e+02
281             	3.12686609e+02
282             	3.12686958e+02
283             	3.12687488e+02
284             	3.12688199e+02
285             	3.12689022e+02
286             	3.12689901e+02
287             	3.12690791e+02
288             	3.12691800e+02
289             	3.12693023e+02
290             	3.12694452e+02
291             	3.12695824e+02
292             	3.12697346e+02
293             	3.12698929e+02
294             	3.12700598e+02
295             	3.12702299e+02
296             	3.12704107e+02
297             	3.12705942e+02
298             	3.12707764e+02
299             	3.12709479e+02
300             	3.12711127e+02
301             	3.12712760e+02
302             	3.12714335e+02
303             	3.12715846e+02
304             	3.12717439e+02
305             	3.12719249e+02
306             	3.12721068e+02
307             	3.12722844e+02
308             	3.12724642e+02
309             	3.12726518e+02
310             	3.12728262e+02
311             	3.12729999e+02
312             	3.12731684e+02
313             	3.12733292e+02
314             	3.12734834e+02
315             	3.12736397e+02
316             	3.12738075e+02
317             	3.12739924e+02
318             	3.12741620e+02
319             	3.12743290e+02
320             	3.12744886e+02
321             	3.12746278e+02
322             	3.12747495e+02
323             	3.12748542e+02
324             	3.12749427e+02
325             	3.12750241e+02
326             	3.12750851e+02
327             	3.12751174e+02
328             	3.12751463e+02
329             	3.12751673e+02
330             	3.12751735e+02
331             	3.12751568e+02
332             	3.12751199e+02
333             	3.12750641e+02
334             	3.12749915e+02
335             	3.12748980e+02
336             	3.12747986e+02
337             	3.12747074e+02
338             	3.12746264e+02
339             	3.12745449e+02
340             	3.12744837e+02
341             	3.12744255e+02
342             	3.12743834e+02
343             	3.12743587e+02
344             	3.12743502e+02
345             	3.12743628e+02
346             	3.12743884e+02
347             	3.12744259e+02
348             	3.12744870e+02
349             	3.12745756e+02
350             	3.12746934e+02
351             	3.12748426e+02
352             	3.12750247e+02
353             	3.12752350e+02
354             	3.12754709e+02
355             	3.12757283e+02
356             	3.12759980e+02
357             	3.12762670e+02
358             	3.12765340e+02
359             	3.12768246e+02
360             	3.12771244e+02
361             	3.12774026e+02
362             	3.12776634e+02
363             	3.12779098e+02
364             	3.12781339e+02
365             	3.12783247e+02
366             	3.12784794e+02
367             	3.12786034e+02
368             	3.12787024e+02
369             	3.12787600e+02
370             	3.12787745e+02
371             	3.12787521e+02
372             	3.12786985e+02
373             	3.12786198e+02
374             	3.12785273e+02
375             	3.12784139e+02
376             	3.12782861e+02
377             	3.12781423e+02
378             	3.12780049e+02
379             	3.12778796e+02
380             	3.12777712e+02
381             	3.12776801e+02
382             	3.12776037e+02
383             	3.12775475e+02
384             	3.12775265e+02
385             	3.12775274e+02
386             	3.12775481e+02
387             	3.12775928e+02
388             	3.12776620e+02
389             	3.12777538e+02
390             	3.12778679e+02
391             	3.12780005e+02
392             	3.12781588e+02
393             	3.12783410e+02
394             	3.12785169e+02
395             	3.12787061e+02
396             	3.12789031e+02
397             	3.12791044e+02
398             	3.12793118e+02
399             	3.12795267e+02
400             	3.12797399e+02
401             	3.12799397e+02
402             	3.12801323e+02
403             	3.12803146e+02
404             	3.12804730e+02
405             	3.12806054e+02
406             	3.12807157e+02
407             	3.12808052e+02
408             	3.12808751e+02
409             	3.12809325e+02
410             	3.12809775e+02
411             	3.12809922e+02
412             	3.12809846e+02
413             	3.12809580e+02
414             	3.12809160e+02
415             	3.12808549e+02
416             	3.12807790e+02
417             	3.12806939e+02
418             	3.12806028e+02
419             	3.12805101e+02
420             	3.12804189e+02
421             	3.12803323e+02
422             	3.12802509e+02
423             	3.12801754e+02
424             	3.12801045e+02
425             	3.12800433e+02
426             	3.12799934e+02
427             	3.12799801e+02
428             	3.12799895e+02
429             	3.12800273e+02
430             	3.12800995e+02
431             	3.12802048e+02
432             	3.12803393e+02
433             	3.12804975e+02
434             	3.12806764e+02
435             	3.12808730e+02
436             	3.12810800e+02
437             	3.12812930e+02
438             	3.12815108e+02
439             	3.12817066e+02
440             	3.12818982e+02
441             	3.12820766e+02
442             	3.12822375e+02
443             	3.12823756e+02
444             	3.12825014e+02
445             	3.12826038e+02
446             	3.12826821e+02
447             	3.12827371e+02
448             	3.12827712e+02
449             	3.12827821e+02
450             	3.12827670e+02
451             	3.12827279e+02
452             	3.12826633e+02
453             	3.12825754e+02
454             	3.12824690e+02
455             	3.12823485e+02
456             	3.12822196e+02
457             	3.12820858e+02
458             	3.12819598e+02
459             	3.12818455e+02
460             	3.12817364e+02
461             	3.12816387e+02
462             	3.12815549e+02
463             	3.12814923e+02
464             	3.12814535e+02
465             	3.12814376e+02
466             	3.12814391e+02
467             	3.12814696e+02
468             	3.12815272e+02
469             	3.12816082e+02
470             	3.12817094e+02
471             	3.12818343e+02
472             	3.12819762e+02
473             	3.12821379e+02
474             	3.12823102e+02
475             	3.12824916e+02
476             	3.12826715e+02
477             	3.12828545e+02
478             	3.12830365e+02
479             	3.12832130e+02
480             	3.12833711e+02
481             	3.12835212e+02
482             	3.12836490e+02
483             	3.12837583e+02
484             	3.12838515e+02
485             	3.12839284e+02
486             	3.12839733e+02
487             	3.12839909e+02
488             	3.12839782e+02
489             	3.12839411e+02
490             	3.12838851e+02
491             	3.12838146e+02
492             	3.12837347e+02
493             	3.12836498e+02
494             	3.12835614e+02
495             	3.12834712e+02
496             	3.12833833e+02
497             	3.12833038e+02
498             	3.12832298e+02
499             	3.12831636e+02
500             	3.12831087e+02
501             	3.12830761e+02
502             	3.12830636e+02
503             	3.12830727e+02
504             	3.12831023e+02
505             	3.12831491e+02
506             	3.12832123e+02
507             	3.12832918e+02
508             	3.12833846e+02
509             	3.12834892e+02
510             	3.12836061e+02
511             	3.12837332e+02
512             	3.12838627e+02
513             	3.12839909e+02
514             	3.12841166e+02
515             	3.12842378e+02
516             	3.12843380e+02
517             	3.12844124e+02
518             	3.12844684e+02
519             	3.12845036e+02
520             	3.12845212e+02
521             	3.12845254e+02
522             	3.12845093e+02
523             	3.12844692e+02
524             	3.12844085e+02
525             	3.12843420e+02
526             	3.12842695e+02
527             	3.12841917e+02
528             	3.12841291e+02
529             	3.12840741e+02
530             	3.12840256e+02
531             	3.12839785e+02
532             	3.12839362e+02
533             	3.12839022e+02
534             	3.12838810e+02
535             	3.12838660e+02
536             	3.12838565e+02
537             	3.12838554e+02
538             	3.12838637e+02
539             	3.12838824e+02
540             	3.12839177e+02
541             	3.12839669e+02
542             	3.12840273e+02
543             	3.12840959e+02
544             	3.12841757e+02
545             	3.12842618e+02
546             	3.12843520e+02
547             	3.12844447e+02
548             	3.12845383e+02
549             	3.12846254e+02
550             	3.12847087e+02
551             	3.12847844e+02
552             	3.12848484e+02
553             	3.12849005e+02
554             	3.12849407e+02
555             	3.12849709e+02
556             	3.12849930e+02
557             	3.12850072e+02
558             	3.12850139e+02
559             	3.12850116e+02
560             	3.12850126e+02
561             	3.12850077e+02
562             	3.12849961e+02
563             	3.12849810e+02
564             	3.12849650e+02
565             	3.12849482e+02
566             	3.12849315e+02
567             	3.12849139e+02
568             	3.12848965e+02
569             	3.12848779e+02
570             	3.12848598e+02
571             	3.12848431e+02
572             	3.12848291e+02
573             	3.12848169e+02
574             	3.12848050e+02
575             	3.12847942e+02
576             	3.12847846e+02
577             	3.12847746e+02
578             	3.12847667e+02
579             	3.12847602e+02
580             	3.12847564e+02
581             	3.12847549e+02
582             	3.12847538e+02
583             	3.12847530e+02
584             	3.12847547e+02
585             	3.12847592e+02
586             	3.12847665e+02
587             	3.12847745e+02
588             	3.12847815e+02
589             	3.12847891e+02
590             	3.12847973e+02
591             	3.12848059e+02
592             	3.12848145e+02
593             	3.12848234e+02
594             	3.12848342e+02
595             	3.12848461e+02
596             	3.12848609e+02
597             	3.12848784e+02
598             	3.12848993e+02
599             	3.12849226e+02
600             	3.12849482e+02
601             	3.12849763e+02
602             	3.12850080e+02
603             	3.12850415e+02
604             	3.12850740e+02
605             	3.12851061e+02
606             	3.12851376e+02
607             	3.12851689e+02
608             	3.12852007e+02
609             	3.12852308e+02
610             	3.12852608e+02
611             	3.12852904e+02
612             	3.12853176e+02
613             	3.12853430e+02
614             	3.12853618e+02
615             	3.12853773e+02
616             	3.12853888e+02
617             	3.12853952e+02
618             	3.12853954e+02
619             	3.12853885e+02
620             	3.12853767e+02
621             	3.12853634e+02
