# Region        : cellZone component_4
# Cells         : 768
# Volume        : 1.48138348e+00
# Time          	volAverage(T)
1               	3.00443413e+02
2               	3.00871331e+02
3               	3.01189836e+02
4               	3.01430513e+02
5               	3.01680390e+02
6               	3.01968310e+02
7               	3.02255889e+02
8               	3.02503400e+02
9               	3.02715741e+02
10              	3.02923453e+02
11              	3.03139129e+02
12              	3.03352990e+02
13              	3.03552842e+02
14              	3.03737716e+02
15              	3.03918807e+02
16              	3.04098143e+02
17              	3.04268644e+02
18              	3.04429142e+02
19              	3.04581467e+02
20              	3.04734371e+02
21              	3.04883514e+02
22              	3.05023343e+02
23              	3.05151666e+02
24              	3.05270213e+02
25              	3.05386070e+02
26              	3.05499763e+02
27              	3.05609074e+02
28              	3.05716562e+02
29              	3.05821701e+02
30              	3.05922293e+02
31              	3.06013013e+02
32              	3.06100043e+02
33              	3.06193468e+02
34              	3.06289861e+02
35              	3.06382404e+02
36              	3.06471983e+02
37              	3.06557775e+02
38              	3.06639487e+02
39              	3.06719814e+02
40              	3.06798500e+02
41              	3.06873390e+02
42              	3.06940453e+02
43              	3.07001030e+02
44              	3.07057673e+02
45              	3.07112863e+02
46              	3.07170657e+02
47              	3.07231364e+02
48              	3.07293318e+02
49              	3.07354028e+02
50              	3.07416397e+02
51              	3.07478721e+02
52              	3.07534294e+02
53              	3.07584381e+02
54              	3.07629223e+02
55              	3.07670033e+02
56              	3.07707363e+02
57              	3.07740972e+02
58              	3.07773123e+02
59              	3.07808012e+02
60              	3.07846476e+02
61              	3.07888052e+02
62              	3.07929687e+02
63              	3.07975954e+02
64              	3.08021820e+02
65              	3.08055311e+02
66              	3.08083071e+02
67              	3.08108832e+02
68              	3.08133477e+02
69              	3.08155395e+02
70              	3.08175585e+02
71              	3.08195386e+02
72              	3.08218001e+02
73              	3.08243622e+02
74              	3.08272438e+02
75              	3.08302147e+02
76              	3.08334219e+02
77              	3.08366648e+02
78              	3.08395014e+02
79              	3.08420881e+02
80              	3.08442303e+02
81              	3.08460822e+02
82              	3.08477884e+02
83              	3.08494113e+02
84              	3.08508920e+02
85              	3.08524202e+02
86              	3.08541587e+02
87              	3.08560654e+02
88              	3.08581957e+02
89              	3.08605010e+02
90              	3.08628722e+02
91              	3.08652379e+02
92              	3.08676437e+02
93              	3.08700571e+02
94              	3.08722086e+02
95              	3.08741969e+02
96              	3.08759776e+02
97              	3.08776683e+02
98              	3.08792997e+02
99              	3.08809055e+02
100             	3.08825002e+02
101             	3.08840880e+02
102             	3.08856426e+02
103             	3.08872552e+02
104             	3.08888387e+02
105             	3.08904009e+02
106             	3.08919522e+02
107             	3.08934811e+02
108             	3.08950866e+02
109             	3.08967459e+02
110             	3.08985307e+02
111             	3.09004028e+02
112             	3.09022841e+02
113             	3.09041375e+02
114             	3.09060218e+02
115             	3.09077168e+02
116             	3.09090870e+02
117             	3.09102718e+02
118             	3.09113266e+02
119             	3.09122932e+02
120             	3.09132403e+02
121             	3.09142302e+02
122             	3.09153539e+02
123             	3.09166427e+02
124             	3.09180045e+02
125             	3.09195292e+02
126             	3.09211548e+02
127             	3.09227905e+02
128             	3.09245024e+02
129             	3.09259745e+02
130             	3.09271080e+02
131             	3.09280605e+02
132             	3.09289608e+02
133             	3.09298242e+02
134             	3.09306679e+02
135             	3.09314794e+02
136             	3.09323783e+02
137             	3.09335253e+02
138             	3.09348340e+02
139             	3.09362473e+02
140             	3.09377638e+02
141             	3.09393377e+02
142             	3.09406255e+02
143             	3.09415831e+02
144             	3.09423046e+02
145             	3.09428674e+02
146             	3.09433318e+02
147             	3.09438955e+02
148             	3.09447342e+02
149             	3.09458508e+02
150             	3.09470584e+02
151             	3.09482563e+02
152             	3.09496522e+02
153             	3.09512724e+02
154             	3.09524324e+02
155             	3.09531753e+02
156             	3.09536632e+02
157             	3.09540970e+02
158             	3.09544818e+02
159             	3.09547929e+02
160             	3.09551828e+02
161             	3.09559698e+02
162             	3.09569820e+02
163             	3.09580570e+02
164             	3.09594930e+02
165             	3.09611339e+02
166             	3.09622455e+02
167             	3.09628270e+02
168             	3.09630843e+02
169             	3.09632230e+02
170             	3.09632345e+02
171             	3.09631353e+02
172             	3.09632685e+02
173             	3.09638438e+02
174             	3.09647057e+02
175             	3.09656723e+02
176             	3.09667236e+02
177             	3.09684211e+02
178             	3.09697789e+02
179             	3.09704987e+02
180             	3.09706721e+02
181             	3.09703255e+02
182             	3.09700618e+02
183             	3.09701561e+02
184             	3.09706336e+02
185             	3.09713558e+02
186             	3.09721658e+02
187             	3.09732590e+02
188             	3.09745611e+02
189             	3.09761539e+02
190             	3.09769129e+02
191             	3.09774035e+02
192             	3.09777673e+02
193             	3.09780478e+02
194             	3.09781898e+02
195             	3.09781389e+02
196             	3.09781436e+02
197             	3.09785269e+02
198             	3.09792028e+02
199             	3.09801640e+02
200             	3.09811512e+02
201             	3.09824653e+02
202             	3.09835169e+02
203             	3.09844871e+02
204             	3.09853637e+02
205             	3.09860387e+02
206             	3.09864576e+02
207             	3.09866933e+02
208             	3.09867787e+02
209             	3.09868988e+02
210             	3.09872526e+02
211             	3.09879258e+02
212             	3.09888427e+02
213             	3.09899563e+02
214             	3.09910300e+02
215             	3.09922107e+02
216             	3.09928508e+02
217             	3.09935555e+02
218             	3.09941825e+02
219             	3.09946387e+02
220             	3.09949343e+02
221             	3.09950930e+02
222             	3.09952066e+02
223             	3.09954295e+02
224             	3.09959332e+02
225             	3.09966728e+02
226             	3.09976011e+02
227             	3.09983626e+02
228             	3.09993129e+02
229             	3.10002045e+02
230             	3.10008439e+02
231             	3.10013296e+02
232             	3.10016124e+02
233             	3.10018400e+02
234             	3.10020094e+02
235             	3.10020647e+02
236             	3.10020847e+02
237             	3.10022111e+02
238             	3.10025477e+02
239             	3.10031600e+02
240             	3.10038890e+02
241             	3.10047790e+02
242             	3.10054756e+02
243             	3.10061145e+02
244             	3.10066714e+02
245             	3.10070887e+02
246             	3.10074576e+02
247             	3.10077555e+02
248             	3.10079671e+02
249             	3.10081280e+02
250             	3.10083108e+02
251             	3.10086849e+02
252             	3.10092262e+02
253             	3.10099354e+02
254             	3.10106760e+02
255             	3.10115541e+02
256             	3.10122122e+02
257             	3.10129422e+02
258             	3.10134539e+02
259             	3.10137896e+02
260             	3.10139693e+02
261             	3.10140309e+02
262             	3.10140175e+02
263             	3.10139865e+02
264             	3.10140755e+02
265             	3.10143743e+02
266             	3.10149366e+02
267             	3.10156367e+02
268             	3.10164754e+02
269             	3.10173884e+02
270             	3.10176572e+02
271             	3.10178008e+02
272             	3.10179157e+02
273             	3.10179890e+02
274             	3.10179222e+02
275             	3.10177054e+02
276             	3.10175302e+02
277             	3.10176293e+02
278             	3.10178851e+02
279             	3.10183617e+02
280             	3.10188842e+02
281             	3.10195213e+02
282             	3.10202802e+02
283             	3.10207700e+02
284             	3.10211279e+02
285             	3.10213817e+02
286             	3.10215529e+02
287             	3.10216222e+02
288             	3.10215683e+02
289             	3.10214258e+02
290             	3.10212692e+02
291             	3.10212936e+02
292             	3.10215813e+02
293             	3.10221005e+02
294             	3.10227844e+02
295             	3.10235058e+02
296             	3.10241980e+02
297             	3.10245896e+02
298             	3.10249942e+02
299             	3.10252855e+02
300             	3.10254216e+02
301             	3.10254137e+02
302             	3.10253209e+02
303             	3.10251954e+02
304             	3.10250558e+02
305             	3.10250442e+02
306             	3.10252702e+02
307             	3.10257103e+02
308             	3.10262849e+02
309             	3.10268345e+02
310             	3.10274870e+02
311             	3.10279710e+02
312             	3.10283232e+02
313             	3.10285150e+02
314             	3.10285274e+02
315             	3.10283786e+02
316             	3.10281872e+02
317             	3.10280037e+02
318             	3.10280012e+02
319             	3.10281052e+02
320             	3.10283966e+02
321             	3.10287371e+02
322             	3.10292887e+02
323             	3.10298862e+02
324             	3.10303940e+02
325             	3.10308694e+02
326             	3.10312702e+02
327             	3.10315916e+02
328             	3.10318027e+02
329             	3.10319224e+02
330             	3.10320123e+02
331             	3.10320998e+02
332             	3.10321864e+02
333             	3.10322743e+02
334             	3.10323801e+02
335             	3.10325053e+02
336             	3.10326671e+02
337             	3.10328725e+02
338             	3.10330797e+02
339             	3.10333069e+02
340             	3.10335579e+02
341             	3.10338221e+02
342             	3.10340561e+02
343             	3.10343028e+02
344             	3.10346303e+02
345             	3.10350124e+02
346             	3.10353836e+02
347             	3.10356234e+02
348             	3.10357569e+02
349             	3.10358616e+02
350             	3.10359410e+02
351             	3.10359950e+02
352             	3.10360248e+02
353             	3.10360119e+02
354             	3.10360278e+02
355             	3.10361424e+02
356             	3.10363299e+02
357             	3.10365553e+02
358             	3.10368103e+02
359             	3.10371093e+02
360             	3.10374358e+02
361             	3.10377715e+02
362             	3.10381107e+02
363             	3.10383743e+02
364             	3.10385832e+02
365             	3.10387202e+02
366             	3.10388046e+02
367             	3.10388430e+02
368             	3.10388447e+02
369             	3.10388249e+02
370             	3.10387781e+02
371             	3.10387686e+02
372             	3.10388508e+02
373             	3.10390126e+02
374             	3.10392257e+02
375             	3.10394656e+02
376             	3.10397217e+02
377             	3.10399816e+02
378             	3.10402922e+02
379             	3.10406282e+02
380             	3.10408299e+02
381             	3.10409375e+02
382             	3.10410032e+02
383             	3.10410598e+02
384             	3.10410947e+02
385             	3.10410919e+02
386             	3.10410565e+02
387             	3.10410101e+02
388             	3.10409613e+02
389             	3.10410076e+02
390             	3.10411250e+02
391             	3.10412883e+02
392             	3.10414785e+02
393             	3.10416768e+02
394             	3.10418793e+02
395             	3.10420879e+02
396             	3.10423085e+02
397             	3.10425446e+02
398             	3.10427302e+02
399             	3.10428527e+02
400             	3.10429428e+02
401             	3.10430247e+02
402             	3.10431155e+02
403             	3.10431825e+02
404             	3.10432320e+02
405             	3.10432859e+02
406             	3.10433416e+02
407             	3.10433874e+02
408             	3.10434159e+02
409             	3.10434277e+02
410             	3.10434487e+02
411             	3.10434627e+02
412             	3.10434495e+02
413             	3.10434390e+02
414             	3.10434597e+02
415             	3.10435171e+02
416             	3.10435891e+02
417             	3.10436939e+02
418             	3.10438345e+02
419             	3.10440031e+02
420             	3.10441859e+02
421             	3.10443810e+02
422             	3.10444943e+02
423             	3.10445641e+02
424             	3.10446186e+02
425             	3.10446337e+02
426             	3.10446170e+02
427             	3.10445919e+02
428             	3.10445761e+02
429             	3.10445762e+02
430             	3.10445770e+02
431             	3.10445745e+02
432             	3.10446028e+02
433             	3.10447156e+02
434             	3.10448910e+02
435             	3.10450905e+02
436             	3.10452943e+02
437             	3.10455045e+02
438             	3.10456854e+02
439             	3.10458117e+02
440             	3.10458945e+02
441             	3.10459557e+02
442             	3.10460121e+02
443             	3.10460565e+02
444             	3.10460835e+02
445             	3.10460936e+02
446             	3.10460880e+02
447             	3.10460770e+02
448             	3.10460593e+02
449             	3.10460587e+02
450             	3.10460949e+02
451             	3.10461600e+02
452             	3.10462553e+02
453             	3.10463695e+02
454             	3.10464870e+02
455             	3.10466273e+02
456             	3.10468087e+02
457             	3.10470087e+02
458             	3.10471016e+02
459             	3.10471061e+02
460             	3.10470831e+02
461             	3.10470644e+02
462             	3.10470477e+02
463             	3.10470169e+02
464             	3.10469658e+02
465             	3.10469003e+02
466             	3.10468330e+02
467             	3.10467972e+02
468             	3.10467938e+02
469             	3.10468270e+02
470             	3.10469230e+02
471             	3.10470645e+02
472             	3.10472028e+02
473             	3.10473054e+02
474             	3.10474387e+02
475             	3.10475889e+02
476             	3.10476756e+02
477             	3.10477025e+02
478             	3.10477061e+02
479             	3.10477092e+02
480             	3.10477050e+02
481             	3.10476876e+02
482             	3.10476616e+02
483             	3.10476134e+02
484             	3.10475943e+02
485             	3.10476163e+02
486             	3.10476800e+02
487             	3.10477794e+02
488             	3.10478948e+02
489             	3.10480174e+02
490             	3.10481337e+02
491             	3.10482597e+02
492             	3.10483962e+02
493             	3.10485464e+02
494             	3.10486199e+02
495             	3.10486480e+02
496             	3.10486610e+02
497             	3.10486698e+02
498             	3.10486746e+02
499             	3.10486729e+02
500             	3.10486645e+02
501             	3.10486585e+02
502             	3.10486523e+02
503             	3.10486381e+02
504             	3.10486183e+02
505             	3.10485925e+02
506             	3.10485647e+02
507             	3.10485231e+02
508             	3.10485034e+02
509             	3.10485371e+02
510             	3.10486037e+02
511             	3.10486785e+02
512             	3.10487585e+02
513             	3.10488428e+02
514             	3.10489343e+02
515             	3.10490318e+02
516             	3.10491317e+02
517             	3.10492230e+02
518             	3.10492684e+02
519             	3.10492914e+02
520             	3.10493130e+02
521             	3.10493340e+02
522             	3.10493568e+02
523             	3.10493838e+02
524             	3.10494128e+02
525             	3.10494345e+02
526             	3.10494478e+02
527             	3.10494613e+02
528             	3.10494747e+02
529             	3.10494804e+02
530             	3.10494718e+02
531             	3.10494782e+02
532             	3.10495095e+02
533             	3.10495536e+02
534             	3.10496037e+02
535             	3.10496622e+02
536             	3.10497292e+02
537             	3.10498157e+02
538             	3.10498626e+02
539             	3.10498817e+02
540             	3.10498829e+02
541             	3.10498701e+02
542             	3.10498334e+02
543             	3.10497705e+02
544             	3.10496872e+02
545             	3.10495997e+02
546             	3.10495063e+02
547             	3.10494807e+02
548             	3.10495061e+02
549             	3.10495635e+02
550             	3.10496407e+02
551             	3.10497239e+02
552             	3.10498103e+02
553             	3.10498917e+02
554             	3.10499796e+02
555             	3.10500612e+02
556             	3.10501392e+02
557             	3.10501955e+02
558             	3.10502081e+02
559             	3.10501975e+02
560             	3.10501844e+02
561             	3.10501835e+02
562             	3.10501857e+02
563             	3.10501815e+02
564             	3.10501662e+02
565             	3.10501450e+02
566             	3.10501482e+02
567             	3.10501598e+02
568             	3.10501866e+02
569             	3.10502154e+02
570             	3.10502485e+02
571             	3.10502777e+02
572             	3.10502994e+02
573             	3.10503192e+02
574             	3.10503420e+02
575             	3.10503690e+02
576             	3.10503978e+02
577             	3.10504227e+02
578             	3.10504428e+02
579             	3.10504604e+02
580             	3.10504753e+02
581             	3.10504970e+02
582             	3.10504645e+02
583             	3.10504129e+02
584             	3.10503517e+02
585             	3.10502824e+02
586             	3.10502073e+02
587             	3.10501294e+02
588             	3.10500936e+02
589             	3.10500836e+02
590             	3.10501167e+02
591             	3.10501865e+02
592             	3.10502763e+02
593             	3.10503712e+02
594             	3.10504529e+02
595             	3.10505350e+02
596             	3.10506439e+02
597             	3.10507626e+02
598             	3.10508543e+02
599             	3.10508728e+02
600             	3.10508343e+02
601             	3.10507813e+02
602             	3.10507333e+02
603             	3.10506865e+02
604             	3.10506366e+02
605             	3.10505780e+02
606             	3.10505415e+02
607             	3.10505014e+02
608             	3.10504810e+02
609             	3.10504971e+02
610             	3.10505330e+02
611             	3.10505675e+02
612             	3.10505995e+02
613             	3.10506315e+02
614             	3.10506691e+02
615             	3.10507090e+02
616             	3.10507506e+02
617             	3.10507753e+02
618             	3.10507852e+02
619             	3.10507926e+02
620             	3.10507744e+02
621             	3.10507433e+02
