# Region        : cellZone component_2
# Cells         : 130
# Volume        : 2.46786127e-01
# Time          	volAverage(T)
1               	3.00210127e+02
2               	3.00418088e+02
3               	3.00615054e+02
4               	3.00806244e+02
5               	3.00994615e+02
6               	3.01181450e+02
7               	3.01367592e+02
8               	3.01554363e+02
9               	3.01742094e+02
10              	3.01928189e+02
11              	3.02111025e+02
12              	3.02292732e+02
13              	3.02473191e+02
14              	3.02654134e+02
15              	3.02832332e+02
16              	3.03009109e+02
17              	3.03183930e+02
18              	3.03358062e+02
19              	3.03532597e+02
20              	3.03704530e+02
21              	3.03877539e+02
22              	3.04048121e+02
23              	3.04217629e+02
24              	3.04385562e+02
25              	3.04551563e+02
26              	3.04713432e+02
27              	3.04872765e+02
28              	3.05029551e+02
29              	3.05184806e+02
30              	3.05339993e+02
31              	3.05495997e+02
32              	3.05648798e+02
33              	3.05796729e+02
34              	3.05933647e+02
35              	3.06064929e+02
36              	3.06202352e+02
37              	3.06336199e+02
38              	3.06466400e+02
39              	3.06594028e+02
40              	3.06719903e+02
41              	3.06844405e+02
42              	3.06969328e+02
43              	3.07095271e+02
44              	3.07222538e+02
45              	3.07351175e+02
46              	3.07480686e+02
47              	3.07611976e+02
48              	3.07743082e+02
49              	3.07871951e+02
50              	3.07998009e+02
51              	3.08120459e+02
52              	3.08241567e+02
53              	3.08362518e+02
54              	3.08482411e+02
55              	3.08600569e+02
56              	3.08717242e+02
57              	3.08833092e+02
58              	3.08948749e+02
59              	3.09064294e+02
60              	3.09181657e+02
61              	3.09298743e+02
62              	3.09413967e+02
63              	3.09530006e+02
64              	3.09642371e+02
65              	3.09752305e+02
66              	3.09862407e+02
67              	3.09975036e+02
68              	3.10086404e+02
69              	3.10195917e+02
70              	3.10304056e+02
71              	3.10410998e+02
72              	3.10515626e+02
73              	3.10620848e+02
74              	3.10724600e+02
75              	3.10829103e+02
76              	3.10934631e+02
77              	3.11039809e+02
78              	3.11145634e+02
79              	3.11249197e+02
80              	3.11352140e+02
81              	3.11452920e+02
82              	3.11551028e+02
83              	3.11646542e+02
84              	3.11739157e+02
85              	3.11829403e+02
86              	3.11917070e+02
87              	3.12003648e+02
88              	3.12089173e+02
89              	3.12173860e+02
90              	3.12258236e+02
91              	3.12342363e+02
92              	3.12426168e+02
93              	3.12510269e+02
94              	3.12594424e+02
95              	3.12679137e+02
96              	3.12763112e+02
97              	3.12846395e+02
98              	3.12929422e+02
99              	3.13010569e+02
100             	3.13091219e+02
101             	3.13170782e+02
102             	3.13248601e+02
103             	3.13324893e+02
104             	3.13399826e+02
105             	3.13473675e+02
106             	3.13546787e+02
107             	3.13619648e+02
108             	3.13692032e+02
109             	3.13764220e+02
110             	3.13836358e+02
111             	3.13908470e+02
112             	3.13980589e+02
113             	3.14051685e+02
114             	3.14122312e+02
115             	3.14192519e+02
116             	3.14262109e+02
117             	3.14330878e+02
118             	3.14398785e+02
119             	3.14466115e+02
120             	3.14531946e+02
121             	3.14597325e+02
122             	3.14661816e+02
123             	3.14725002e+02
124             	3.14786833e+02
125             	3.14847330e+02
126             	3.14906589e+02
127             	3.14965127e+02
128             	3.15022560e+02
129             	3.15079621e+02
130             	3.15136044e+02
131             	3.15192053e+02
132             	3.15247708e+02
133             	3.15302925e+02
134             	3.15357269e+02
135             	3.15410818e+02
136             	3.15463974e+02
137             	3.15515400e+02
138             	3.15566332e+02
139             	3.15617023e+02
140             	3.15667180e+02
141             	3.15716675e+02
142             	3.15765284e+02
143             	3.15813140e+02
144             	3.15861189e+02
145             	3.15909140e+02
146             	3.15956291e+02
147             	3.16002052e+02
148             	3.16047751e+02
149             	3.16091977e+02
150             	3.16135783e+02
151             	3.16179105e+02
152             	3.16220874e+02
153             	3.16262553e+02
154             	3.16304357e+02
155             	3.16345107e+02
156             	3.16385408e+02
157             	3.16425452e+02
158             	3.16465387e+02
159             	3.16505137e+02
160             	3.16544712e+02
161             	3.16583980e+02
162             	3.16622891e+02
163             	3.16661273e+02
164             	3.16699359e+02
165             	3.16736547e+02
166             	3.16773285e+02
167             	3.16808672e+02
168             	3.16843963e+02
169             	3.16879120e+02
170             	3.16913099e+02
171             	3.16947070e+02
172             	3.16981068e+02
173             	3.17013996e+02
174             	3.17047186e+02
175             	3.17080367e+02
176             	3.17112573e+02
177             	3.17144953e+02
178             	3.17177172e+02
179             	3.17209035e+02
180             	3.17240451e+02
181             	3.17271259e+02
182             	3.17301809e+02
183             	3.17331163e+02
184             	3.17360440e+02
185             	3.17389719e+02
186             	3.17417764e+02
187             	3.17445900e+02
188             	3.17474101e+02
189             	3.17501315e+02
190             	3.17528571e+02
191             	3.17555750e+02
192             	3.17581942e+02
193             	3.17608278e+02
194             	3.17634664e+02
195             	3.17660377e+02
196             	3.17685870e+02
197             	3.17711332e+02
198             	3.17736734e+02
199             	3.17761898e+02
200             	3.17786746e+02
201             	3.17811163e+02
202             	3.17834588e+02
203             	3.17858210e+02
204             	3.17881885e+02
205             	3.17904473e+02
206             	3.17927249e+02
207             	3.17950114e+02
208             	3.17971936e+02
209             	3.17994148e+02
210             	3.18016272e+02
211             	3.18038358e+02
212             	3.18060258e+02
213             	3.18081995e+02
214             	3.18103532e+02
215             	3.18124827e+02
216             	3.18145133e+02
217             	3.18165575e+02
218             	3.18186073e+02
219             	3.18205515e+02
220             	3.18225204e+02
221             	3.18244986e+02
222             	3.18263658e+02
223             	3.18282560e+02
224             	3.18301622e+02
225             	3.18319736e+02
226             	3.18338119e+02
227             	3.18356770e+02
228             	3.18375178e+02
229             	3.18392667e+02
230             	3.18410421e+02
231             	3.18428399e+02
232             	3.18445522e+02
233             	3.18462812e+02
234             	3.18480274e+02
235             	3.18496838e+02
236             	3.18513637e+02
237             	3.18530642e+02
238             	3.18546701e+02
239             	3.18563067e+02
240             	3.18579637e+02
241             	3.18595202e+02
242             	3.18611117e+02
243             	3.18627281e+02
244             	3.18642469e+02
245             	3.18657902e+02
246             	3.18673587e+02
247             	3.18688319e+02
248             	3.18703259e+02
249             	3.18718435e+02
250             	3.18732608e+02
251             	3.18747088e+02
252             	3.18761847e+02
253             	3.18775673e+02
254             	3.18789753e+02
255             	3.18804136e+02
256             	3.18818428e+02
257             	3.18831927e+02
258             	3.18845624e+02
259             	3.18859541e+02
260             	3.18873525e+02
261             	3.18886568e+02
262             	3.18899900e+02
263             	3.18913525e+02
264             	3.18926249e+02
265             	3.18939306e+02
266             	3.18952618e+02
267             	3.18965839e+02
268             	3.18978074e+02
269             	3.18990553e+02
270             	3.19003311e+02
271             	3.19016031e+02
272             	3.19027756e+02
273             	3.19039784e+02
274             	3.19052147e+02
275             	3.19063582e+02
276             	3.19075357e+02
277             	3.19087483e+02
278             	3.19099507e+02
279             	3.19110568e+02
280             	3.19121943e+02
281             	3.19133574e+02
282             	3.19145229e+02
283             	3.19155986e+02
284             	3.19167022e+02
285             	3.19178349e+02
286             	3.19189749e+02
287             	3.19200205e+02
288             	3.19211008e+02
289             	3.19222143e+02
290             	3.19233289e+02
291             	3.19244341e+02
292             	3.19254471e+02
293             	3.19264902e+02
294             	3.19275618e+02
295             	3.19286404e+02
296             	3.19297082e+02
297             	3.19307674e+02
298             	3.19318181e+02
299             	3.19328610e+02
300             	3.19338967e+02
301             	3.19349213e+02
302             	3.19359395e+02
303             	3.19369506e+02
304             	3.19379538e+02
305             	3.19389505e+02
306             	3.19399399e+02
307             	3.19409228e+02
308             	3.19418991e+02
309             	3.19428703e+02
310             	3.19438383e+02
311             	3.19448010e+02
312             	3.19457601e+02
313             	3.19467136e+02
314             	3.19476631e+02
315             	3.19486087e+02
316             	3.19495507e+02
317             	3.19504874e+02
318             	3.19514200e+02
319             	3.19523483e+02
320             	3.19532715e+02
321             	3.19541905e+02
322             	3.19551051e+02
323             	3.19560152e+02
324             	3.19569207e+02
325             	3.19578220e+02
326             	3.19587183e+02
327             	3.19596111e+02
328             	3.19605000e+02
329             	3.19613844e+02
330             	3.19622653e+02
331             	3.19631424e+02
332             	3.19640149e+02
333             	3.19648837e+02
334             	3.19657479e+02
335             	3.19666074e+02
336             	3.19674626e+02
337             	3.19683134e+02
338             	3.19691588e+02
339             	3.19699962e+02
340             	3.19708314e+02
341             	3.19716618e+02
342             	3.19724881e+02
343             	3.19733111e+02
344             	3.19741304e+02
345             	3.19749488e+02
346             	3.19757646e+02
347             	3.19765766e+02
348             	3.19773869e+02
349             	3.19781951e+02
350             	3.19790006e+02
351             	3.19798040e+02
352             	3.19806057e+02
353             	3.19814059e+02
354             	3.19822039e+02
355             	3.19829999e+02
356             	3.19837935e+02
357             	3.19845856e+02
358             	3.19853755e+02
359             	3.19861619e+02
360             	3.19869457e+02
361             	3.19877254e+02
362             	3.19885013e+02
363             	3.19892747e+02
364             	3.19900451e+02
365             	3.19908115e+02
366             	3.19915758e+02
367             	3.19923381e+02
368             	3.19930968e+02
369             	3.19938533e+02
370             	3.19946078e+02
371             	3.19953594e+02
372             	3.19961090e+02
373             	3.19968556e+02
374             	3.19975995e+02
375             	3.19983401e+02
376             	3.19990788e+02
377             	3.19998140e+02
378             	3.20005476e+02
379             	3.20012785e+02
380             	3.20020060e+02
381             	3.20027311e+02
382             	3.20034540e+02
383             	3.20041732e+02
384             	3.20048909e+02
385             	3.20056060e+02
386             	3.20063189e+02
387             	3.20070299e+02
388             	3.20077392e+02
389             	3.20084461e+02
390             	3.20091516e+02
391             	3.20098558e+02
392             	3.20105575e+02
393             	3.20112590e+02
394             	3.20119592e+02
395             	3.20126593e+02
396             	3.20133585e+02
397             	3.20140571e+02
398             	3.20147545e+02
399             	3.20154511e+02
400             	3.20161467e+02
401             	3.20168393e+02
402             	3.20175309e+02
403             	3.20182190e+02
404             	3.20189045e+02
405             	3.20195877e+02
406             	3.20202683e+02
407             	3.20209457e+02
408             	3.20216217e+02
409             	3.20222960e+02
410             	3.20229672e+02
411             	3.20236364e+02
412             	3.20243040e+02
413             	3.20249695e+02
414             	3.20256338e+02
415             	3.20262984e+02
416             	3.20269609e+02
417             	3.20276226e+02
418             	3.20282838e+02
419             	3.20289435e+02
420             	3.20296023e+02
421             	3.20302588e+02
422             	3.20309127e+02
423             	3.20315645e+02
424             	3.20322148e+02
425             	3.20328622e+02
426             	3.20335074e+02
427             	3.20341513e+02
428             	3.20347928e+02
429             	3.20354332e+02
430             	3.20360722e+02
431             	3.20367092e+02
432             	3.20373456e+02
433             	3.20379812e+02
434             	3.20386151e+02
435             	3.20392480e+02
436             	3.20398800e+02
437             	3.20405096e+02
438             	3.20411379e+02
439             	3.20417641e+02
440             	3.20423881e+02
441             	3.20430107e+02
442             	3.20436319e+02
443             	3.20442505e+02
444             	3.20448682e+02
445             	3.20454845e+02
446             	3.20460988e+02
447             	3.20467140e+02
448             	3.20473277e+02
449             	3.20479398e+02
450             	3.20485514e+02
451             	3.20491622e+02
452             	3.20497714e+02
453             	3.20503797e+02
454             	3.20509869e+02
455             	3.20515919e+02
456             	3.20521957e+02
457             	3.20527981e+02
458             	3.20533982e+02
459             	3.20539969e+02
460             	3.20545942e+02
461             	3.20551886e+02
462             	3.20557818e+02
463             	3.20563733e+02
464             	3.20569624e+02
465             	3.20575496e+02
466             	3.20581353e+02
467             	3.20587185e+02
468             	3.20593005e+02
469             	3.20598813e+02
470             	3.20604599e+02
471             	3.20610383e+02
472             	3.20616155e+02
473             	3.20621913e+02
474             	3.20627664e+02
475             	3.20633409e+02
476             	3.20639139e+02
477             	3.20644863e+02
478             	3.20650581e+02
479             	3.20656282e+02
480             	3.20661975e+02
481             	3.20667655e+02
482             	3.20673320e+02
483             	3.20678975e+02
484             	3.20684620e+02
485             	3.20690245e+02
486             	3.20695862e+02
487             	3.20701468e+02
488             	3.20707057e+02
489             	3.20712638e+02
490             	3.20718211e+02
491             	3.20723765e+02
492             	3.20729311e+02
493             	3.20734851e+02
494             	3.20740371e+02
495             	3.20745880e+02
496             	3.20751379e+02
497             	3.20756860e+02
498             	3.20762335e+02
499             	3.20767803e+02
500             	3.20773255e+02
501             	3.20778701e+02
502             	3.20784144e+02
503             	3.20789569e+02
504             	3.20794992e+02
505             	3.20800408e+02
506             	3.20805810e+02
507             	3.20811214e+02
508             	3.20816613e+02
509             	3.20821998e+02
510             	3.20827382e+02
511             	3.20832766e+02
512             	3.20838137e+02
513             	3.20843504e+02
514             	3.20848869e+02
515             	3.20854219e+02
516             	3.20859563e+02
517             	3.20864899e+02
518             	3.20870217e+02
519             	3.20875528e+02
520             	3.20880830e+02
521             	3.20886115e+02
522             	3.20891393e+02
523             	3.20896661e+02
524             	3.20901914e+02
525             	3.20907160e+02
526             	3.20912401e+02
527             	3.20917627e+02
528             	3.20922849e+02
529             	3.20928064e+02
530             	3.20933266e+02
531             	3.20938460e+02
532             	3.20943652e+02
533             	3.20948831e+02
534             	3.20954007e+02
535             	3.20959178e+02
536             	3.20964337e+02
537             	3.20969491e+02
538             	3.20974641e+02
539             	3.20979780e+02
540             	3.20984920e+02
541             	3.20990058e+02
542             	3.20995185e+02
543             	3.21000310e+02
544             	3.21005434e+02
545             	3.21010546e+02
546             	3.21015658e+02
547             	3.21020775e+02
548             	3.21025880e+02
549             	3.21030983e+02
550             	3.21036087e+02
551             	3.21041181e+02
552             	3.21046276e+02
553             	3.21051369e+02
554             	3.21056453e+02
555             	3.21061537e+02
556             	3.21066621e+02
557             	3.21071696e+02
558             	3.21076770e+02
559             	3.21081842e+02
560             	3.21086904e+02
561             	3.21091963e+02
562             	3.21097021e+02
563             	3.21102068e+02
564             	3.21107114e+02
565             	3.21112158e+02
566             	3.21117192e+02
567             	3.21122224e+02
568             	3.21127256e+02
569             	3.21132279e+02
570             	3.21137302e+02
571             	3.21142324e+02
572             	3.21147338e+02
573             	3.21152351e+02
574             	3.21157364e+02
575             	3.21162365e+02
576             	3.21167364e+02
577             	3.21172361e+02
578             	3.21177349e+02
579             	3.21182336e+02
580             	3.21187323e+02
581             	3.21192304e+02
582             	3.21197285e+02
583             	3.21202266e+02
584             	3.21207239e+02
585             	3.21212212e+02
586             	3.21217189e+02
587             	3.21222157e+02
588             	3.21227128e+02
589             	3.21232099e+02
590             	3.21237062e+02
591             	3.21242026e+02
592             	3.21246990e+02
593             	3.21251945e+02
594             	3.21256900e+02
595             	3.21261856e+02
596             	3.21266805e+02
597             	3.21271756e+02
598             	3.21276710e+02
599             	3.21281659e+02
600             	3.21286610e+02
601             	3.21291563e+02
602             	3.21296510e+02
603             	3.21301459e+02
604             	3.21306412e+02
605             	3.21311359e+02
606             	3.21316311e+02
607             	3.21321265e+02
608             	3.21326213e+02
609             	3.21331163e+02
610             	3.21336118e+02
611             	3.21341066e+02
612             	3.21346018e+02
613             	3.21350968e+02
614             	3.21355913e+02
615             	3.21360861e+02
616             	3.21365810e+02
617             	3.21370751e+02
618             	3.21375694e+02
619             	3.21380664e+02
620             	3.21385620e+02
621             	3.21390581e+02
