# Region        : cellZone component_1
# Cells         : 144
# Volume        : 2.90927666e-01
# Time          	volAverage(T)
1               	3.00743938e+02
2               	3.01472063e+02
3               	3.02072394e+02
4               	3.02584109e+02
5               	3.03068106e+02
6               	3.03539852e+02
7               	3.03995559e+02
8               	3.04448544e+02
9               	3.04880595e+02
10              	3.05290723e+02
11              	3.05695924e+02
12              	3.06096260e+02
13              	3.06470181e+02
14              	3.06811138e+02
15              	3.07131348e+02
16              	3.07451233e+02
17              	3.07788692e+02
18              	3.08114759e+02
19              	3.08439366e+02
20              	3.08757311e+02
21              	3.09061916e+02
22              	3.09352433e+02
23              	3.09633527e+02
24              	3.09905704e+02
25              	3.10165343e+02
26              	3.10410624e+02
27              	3.10643448e+02
28              	3.10854371e+02
29              	3.11045466e+02
30              	3.11237543e+02
31              	3.11444628e+02
32              	3.11646161e+02
33              	3.11832950e+02
34              	3.12006490e+02
35              	3.12123312e+02
36              	3.12210131e+02
37              	3.12334461e+02
38              	3.12469224e+02
39              	3.12596199e+02
40              	3.12707066e+02
41              	3.12805198e+02
42              	3.12897532e+02
43              	3.12999755e+02
44              	3.13111801e+02
45              	3.13231504e+02
46              	3.13340290e+02
47              	3.13448775e+02
48              	3.13524552e+02
49              	3.13604639e+02
50              	3.13687895e+02
51              	3.13765535e+02
52              	3.13845311e+02
53              	3.13921077e+02
54              	3.13969497e+02
55              	3.13943333e+02
56              	3.13904774e+02
57              	3.13867927e+02
58              	3.13906209e+02
59              	3.13961111e+02
60              	3.13998730e+02
61              	3.14012507e+02
62              	3.14019481e+02
63              	3.14043593e+02
64              	3.14074789e+02
65              	3.14118001e+02
66              	3.14170985e+02
67              	3.14231505e+02
68              	3.14298299e+02
69              	3.14369418e+02
70              	3.14445709e+02
71              	3.14517335e+02
72              	3.14583672e+02
73              	3.14651543e+02
74              	3.14707742e+02
75              	3.14751678e+02
76              	3.14790863e+02
77              	3.14829696e+02
78              	3.14866532e+02
79              	3.14899383e+02
80              	3.14930471e+02
81              	3.14963985e+02
82              	3.15002171e+02
83              	3.15039568e+02
84              	3.15072796e+02
85              	3.15108902e+02
86              	3.15148209e+02
87              	3.15188261e+02
88              	3.15229412e+02
89              	3.15274205e+02
90              	3.15328536e+02
91              	3.15383553e+02
92              	3.15443856e+02
93              	3.15506243e+02
94              	3.15575066e+02
95              	3.15641672e+02
96              	3.15706465e+02
97              	3.15759088e+02
98              	3.15806478e+02
99              	3.15855653e+02
100             	3.15910067e+02
101             	3.15962339e+02
102             	3.16005729e+02
103             	3.16043538e+02
104             	3.16076341e+02
105             	3.16099003e+02
106             	3.16116320e+02
107             	3.16131725e+02
108             	3.16145040e+02
109             	3.16156564e+02
110             	3.16168640e+02
111             	3.16183449e+02
112             	3.16203543e+02
113             	3.16227464e+02
114             	3.16257446e+02
115             	3.16288699e+02
116             	3.16315692e+02
117             	3.16343538e+02
118             	3.16375644e+02
119             	3.16411814e+02
120             	3.16443330e+02
121             	3.16474850e+02
122             	3.16514265e+02
123             	3.16556932e+02
124             	3.16592607e+02
125             	3.16620651e+02
126             	3.16639464e+02
127             	3.16657150e+02
128             	3.16673871e+02
129             	3.16687267e+02
130             	3.16700393e+02
131             	3.16715991e+02
132             	3.16716184e+02
133             	3.16723442e+02
134             	3.16739747e+02
135             	3.16761236e+02
136             	3.16785616e+02
137             	3.16810555e+02
138             	3.16837629e+02
139             	3.16865042e+02
140             	3.16890673e+02
141             	3.16911370e+02
142             	3.16928909e+02
143             	3.16946560e+02
144             	3.16957691e+02
145             	3.16958479e+02
146             	3.16958649e+02
147             	3.16962738e+02
148             	3.16969045e+02
149             	3.16970471e+02
150             	3.16972173e+02
151             	3.16975642e+02
152             	3.16977099e+02
153             	3.16984915e+02
154             	3.16998313e+02
155             	3.17016963e+02
156             	3.17032909e+02
157             	3.17050676e+02
158             	3.17062572e+02
159             	3.17072941e+02
160             	3.17080589e+02
161             	3.17081111e+02
162             	3.17077884e+02
163             	3.17076282e+02
164             	3.17075618e+02
165             	3.17076746e+02
166             	3.17079220e+02
167             	3.17083504e+02
168             	3.17086898e+02
169             	3.17082023e+02
170             	3.17088546e+02
171             	3.17107705e+02
172             	3.17128959e+02
173             	3.17152547e+02
174             	3.17171900e+02
175             	3.17177952e+02
176             	3.17181759e+02
177             	3.17187521e+02
178             	3.17183553e+02
179             	3.17172419e+02
180             	3.17158098e+02
181             	3.17139999e+02
182             	3.17129071e+02
183             	3.17122974e+02
184             	3.17125848e+02
185             	3.17139622e+02
186             	3.17159710e+02
187             	3.17181832e+02
188             	3.17201789e+02
189             	3.17219435e+02
190             	3.17229519e+02
191             	3.17242326e+02
192             	3.17254823e+02
193             	3.17256662e+02
194             	3.17260198e+02
195             	3.17264868e+02
196             	3.17267238e+02
197             	3.17270393e+02
198             	3.17274200e+02
199             	3.17278121e+02
200             	3.17281253e+02
201             	3.17285607e+02
202             	3.17291968e+02
203             	3.17290896e+02
204             	3.17296861e+02
205             	3.17299572e+02
206             	3.17308968e+02
207             	3.17319588e+02
208             	3.17327358e+02
209             	3.17338827e+02
210             	3.17345626e+02
211             	3.17352006e+02
212             	3.17357843e+02
213             	3.17356754e+02
214             	3.17351446e+02
215             	3.17343169e+02
216             	3.17332280e+02
217             	3.17320917e+02
218             	3.17314642e+02
219             	3.17298746e+02
220             	3.17292218e+02
221             	3.17292066e+02
222             	3.17298466e+02
223             	3.17307234e+02
224             	3.17317046e+02
225             	3.17327225e+02
226             	3.17336118e+02
227             	3.17343925e+02
228             	3.17343216e+02
229             	3.17343354e+02
230             	3.17342490e+02
231             	3.17339781e+02
232             	3.17339665e+02
233             	3.17338062e+02
234             	3.17336635e+02
235             	3.17334849e+02
236             	3.17333271e+02
237             	3.17331860e+02
238             	3.17336011e+02
239             	3.17340322e+02
240             	3.17349479e+02
241             	3.17349936e+02
242             	3.17357475e+02
243             	3.17371070e+02
244             	3.17384087e+02
245             	3.17392487e+02
246             	3.17397731e+02
247             	3.17404270e+02
248             	3.17410248e+02
249             	3.17414640e+02
250             	3.17418222e+02
251             	3.17420467e+02
252             	3.17419425e+02
253             	3.17419890e+02
254             	3.17420297e+02
255             	3.17418794e+02
256             	3.17415014e+02
257             	3.17410445e+02
258             	3.17400031e+02
259             	3.17395423e+02
260             	3.17387070e+02
261             	3.17385218e+02
262             	3.17392112e+02
263             	3.17400542e+02
264             	3.17405982e+02
265             	3.17407452e+02
266             	3.17405506e+02
267             	3.17403161e+02
268             	3.17400650e+02
269             	3.17395657e+02
270             	3.17389222e+02
271             	3.17381876e+02
272             	3.17375648e+02
273             	3.17371100e+02
274             	3.17369422e+02
275             	3.17367736e+02
276             	3.17370524e+02
277             	3.17374961e+02
278             	3.17380399e+02
279             	3.17387117e+02
280             	3.17386943e+02
281             	3.17391367e+02
282             	3.17400042e+02
283             	3.17409403e+02
284             	3.17416137e+02
285             	3.17419632e+02
286             	3.17417192e+02
287             	3.17415905e+02
288             	3.17416367e+02
289             	3.17414977e+02
290             	3.17411731e+02
291             	3.17408682e+02
292             	3.17406841e+02
293             	3.17406327e+02
294             	3.17407366e+02
295             	3.17408691e+02
296             	3.17411851e+02
297             	3.17411738e+02
298             	3.17417239e+02
299             	3.17422513e+02
300             	3.17428528e+02
301             	3.17435610e+02
302             	3.17442361e+02
303             	3.17448360e+02
304             	3.17452839e+02
305             	3.17451002e+02
306             	3.17451477e+02
307             	3.17454216e+02
308             	3.17454948e+02
309             	3.17453733e+02
310             	3.17451713e+02
311             	3.17449749e+02
312             	3.17448042e+02
313             	3.17443350e+02
314             	3.17444255e+02
315             	3.17447495e+02
316             	3.17453155e+02
317             	3.17460199e+02
318             	3.17466434e+02
319             	3.17468272e+02
320             	3.17467307e+02
321             	3.17467021e+02
322             	3.17464751e+02
323             	3.17461868e+02
324             	3.17458641e+02
325             	3.17454513e+02
326             	3.17449615e+02
327             	3.17443721e+02
328             	3.17438830e+02
329             	3.17436290e+02
330             	3.17434875e+02
331             	3.17436823e+02
332             	3.17441489e+02
333             	3.17448271e+02
334             	3.17447287e+02
335             	3.17451277e+02
336             	3.17460239e+02
337             	3.17470455e+02
338             	3.17477996e+02
339             	3.17481497e+02
340             	3.17482911e+02
341             	3.17482039e+02
342             	3.17479764e+02
343             	3.17477479e+02
344             	3.17474786e+02
345             	3.17470897e+02
346             	3.17466326e+02
347             	3.17459404e+02
348             	3.17453201e+02
349             	3.17450236e+02
350             	3.17449489e+02
351             	3.17442623e+02
352             	3.17441228e+02
353             	3.17441549e+02
354             	3.17444703e+02
355             	3.17446887e+02
356             	3.17444287e+02
357             	3.17443722e+02
358             	3.17444320e+02
359             	3.17443885e+02
360             	3.17440614e+02
361             	3.17435966e+02
362             	3.17425756e+02
363             	3.17421036e+02
364             	3.17418664e+02
365             	3.17417472e+02
366             	3.17417867e+02
367             	3.17422784e+02
368             	3.17428603e+02
369             	3.17432522e+02
370             	3.17434204e+02
371             	3.17435026e+02
372             	3.17433387e+02
373             	3.17430397e+02
374             	3.17427121e+02
375             	3.17422414e+02
376             	3.17415922e+02
377             	3.17411401e+02
378             	3.17409536e+02
379             	3.17408231e+02
380             	3.17408556e+02
381             	3.17411264e+02
382             	3.17415140e+02
383             	3.17419664e+02
384             	3.17425852e+02
385             	3.17430787e+02
386             	3.17436200e+02
387             	3.17441993e+02
388             	3.17448123e+02
389             	3.17454637e+02
390             	3.17459513e+02
391             	3.17462647e+02
392             	3.17465150e+02
393             	3.17466847e+02
394             	3.17465926e+02
395             	3.17465079e+02
396             	3.17465090e+02
397             	3.17463879e+02
398             	3.17462047e+02
399             	3.17460147e+02
400             	3.17458045e+02
401             	3.17453263e+02
402             	3.17448838e+02
403             	3.17445709e+02
404             	3.17441690e+02
405             	3.17434724e+02
406             	3.17426810e+02
407             	3.17417814e+02
408             	3.17412044e+02
409             	3.17408999e+02
410             	3.17408017e+02
411             	3.17408704e+02
412             	3.17409854e+02
413             	3.17411599e+02
414             	3.17414879e+02
415             	3.17420490e+02
416             	3.17427314e+02
417             	3.17433862e+02
418             	3.17438274e+02
419             	3.17440661e+02
420             	3.17443119e+02
421             	3.17446694e+02
422             	3.17450212e+02
423             	3.17452624e+02
424             	3.17453833e+02
425             	3.17454281e+02
426             	3.17454078e+02
427             	3.17452039e+02
428             	3.17446183e+02
429             	3.17441526e+02
430             	3.17435492e+02
431             	3.17430253e+02
432             	3.17425580e+02
433             	3.17421360e+02
434             	3.17418081e+02
435             	3.17417376e+02
436             	3.17413908e+02
437             	3.17411456e+02
438             	3.17411596e+02
439             	3.17413361e+02
440             	3.17415088e+02
441             	3.17416574e+02
442             	3.17418169e+02
443             	3.17419064e+02
444             	3.17419690e+02
445             	3.17420036e+02
446             	3.17420759e+02
447             	3.17421502e+02
448             	3.17421003e+02
449             	3.17421370e+02
450             	3.17422412e+02
451             	3.17423328e+02
452             	3.17422048e+02
453             	3.17419922e+02
454             	3.17419062e+02
455             	3.17417567e+02
456             	3.17415185e+02
457             	3.17412923e+02
458             	3.17411354e+02
459             	3.17409258e+02
460             	3.17406360e+02
461             	3.17404728e+02
462             	3.17404621e+02
463             	3.17404846e+02
464             	3.17404429e+02
465             	3.17405331e+02
466             	3.17406737e+02
467             	3.17407795e+02
468             	3.17408384e+02
469             	3.17408998e+02
470             	3.17411178e+02
471             	3.17413161e+02
472             	3.17415231e+02
473             	3.17417207e+02
474             	3.17421086e+02
475             	3.17425512e+02
476             	3.17428825e+02
477             	3.17430678e+02
478             	3.17433093e+02
479             	3.17435380e+02
480             	3.17436689e+02
481             	3.17437993e+02
482             	3.17438498e+02
483             	3.17433530e+02
484             	3.17432577e+02
485             	3.17434571e+02
486             	3.17437620e+02
487             	3.17440083e+02
488             	3.17440964e+02
489             	3.17441007e+02
490             	3.17440913e+02
491             	3.17441487e+02
492             	3.17442641e+02
493             	3.17442822e+02
494             	3.17442367e+02
495             	3.17441164e+02
496             	3.17439773e+02
497             	3.17438758e+02
498             	3.17438755e+02
499             	3.17440844e+02
500             	3.17444499e+02
501             	3.17448894e+02
502             	3.17450156e+02
503             	3.17451770e+02
504             	3.17455826e+02
505             	3.17459101e+02
506             	3.17461543e+02
507             	3.17463089e+02
508             	3.17461520e+02
509             	3.17460731e+02
510             	3.17458881e+02
511             	3.17455490e+02
512             	3.17451389e+02
513             	3.17447559e+02
514             	3.17444152e+02
515             	3.17442407e+02
516             	3.17441218e+02
517             	3.17440680e+02
518             	3.17441109e+02
519             	3.17443018e+02
520             	3.17444900e+02
521             	3.17445232e+02
522             	3.17445502e+02
523             	3.17445722e+02
524             	3.17445089e+02
525             	3.17443608e+02
526             	3.17442449e+02
527             	3.17441398e+02
528             	3.17439891e+02
529             	3.17435785e+02
530             	3.17431766e+02
531             	3.17428928e+02
532             	3.17426567e+02
533             	3.17424772e+02
534             	3.17423433e+02
535             	3.17423581e+02
536             	3.17422482e+02
537             	3.17422460e+02
538             	3.17423643e+02
539             	3.17425370e+02
540             	3.17428402e+02
541             	3.17431638e+02
542             	3.17433881e+02
543             	3.17434871e+02
544             	3.17435055e+02
545             	3.17435040e+02
546             	3.17433819e+02
547             	3.17431595e+02
548             	3.17429471e+02
549             	3.17425880e+02
550             	3.17422845e+02
551             	3.17420177e+02
552             	3.17418541e+02
553             	3.17416698e+02
554             	3.17416037e+02
555             	3.17415005e+02
556             	3.17415118e+02
557             	3.17416045e+02
558             	3.17419180e+02
559             	3.17420776e+02
560             	3.17422499e+02
561             	3.17425780e+02
562             	3.17429567e+02
563             	3.17432839e+02
564             	3.17436461e+02
565             	3.17440551e+02
566             	3.17444504e+02
567             	3.17447577e+02
568             	3.17449978e+02
569             	3.17451912e+02
570             	3.17451488e+02
571             	3.17451635e+02
572             	3.17452272e+02
573             	3.17452381e+02
574             	3.17451442e+02
575             	3.17449529e+02
576             	3.17447100e+02
577             	3.17444638e+02
578             	3.17443093e+02
579             	3.17441945e+02
580             	3.17441205e+02
581             	3.17440152e+02
582             	3.17439435e+02
583             	3.17439358e+02
584             	3.17439468e+02
585             	3.17438958e+02
586             	3.17437999e+02
587             	3.17437947e+02
588             	3.17436627e+02
589             	3.17435334e+02
590             	3.17434563e+02
591             	3.17434444e+02
592             	3.17433755e+02
593             	3.17432909e+02
594             	3.17432684e+02
595             	3.17432564e+02
596             	3.17432886e+02
597             	3.17433174e+02
598             	3.17433546e+02
599             	3.17434932e+02
600             	3.17436107e+02
601             	3.17436614e+02
602             	3.17435775e+02
603             	3.17434649e+02
604             	3.17432338e+02
605             	3.17429265e+02
606             	3.17426431e+02
607             	3.17424565e+02
608             	3.17423839e+02
609             	3.17423876e+02
610             	3.17423893e+02
611             	3.17424636e+02
612             	3.17425473e+02
613             	3.17427135e+02
614             	3.17428626e+02
615             	3.17430033e+02
616             	3.17431095e+02
617             	3.17430910e+02
618             	3.17431438e+02
619             	3.17432917e+02
620             	3.17433213e+02
621             	3.17432931e+02
