# Region        : cellZone component_1
# Cells         : 292
# Volume        : 6.07033149e-01
# Time          	volAverage(T)
1               	3.00093677e+02
2               	3.00186756e+02
3               	3.00275954e+02
4               	3.00362363e+02
5               	3.00447232e+02
6               	3.00530718e+02
7               	3.00612857e+02
8               	3.00694290e+02
9               	3.00774975e+02
10              	3.00854546e+02
11              	3.00933539e+02
12              	3.01011410e+02
13              	3.01088353e+02
14              	3.01164351e+02
15              	3.01239624e+02
16              	3.01313446e+02
17              	3.01385777e+02
18              	3.01457511e+02
19              	3.01528099e+02
20              	3.01597430e+02
21              	3.01664029e+02
22              	3.01729512e+02
23              	3.01796122e+02
24              	3.01863244e+02
25              	3.01930209e+02
26              	3.01996248e+02
27              	3.02062380e+02
28              	3.02126352e+02
29              	3.02191475e+02
30              	3.02256280e+02
31              	3.02320630e+02
32              	3.02384378e+02
33              	3.02446901e+02
34              	3.02508249e+02
35              	3.02568486e+02
36              	3.02629103e+02
37              	3.02689458e+02
38              	3.02749036e+02
39              	3.02808688e+02
40              	3.02868751e+02
41              	3.02928311e+02
42              	3.02988680e+02
43              	3.03048443e+02
44              	3.03110119e+02
45              	3.03167605e+02
46              	3.03223501e+02
47              	3.03278448e+02
48              	3.03330474e+02
49              	3.03381704e+02
50              	3.03430739e+02
51              	3.03479288e+02
52              	3.03526250e+02
53              	3.03572751e+02
54              	3.03619811e+02
55              	3.03665461e+02
56              	3.03712104e+02
57              	3.03756382e+02
58              	3.03801211e+02
59              	3.03845872e+02
60              	3.03890238e+02
61              	3.03933190e+02
62              	3.03976021e+02
63              	3.04019173e+02
64              	3.04061855e+02
65              	3.04104881e+02
66              	3.04148215e+02
67              	3.04190012e+02
68              	3.04231841e+02
69              	3.04273229e+02
70              	3.04313938e+02
71              	3.04354167e+02
72              	3.04393277e+02
73              	3.04432673e+02
74              	3.04471169e+02
75              	3.04509760e+02
76              	3.04548425e+02
77              	3.04587341e+02
78              	3.04625811e+02
79              	3.04663428e+02
80              	3.04700466e+02
81              	3.04737874e+02
82              	3.04774802e+02
83              	3.04811149e+02
84              	3.04846931e+02
85              	3.04882228e+02
86              	3.04917085e+02
87              	3.04950991e+02
88              	3.04985032e+02
89              	3.05018618e+02
90              	3.05051911e+02
91              	3.05085378e+02
92              	3.05117965e+02
93              	3.05149644e+02
94              	3.05181608e+02
95              	3.05213490e+02
96              	3.05245069e+02
97              	3.05276883e+02
98              	3.05308734e+02
99              	3.05340666e+02
100             	3.05372334e+02
101             	3.05403740e+02
102             	3.05434214e+02
103             	3.05464882e+02
104             	3.05494911e+02
105             	3.05524776e+02
106             	3.05554595e+02
107             	3.05583923e+02
108             	3.05612638e+02
109             	3.05641090e+02
110             	3.05669155e+02
111             	3.05696678e+02
112             	3.05724115e+02
113             	3.05750850e+02
114             	3.05777107e+02
115             	3.05802954e+02
116             	3.05828604e+02
117             	3.05854188e+02
118             	3.05880491e+02
119             	3.05906309e+02
120             	3.05931871e+02
121             	3.05958716e+02
122             	3.05984352e+02
123             	3.06009543e+02
124             	3.06034351e+02
125             	3.06058592e+02
126             	3.06082164e+02
127             	3.06105568e+02
128             	3.06128062e+02
129             	3.06150446e+02
130             	3.06172226e+02
131             	3.06193531e+02
132             	3.06214697e+02
133             	3.06235510e+02
134             	3.06256087e+02
135             	3.06276404e+02
136             	3.06296255e+02
137             	3.06316299e+02
138             	3.06336253e+02
139             	3.06356149e+02
140             	3.06376105e+02
141             	3.06396017e+02
142             	3.06416345e+02
143             	3.06436976e+02
144             	3.06456926e+02
145             	3.06476459e+02
146             	3.06496458e+02
147             	3.06515984e+02
148             	3.06535050e+02
149             	3.06553728e+02
150             	3.06571828e+02
151             	3.06589458e+02
152             	3.06606724e+02
153             	3.06623434e+02
154             	3.06640086e+02
155             	3.06656548e+02
156             	3.06672586e+02
157             	3.06688504e+02
158             	3.06704456e+02
159             	3.06720430e+02
160             	3.06736698e+02
161             	3.06753155e+02
162             	3.06770236e+02
163             	3.06786674e+02
164             	3.06802816e+02
165             	3.06818732e+02
166             	3.06834465e+02
167             	3.06850040e+02
168             	3.06864779e+02
169             	3.06879177e+02
170             	3.06893245e+02
171             	3.06906852e+02
172             	3.06920301e+02
173             	3.06933285e+02
174             	3.06946150e+02
175             	3.06958919e+02
176             	3.06971648e+02
177             	3.06984317e+02
178             	3.06996965e+02
179             	3.07009663e+02
180             	3.07022315e+02
181             	3.07035020e+02
182             	3.07047807e+02
183             	3.07060978e+02
184             	3.07073877e+02
185             	3.07086857e+02
186             	3.07099843e+02
187             	3.07112871e+02
188             	3.07125839e+02
189             	3.07138230e+02
190             	3.07150646e+02
191             	3.07162935e+02
192             	3.07174780e+02
193             	3.07186303e+02
194             	3.07197572e+02
195             	3.07208431e+02
196             	3.07218927e+02
197             	3.07229092e+02
198             	3.07239048e+02
199             	3.07248879e+02
200             	3.07258571e+02
201             	3.07268144e+02
202             	3.07277770e+02
203             	3.07287445e+02
204             	3.07297167e+02
205             	3.07307019e+02
206             	3.07317007e+02
207             	3.07327148e+02
208             	3.07337401e+02
209             	3.07347300e+02
210             	3.07357315e+02
211             	3.07367234e+02
212             	3.07376928e+02
213             	3.07386531e+02
214             	3.07395746e+02
215             	3.07404678e+02
216             	3.07413357e+02
217             	3.07421810e+02
218             	3.07430039e+02
219             	3.07438026e+02
220             	3.07445889e+02
221             	3.07453682e+02
222             	3.07461416e+02
223             	3.07469197e+02
224             	3.07476817e+02
225             	3.07484407e+02
226             	3.07491876e+02
227             	3.07499511e+02
228             	3.07507164e+02
229             	3.07514881e+02
230             	3.07522901e+02
231             	3.07530784e+02
232             	3.07538787e+02
233             	3.07546889e+02
234             	3.07554990e+02
235             	3.07563057e+02
236             	3.07571072e+02
237             	3.07578979e+02
238             	3.07586719e+02
239             	3.07594234e+02
240             	3.07601520e+02
241             	3.07608677e+02
242             	3.07615663e+02
243             	3.07622440e+02
244             	3.07628993e+02
245             	3.07635509e+02
246             	3.07641920e+02
247             	3.07648328e+02
248             	3.07654699e+02
249             	3.07661105e+02
250             	3.07667445e+02
251             	3.07673905e+02
252             	3.07680383e+02
253             	3.07686918e+02
254             	3.07693272e+02
255             	3.07699698e+02
256             	3.07706118e+02
257             	3.07712430e+02
258             	3.07718548e+02
259             	3.07724460e+02
260             	3.07730206e+02
261             	3.07735775e+02
262             	3.07741139e+02
263             	3.07746315e+02
264             	3.07751319e+02
265             	3.07756237e+02
266             	3.07761015e+02
267             	3.07765879e+02
268             	3.07770824e+02
269             	3.07775836e+02
270             	3.07780916e+02
271             	3.07786051e+02
272             	3.07791367e+02
273             	3.07796777e+02
274             	3.07802309e+02
275             	3.07807919e+02
276             	3.07813647e+02
277             	3.07819376e+02
278             	3.07825174e+02
279             	3.07830952e+02
280             	3.07836684e+02
281             	3.07842354e+02
282             	3.07847938e+02
283             	3.07853390e+02
284             	3.07858565e+02
285             	3.07863674e+02
286             	3.07868647e+02
287             	3.07873424e+02
288             	3.07877987e+02
289             	3.07882353e+02
290             	3.07886576e+02
291             	3.07890683e+02
292             	3.07894715e+02
293             	3.07898656e+02
294             	3.07902632e+02
295             	3.07906649e+02
296             	3.07910752e+02
297             	3.07914863e+02
298             	3.07919077e+02
299             	3.07923381e+02
300             	3.07927794e+02
301             	3.07932279e+02
302             	3.07936815e+02
303             	3.07941393e+02
304             	3.07945986e+02
305             	3.07950572e+02
306             	3.07955093e+02
307             	3.07959556e+02
308             	3.07963933e+02
309             	3.07968233e+02
310             	3.07972375e+02
311             	3.07976367e+02
312             	3.07980203e+02
313             	3.07983876e+02
314             	3.07987358e+02
315             	3.07990634e+02
316             	3.07993738e+02
317             	3.07996664e+02
318             	3.07999419e+02
319             	3.08002031e+02
320             	3.08004544e+02
321             	3.08006999e+02
322             	3.08009434e+02
323             	3.08011898e+02
324             	3.08014440e+02
325             	3.08017081e+02
326             	3.08019812e+02
327             	3.08022641e+02
328             	3.08025573e+02
329             	3.08028604e+02
330             	3.08031731e+02
331             	3.08034951e+02
332             	3.08038222e+02
333             	3.08041482e+02
334             	3.08044766e+02
335             	3.08048068e+02
336             	3.08051349e+02
337             	3.08054583e+02
338             	3.08057770e+02
339             	3.08060912e+02
340             	3.08064014e+02
341             	3.08067060e+02
342             	3.08070054e+02
343             	3.08073014e+02
344             	3.08075943e+02
345             	3.08078835e+02
346             	3.08081678e+02
347             	3.08084458e+02
348             	3.08087131e+02
349             	3.08089710e+02
350             	3.08092171e+02
351             	3.08094596e+02
352             	3.08096932e+02
353             	3.08099175e+02
354             	3.08101354e+02
355             	3.08103497e+02
356             	3.08105619e+02
357             	3.08107722e+02
358             	3.08109850e+02
359             	3.08112044e+02
360             	3.08114255e+02
361             	3.08116582e+02
362             	3.08119008e+02
363             	3.08121527e+02
364             	3.08124111e+02
365             	3.08126735e+02
366             	3.08129398e+02
367             	3.08132134e+02
368             	3.08134890e+02
369             	3.08137653e+02
370             	3.08140418e+02
371             	3.08143157e+02
372             	3.08145845e+02
373             	3.08148466e+02
374             	3.08151010e+02
375             	3.08153475e+02
376             	3.08155856e+02
377             	3.08158156e+02
378             	3.08160372e+02
379             	3.08162506e+02
380             	3.08164564e+02
381             	3.08166561e+02
382             	3.08168512e+02
383             	3.08170427e+02
384             	3.08172309e+02
385             	3.08174168e+02
386             	3.08176012e+02
387             	3.08177840e+02
388             	3.08179660e+02
389             	3.08181478e+02
390             	3.08183303e+02
391             	3.08185138e+02
392             	3.08186985e+02
393             	3.08188843e+02
394             	3.08190707e+02
395             	3.08192573e+02
396             	3.08194440e+02
397             	3.08196322e+02
398             	3.08198218e+02
399             	3.08200123e+02
400             	3.08202034e+02
401             	3.08203933e+02
402             	3.08205811e+02
403             	3.08207680e+02
404             	3.08209531e+02
405             	3.08211345e+02
406             	3.08213071e+02
407             	3.08214773e+02
408             	3.08216435e+02
409             	3.08218030e+02
410             	3.08219563e+02
411             	3.08221035e+02
412             	3.08222446e+02
413             	3.08223818e+02
414             	3.08225180e+02
415             	3.08226548e+02
416             	3.08227877e+02
417             	3.08229241e+02
418             	3.08230708e+02
419             	3.08232230e+02
420             	3.08233813e+02
421             	3.08235451e+02
422             	3.08237123e+02
423             	3.08238877e+02
424             	3.08240657e+02
425             	3.08242503e+02
426             	3.08244372e+02
427             	3.08246289e+02
428             	3.08248202e+02
429             	3.08251430e+02
430             	3.08255401e+02
431             	3.08259733e+02
432             	3.08263965e+02
433             	3.08267981e+02
434             	3.08271575e+02
435             	3.08274660e+02
436             	3.08277060e+02
437             	3.08279502e+02
438             	3.08281983e+02
439             	3.08284375e+02
440             	3.08286620e+02
441             	3.08288788e+02
442             	3.08290840e+02
443             	3.08292786e+02
444             	3.08294636e+02
445             	3.08296414e+02
446             	3.08298145e+02
447             	3.08299871e+02
448             	3.08301604e+02
449             	3.08303413e+02
450             	3.08305315e+02
451             	3.08307333e+02
452             	3.08309483e+02
453             	3.08311750e+02
454             	3.08314168e+02
455             	3.08316675e+02
456             	3.08319280e+02
457             	3.08322105e+02
458             	3.08325023e+02
459             	3.08328039e+02
460             	3.08331111e+02
461             	3.08334230e+02
462             	3.08337349e+02
463             	3.08340426e+02
464             	3.08343437e+02
465             	3.08346363e+02
466             	3.08349105e+02
467             	3.08351774e+02
468             	3.08354301e+02
469             	3.08356715e+02
470             	3.08359025e+02
471             	3.08361238e+02
472             	3.08363343e+02
473             	3.08365370e+02
474             	3.08367331e+02
475             	3.08369233e+02
476             	3.08371125e+02
477             	3.08373034e+02
478             	3.08374985e+02
479             	3.08376976e+02
480             	3.08378995e+02
481             	3.08381059e+02
482             	3.08383184e+02
483             	3.08385349e+02
484             	3.08387527e+02
485             	3.08389695e+02
486             	3.08391715e+02
487             	3.08393744e+02
488             	3.08395725e+02
489             	3.08397617e+02
490             	3.08399400e+02
491             	3.08401080e+02
492             	3.08402640e+02
493             	3.08404119e+02
494             	3.08405532e+02
495             	3.08406897e+02
496             	3.08408221e+02
497             	3.08409542e+02
498             	3.08410876e+02
499             	3.08412246e+02
500             	3.08413661e+02
501             	3.08415128e+02
502             	3.08416649e+02
503             	3.08418214e+02
504             	3.08419845e+02
505             	3.08421507e+02
506             	3.08423123e+02
507             	3.08424780e+02
508             	3.08426430e+02
509             	3.08428043e+02
510             	3.08429628e+02
511             	3.08431172e+02
512             	3.08432674e+02
513             	3.08434144e+02
514             	3.08435578e+02
515             	3.08436981e+02
516             	3.08438364e+02
517             	3.08439737e+02
518             	3.08441116e+02
519             	3.08442495e+02
520             	3.08442528e+02
521             	3.08441531e+02
522             	3.08440778e+02
523             	3.08440282e+02
524             	3.08439950e+02
525             	3.08439719e+02
526             	3.08439555e+02
527             	3.08439438e+02
528             	3.08439355e+02
529             	3.08439283e+02
530             	3.08439211e+02
531             	3.08439107e+02
532             	3.08438942e+02
533             	3.08438762e+02
534             	3.08438559e+02
535             	3.08438317e+02
536             	3.08438034e+02
537             	3.08437707e+02
538             	3.08437326e+02
539             	3.08436912e+02
540             	3.08436482e+02
541             	3.08436061e+02
542             	3.08435667e+02
543             	3.08435322e+02
544             	3.08435035e+02
545             	3.08434816e+02
546             	3.08434681e+02
547             	3.08434635e+02
548             	3.08434678e+02
549             	3.08434798e+02
550             	3.08435002e+02
551             	3.08435289e+02
552             	3.08435642e+02
553             	3.08436040e+02
554             	3.08436466e+02
555             	3.08436884e+02
556             	3.08437305e+02
557             	3.08437609e+02
558             	3.08437898e+02
559             	3.08438137e+02
560             	3.08438307e+02
561             	3.08438383e+02
562             	3.08438354e+02
563             	3.08438218e+02
564             	3.08437981e+02
565             	3.08437652e+02
566             	3.08437246e+02
567             	3.08436805e+02
568             	3.08436334e+02
569             	3.08435884e+02
570             	3.08435464e+02
571             	3.08435103e+02
572             	3.08434795e+02
573             	3.08434553e+02
574             	3.08434374e+02
575             	3.08434265e+02
576             	3.08434248e+02
577             	3.08434291e+02
578             	3.08434370e+02
579             	3.08434455e+02
580             	3.08434562e+02
581             	3.08434705e+02
582             	3.08434854e+02
583             	3.08434988e+02
584             	3.08435097e+02
585             	3.08435178e+02
586             	3.08435227e+02
587             	3.08435243e+02
588             	3.08435199e+02
589             	3.08435131e+02
590             	3.08435021e+02
591             	3.08434895e+02
592             	3.08434769e+02
593             	3.08434649e+02
594             	3.08434522e+02
595             	3.08434395e+02
596             	3.08434281e+02
597             	3.08434197e+02
598             	3.08434151e+02
599             	3.08434142e+02
600             	3.08434180e+02
601             	3.08434275e+02
602             	3.08434406e+02
603             	3.08434587e+02
604             	3.08434834e+02
605             	3.08435140e+02
606             	3.08435484e+02
607             	3.08435860e+02
608             	3.08436254e+02
609             	3.08436657e+02
610             	3.08437054e+02
611             	3.08437431e+02
612             	3.08437788e+02
613             	3.08438107e+02
614             	3.08438378e+02
615             	3.08438601e+02
616             	3.08438753e+02
617             	3.08438823e+02
618             	3.08438853e+02
619             	3.08438756e+02
620             	3.08438615e+02
621             	3.08438412e+02
