# Region        : cellZone component_0
# Cells         : 483
# Volume        : 1.01563090e+00
# Time          	volAverage(T)
1               	3.00114658e+02
2               	3.00228411e+02
3               	3.00337044e+02
4               	3.00442143e+02
5               	3.00544987e+02
6               	3.00646177e+02
7               	3.00745954e+02
8               	3.00844655e+02
9               	3.00942542e+02
10              	3.01039667e+02
11              	3.01135751e+02
12              	3.01231125e+02
13              	3.01325656e+02
14              	3.01419912e+02
15              	3.01513385e+02
16              	3.01606160e+02
17              	3.01697068e+02
18              	3.01788779e+02
19              	3.01879380e+02
20              	3.01968471e+02
21              	3.02056236e+02
22              	3.02142328e+02
23              	3.02229457e+02
24              	3.02314215e+02
25              	3.02397475e+02
26              	3.02479184e+02
27              	3.02559316e+02
28              	3.02637323e+02
29              	3.02715116e+02
30              	3.02791543e+02
31              	3.02867424e+02
32              	3.02941236e+02
33              	3.03015754e+02
34              	3.03087669e+02
35              	3.03158776e+02
36              	3.03229193e+02
37              	3.03299015e+02
38              	3.03365793e+02
39              	3.03433885e+02
40              	3.03500011e+02
41              	3.03566958e+02
42              	3.03632185e+02
43              	3.03697399e+02
44              	3.03760068e+02
45              	3.03819702e+02
46              	3.03876104e+02
47              	3.03933442e+02
48              	3.03991657e+02
49              	3.04049572e+02
50              	3.04106095e+02
51              	3.04162378e+02
52              	3.04217581e+02
53              	3.04273397e+02
54              	3.04326740e+02
55              	3.04380791e+02
56              	3.04434836e+02
57              	3.04487921e+02
58              	3.04537661e+02
59              	3.04583827e+02
60              	3.04628451e+02
61              	3.04671307e+02
62              	3.04715058e+02
63              	3.04758486e+02
64              	3.04800907e+02
65              	3.04843614e+02
66              	3.04885612e+02
67              	3.04928888e+02
68              	3.04971916e+02
69              	3.05015831e+02
70              	3.05058997e+02
71              	3.05101633e+02
72              	3.05143997e+02
73              	3.05188277e+02
74              	3.05232042e+02
75              	3.05274053e+02
76              	3.05315598e+02
77              	3.05355692e+02
78              	3.05394812e+02
79              	3.05433767e+02
80              	3.05472737e+02
81              	3.05511228e+02
82              	3.05549419e+02
83              	3.05587300e+02
84              	3.05624246e+02
85              	3.05660224e+02
86              	3.05695954e+02
87              	3.05730709e+02
88              	3.05764902e+02
89              	3.05798913e+02
90              	3.05832971e+02
91              	3.05867133e+02
92              	3.05900115e+02
93              	3.05933235e+02
94              	3.05966673e+02
95              	3.06000179e+02
96              	3.06033154e+02
97              	3.06066627e+02
98              	3.06099675e+02
99              	3.06132851e+02
100             	3.06164460e+02
101             	3.06196329e+02
102             	3.06227322e+02
103             	3.06257752e+02
104             	3.06287905e+02
105             	3.06317044e+02
106             	3.06345859e+02
107             	3.06374557e+02
108             	3.06403032e+02
109             	3.06431247e+02
110             	3.06459040e+02
111             	3.06486383e+02
112             	3.06513387e+02
113             	3.06540054e+02
114             	3.06566629e+02
115             	3.06592332e+02
116             	3.06618463e+02
117             	3.06644554e+02
118             	3.06670390e+02
119             	3.06695848e+02
120             	3.06720944e+02
121             	3.06744983e+02
122             	3.06769173e+02
123             	3.06793231e+02
124             	3.06817085e+02
125             	3.06840179e+02
126             	3.06863482e+02
127             	3.06886447e+02
128             	3.06909272e+02
129             	3.06931695e+02
130             	3.06953625e+02
131             	3.06975765e+02
132             	3.06997970e+02
133             	3.07020080e+02
134             	3.07042078e+02
135             	3.07063204e+02
136             	3.07084966e+02
137             	3.07106580e+02
138             	3.07127456e+02
139             	3.07147732e+02
140             	3.07167195e+02
141             	3.07186127e+02
142             	3.07204712e+02
143             	3.07223076e+02
144             	3.07241180e+02
145             	3.07259248e+02
146             	3.07276989e+02
147             	3.07294728e+02
148             	3.07312421e+02
149             	3.07330250e+02
150             	3.07348053e+02
151             	3.07365923e+02
152             	3.07383855e+02
153             	3.07401484e+02
154             	3.07418695e+02
155             	3.07435386e+02
156             	3.07452015e+02
157             	3.07468458e+02
158             	3.07484676e+02
159             	3.07500662e+02
160             	3.07516309e+02
161             	3.07531854e+02
162             	3.07547012e+02
163             	3.07562086e+02
164             	3.07576733e+02
165             	3.07591172e+02
166             	3.07605532e+02
167             	3.07619712e+02
168             	3.07633792e+02
169             	3.07647577e+02
170             	3.07661193e+02
171             	3.07674902e+02
172             	3.07688481e+02
173             	3.07702075e+02
174             	3.07715630e+02
175             	3.07729125e+02
176             	3.07742493e+02
177             	3.07755618e+02
178             	3.07768756e+02
179             	3.07781752e+02
180             	3.07794592e+02
181             	3.07807287e+02
182             	3.07819735e+02
183             	3.07832193e+02
184             	3.07844622e+02
185             	3.07856922e+02
186             	3.07869026e+02
187             	3.07880708e+02
188             	3.07892243e+02
189             	3.07903491e+02
190             	3.07914576e+02
191             	3.07925623e+02
192             	3.07936532e+02
193             	3.07947382e+02
194             	3.07958012e+02
195             	3.07968666e+02
196             	3.07979208e+02
197             	3.07989658e+02
198             	3.08000074e+02
199             	3.08010340e+02
200             	3.08020544e+02
201             	3.08030602e+02
202             	3.08040411e+02
203             	3.08049989e+02
204             	3.08059395e+02
205             	3.08068771e+02
206             	3.08078151e+02
207             	3.08087547e+02
208             	3.08096841e+02
209             	3.08106190e+02
210             	3.08115504e+02
211             	3.08124768e+02
212             	3.08133908e+02
213             	3.08142879e+02
214             	3.08151660e+02
215             	3.08160310e+02
216             	3.08168731e+02
217             	3.08177048e+02
218             	3.08185240e+02
219             	3.08193338e+02
220             	3.08201329e+02
221             	3.08209241e+02
222             	3.08217074e+02
223             	3.08224771e+02
224             	3.08232291e+02
225             	3.08239721e+02
226             	3.08247019e+02
227             	3.08254197e+02
228             	3.08261246e+02
229             	3.08268170e+02
230             	3.08275014e+02
231             	3.08281834e+02
232             	3.08288580e+02
233             	3.08295325e+02
234             	3.08302019e+02
235             	3.08308674e+02
236             	3.08315284e+02
237             	3.08321840e+02
238             	3.08328334e+02
239             	3.08334748e+02
240             	3.08341099e+02
241             	3.08347377e+02
242             	3.08353589e+02
243             	3.08359724e+02
244             	3.08365790e+02
245             	3.08371753e+02
246             	3.08377656e+02
247             	3.08383459e+02
248             	3.08389087e+02
249             	3.08394688e+02
250             	3.08400261e+02
251             	3.08405788e+02
252             	3.08411268e+02
253             	3.08416722e+02
254             	3.08422154e+02
255             	3.08427584e+02
256             	3.08433082e+02
257             	3.08438509e+02
258             	3.08443870e+02
259             	3.08449167e+02
260             	3.08454387e+02
261             	3.08459504e+02
262             	3.08464503e+02
263             	3.08469315e+02
264             	3.08474099e+02
265             	3.08478835e+02
266             	3.08483508e+02
267             	3.08488148e+02
268             	3.08492814e+02
269             	3.08497385e+02
270             	3.08501930e+02
271             	3.08506458e+02
272             	3.08510959e+02
273             	3.08515396e+02
274             	3.08519743e+02
275             	3.08524056e+02
276             	3.08528299e+02
277             	3.08532471e+02
278             	3.08536601e+02
279             	3.08540729e+02
280             	3.08544878e+02
281             	3.08548994e+02
282             	3.08553127e+02
283             	3.08557227e+02
284             	3.08561320e+02
285             	3.08565366e+02
286             	3.08569335e+02
287             	3.08573153e+02
288             	3.08576944e+02
289             	3.08580668e+02
290             	3.08584343e+02
291             	3.08587977e+02
292             	3.08591591e+02
293             	3.08595225e+02
294             	3.08598901e+02
295             	3.08602554e+02
296             	3.08606183e+02
297             	3.08609759e+02
298             	3.08613293e+02
299             	3.08616739e+02
300             	3.08620064e+02
301             	3.08623330e+02
302             	3.08626577e+02
303             	3.08629746e+02
304             	3.08632894e+02
305             	3.08636015e+02
306             	3.08639171e+02
307             	3.08642328e+02
308             	3.08645498e+02
309             	3.08648615e+02
310             	3.08651669e+02
311             	3.08654690e+02
312             	3.08657624e+02
313             	3.08660353e+02
314             	3.08663098e+02
315             	3.08665885e+02
316             	3.08668604e+02
317             	3.08671316e+02
318             	3.08674045e+02
319             	3.08676816e+02
320             	3.08679566e+02
321             	3.08682287e+02
322             	3.08684966e+02
323             	3.08687553e+02
324             	3.08690080e+02
325             	3.08692455e+02
326             	3.08694854e+02
327             	3.08697229e+02
328             	3.08699596e+02
329             	3.08701929e+02
330             	3.08704275e+02
331             	3.08706628e+02
332             	3.08709018e+02
333             	3.08711467e+02
334             	3.08713914e+02
335             	3.08716323e+02
336             	3.08718684e+02
337             	3.08720984e+02
338             	3.08723207e+02
339             	3.08725355e+02
340             	3.08727410e+02
341             	3.08729384e+02
342             	3.08731365e+02
343             	3.08733338e+02
344             	3.08735288e+02
345             	3.08737243e+02
346             	3.08739255e+02
347             	3.08741279e+02
348             	3.08743256e+02
349             	3.08745205e+02
350             	3.08747122e+02
351             	3.08748966e+02
352             	3.08750758e+02
353             	3.08752386e+02
354             	3.08754024e+02
355             	3.08755712e+02
356             	3.08757403e+02
357             	3.08759110e+02
358             	3.08760864e+02
359             	3.08762674e+02
360             	3.08764429e+02
361             	3.08766139e+02
362             	3.08767833e+02
363             	3.08769476e+02
364             	3.08771068e+02
365             	3.08772556e+02
366             	3.08774009e+02
367             	3.08775457e+02
368             	3.08776931e+02
369             	3.08778428e+02
370             	3.08780017e+02
371             	3.08781696e+02
372             	3.08783367e+02
373             	3.08784972e+02
374             	3.08786530e+02
375             	3.08788039e+02
376             	3.08789462e+02
377             	3.08790917e+02
378             	3.08792194e+02
379             	3.08793450e+02
380             	3.08794726e+02
381             	3.08796041e+02
382             	3.08797443e+02
383             	3.08798881e+02
384             	3.08800372e+02
385             	3.08801895e+02
386             	3.08803419e+02
387             	3.08804932e+02
388             	3.08806389e+02
389             	3.08807841e+02
390             	3.08809134e+02
391             	3.08810285e+02
392             	3.08811409e+02
393             	3.08812591e+02
394             	3.08813725e+02
395             	3.08814881e+02
396             	3.08816146e+02
397             	3.08817456e+02
398             	3.08818804e+02
399             	3.08820150e+02
400             	3.08821462e+02
401             	3.08822751e+02
402             	3.08823950e+02
403             	3.08825049e+02
404             	3.08825981e+02
405             	3.08826906e+02
406             	3.08827850e+02
407             	3.08828774e+02
408             	3.08829717e+02
409             	3.08830689e+02
410             	3.08831699e+02
411             	3.08832778e+02
412             	3.08833809e+02
413             	3.08834808e+02
414             	3.08835839e+02
415             	3.08836800e+02
416             	3.08837694e+02
417             	3.08838549e+02
418             	3.08839369e+02
419             	3.08840146e+02
420             	3.08840868e+02
421             	3.08841644e+02
422             	3.08842471e+02
423             	3.08843322e+02
424             	3.08844223e+02
425             	3.08845222e+02
426             	3.08846180e+02
427             	3.08847113e+02
428             	3.08848028e+02
429             	3.08848927e+02
430             	3.08849783e+02
431             	3.08850599e+02
432             	3.08851362e+02
433             	3.08852088e+02
434             	3.08852770e+02
435             	3.08853460e+02
436             	3.08854137e+02
437             	3.08854850e+02
438             	3.08855599e+02
439             	3.08856376e+02
440             	3.08857182e+02
441             	3.08858032e+02
442             	3.08858895e+02
443             	3.08859737e+02
444             	3.08860567e+02
445             	3.08861353e+02
446             	3.08862089e+02
447             	3.08862761e+02
448             	3.08863394e+02
449             	3.08863999e+02
450             	3.08864559e+02
451             	3.08865089e+02
452             	3.08865611e+02
453             	3.08866136e+02
454             	3.08866671e+02
455             	3.08867219e+02
456             	3.08867771e+02
457             	3.08868325e+02
458             	3.08868881e+02
459             	3.08869445e+02
460             	3.08870019e+02
461             	3.08870604e+02
462             	3.08871201e+02
463             	3.08871808e+02
464             	3.08872431e+02
465             	3.08873063e+02
466             	3.08873711e+02
467             	3.08874350e+02
468             	3.08874983e+02
469             	3.08875602e+02
470             	3.08876213e+02
471             	3.08876802e+02
472             	3.08877366e+02
473             	3.08877893e+02
474             	3.08878376e+02
475             	3.08878809e+02
476             	3.08879183e+02
477             	3.08879554e+02
478             	3.08879914e+02
479             	3.08880280e+02
480             	3.08880627e+02
481             	3.08880977e+02
482             	3.08881339e+02
483             	3.08881715e+02
484             	3.08882101e+02
485             	3.08882495e+02
486             	3.08882892e+02
487             	3.08883290e+02
488             	3.08883684e+02
489             	3.08884073e+02
490             	3.08884452e+02
491             	3.08884820e+02
492             	3.08885175e+02
493             	3.08885516e+02
494             	3.08885841e+02
495             	3.08886150e+02
496             	3.08886449e+02
497             	3.08886727e+02
498             	3.08886988e+02
499             	3.08887238e+02
500             	3.08887465e+02
501             	3.08887699e+02
502             	3.08887934e+02
503             	3.08888172e+02
504             	3.08888415e+02
505             	3.08888672e+02
506             	3.08888944e+02
507             	3.08889232e+02
508             	3.08889540e+02
509             	3.08889872e+02
510             	3.08890223e+02
511             	3.08890585e+02
512             	3.08890954e+02
513             	3.08891327e+02
514             	3.08891698e+02
515             	3.08892064e+02
516             	3.08892418e+02
517             	3.08892754e+02
518             	3.08893067e+02
519             	3.08893367e+02
520             	3.08893624e+02
521             	3.08893847e+02
522             	3.08894045e+02
523             	3.08894221e+02
524             	3.08894379e+02
525             	3.08894524e+02
526             	3.08894623e+02
527             	3.08894754e+02
528             	3.08894910e+02
529             	3.08895085e+02
530             	3.08895276e+02
531             	3.08895477e+02
532             	3.08895691e+02
533             	3.08895921e+02
534             	3.08896173e+02
535             	3.08896443e+02
536             	3.08896716e+02
537             	3.08897003e+02
538             	3.08897294e+02
539             	3.08897593e+02
540             	3.08897885e+02
541             	3.08898153e+02
542             	3.08898405e+02
543             	3.08898643e+02
544             	3.08898861e+02
545             	3.08899054e+02
546             	3.08899219e+02
547             	3.08899353e+02
548             	3.08899473e+02
549             	3.08899571e+02
550             	3.08899661e+02
551             	3.08899744e+02
552             	3.08899825e+02
553             	3.08899910e+02
554             	3.08900004e+02
555             	3.08900111e+02
556             	3.08900227e+02
557             	3.08900359e+02
558             	3.08900515e+02
559             	3.08900673e+02
560             	3.08900837e+02
561             	3.08901012e+02
562             	3.08901153e+02
563             	3.08901323e+02
564             	3.08901506e+02
565             	3.08901690e+02
566             	3.08901874e+02
567             	3.08902063e+02
568             	3.08902263e+02
569             	3.08902472e+02
570             	3.08902685e+02
571             	3.08902909e+02
572             	3.08903144e+02
573             	3.08903389e+02
574             	3.08903642e+02
575             	3.08903902e+02
576             	3.08904166e+02
577             	3.08904428e+02
578             	3.08904684e+02
579             	3.08904928e+02
580             	3.08905155e+02
581             	3.08905360e+02
582             	3.08905543e+02
583             	3.08905714e+02
584             	3.08905872e+02
585             	3.08906020e+02
586             	3.08906190e+02
587             	3.08906352e+02
588             	3.08906502e+02
589             	3.08906659e+02
590             	3.08906816e+02
591             	3.08906952e+02
592             	3.08907054e+02
593             	3.08907144e+02
594             	3.08907202e+02
595             	3.08907233e+02
596             	3.08907249e+02
597             	3.08907269e+02
598             	3.08907301e+02
599             	3.08907358e+02
600             	3.08907435e+02
601             	3.08907530e+02
602             	3.08907649e+02
603             	3.08907809e+02
604             	3.08908001e+02
605             	3.08908213e+02
606             	3.08908440e+02
607             	3.08908676e+02
608             	3.08908914e+02
609             	3.08909149e+02
610             	3.08909377e+02
611             	3.08909594e+02
612             	3.08909798e+02
613             	3.08909993e+02
614             	3.08910181e+02
615             	3.08910365e+02
616             	3.08910544e+02
617             	3.08910739e+02
618             	3.08910907e+02
619             	3.08911060e+02
620             	3.08911203e+02
621             	3.08911331e+02
