# Region        : cellZone component_2
# Cells         : 84
# Volume        : 1.66913589e-01
# Time          	volAverage(T)
1               	3.01494036e+02
2               	3.02944223e+02
3               	3.04012802e+02
4               	3.04833012e+02
5               	3.05646450e+02
6               	3.06503112e+02
7               	3.07334886e+02
8               	3.08078153e+02
9               	3.08767208e+02
10              	3.09445512e+02
11              	3.10108395e+02
12              	3.10721686e+02
13              	3.11315073e+02
14              	3.11885488e+02
15              	3.12460612e+02
16              	3.13045573e+02
17              	3.13605051e+02
18              	3.14142746e+02
19              	3.14624225e+02
20              	3.15052398e+02
21              	3.15426336e+02
22              	3.15752226e+02
23              	3.16046553e+02
24              	3.16333348e+02
25              	3.16610118e+02
26              	3.16889286e+02
27              	3.17127118e+02
28              	3.17310178e+02
29              	3.17398580e+02
30              	3.17483051e+02
31              	3.17549167e+02
32              	3.17638404e+02
33              	3.17758278e+02
34              	3.17939475e+02
35              	3.18057040e+02
36              	3.18166422e+02
37              	3.18244420e+02
38              	3.18369922e+02
39              	3.18552593e+02
40              	3.18726086e+02
41              	3.18874634e+02
42              	3.18994804e+02
43              	3.19112084e+02
44              	3.19224618e+02
45              	3.19308172e+02
46              	3.19403340e+02
47              	3.19534188e+02
48              	3.19660826e+02
49              	3.19731429e+02
50              	3.19788919e+02
51              	3.19862705e+02
52              	3.19950953e+02
53              	3.20034396e+02
54              	3.20116169e+02
55              	3.20216565e+02
56              	3.20321179e+02
57              	3.20399621e+02
58              	3.20474993e+02
59              	3.20547926e+02
60              	3.20592872e+02
61              	3.20645725e+02
62              	3.20724712e+02
63              	3.20760814e+02
64              	3.20795163e+02
65              	3.20852900e+02
66              	3.20926338e+02
67              	3.20995805e+02
68              	3.21075591e+02
69              	3.21160171e+02
70              	3.21251555e+02
71              	3.21335356e+02
72              	3.21422269e+02
73              	3.21524352e+02
74              	3.21596881e+02
75              	3.21649343e+02
76              	3.21704284e+02
77              	3.21765007e+02
78              	3.21811405e+02
79              	3.21832208e+02
80              	3.21838466e+02
81              	3.21866167e+02
82              	3.21887189e+02
83              	3.21932687e+02
84              	3.21960708e+02
85              	3.21994192e+02
86              	3.22034242e+02
87              	3.22082508e+02
88              	3.22121871e+02
89              	3.22154585e+02
90              	3.22188112e+02
91              	3.22223226e+02
92              	3.22242929e+02
93              	3.22274294e+02
94              	3.22312892e+02
95              	3.22372756e+02
96              	3.22438983e+02
97              	3.22512649e+02
98              	3.22586383e+02
99              	3.22658060e+02
100             	3.22730893e+02
101             	3.22796945e+02
102             	3.22852644e+02
103             	3.22905251e+02
104             	3.22947792e+02
105             	3.22989763e+02
106             	3.23027354e+02
107             	3.23063303e+02
108             	3.23100285e+02
109             	3.23132561e+02
110             	3.23162471e+02
111             	3.23189532e+02
112             	3.23217912e+02
113             	3.23249558e+02
114             	3.23279260e+02
115             	3.23308896e+02
116             	3.23341201e+02
117             	3.23377034e+02
118             	3.23409329e+02
119             	3.23437586e+02
120             	3.23467568e+02
121             	3.23502338e+02
122             	3.23520198e+02
123             	3.23548080e+02
124             	3.23572078e+02
125             	3.23605417e+02
126             	3.23645771e+02
127             	3.23683785e+02
128             	3.23714252e+02
129             	3.23740152e+02
130             	3.23764624e+02
131             	3.23787220e+02
132             	3.23805501e+02
133             	3.23811316e+02
134             	3.23823811e+02
135             	3.23843537e+02
136             	3.23855156e+02
137             	3.23863226e+02
138             	3.23879395e+02
139             	3.23902874e+02
140             	3.23920149e+02
141             	3.23931807e+02
142             	3.23946401e+02
143             	3.23966904e+02
144             	3.23996241e+02
145             	3.23998788e+02
146             	3.24010548e+02
147             	3.24034755e+02
148             	3.24064030e+02
149             	3.24076388e+02
150             	3.24081875e+02
151             	3.24096320e+02
152             	3.24114052e+02
153             	3.24134251e+02
154             	3.24151820e+02
155             	3.24158919e+02
156             	3.24165013e+02
157             	3.24174465e+02
158             	3.24187571e+02
159             	3.24200506e+02
160             	3.24211292e+02
161             	3.24189951e+02
162             	3.24181672e+02
163             	3.24186417e+02
164             	3.24193225e+02
165             	3.24199946e+02
166             	3.24203108e+02
167             	3.24202041e+02
168             	3.24197465e+02
169             	3.24196178e+02
170             	3.24202314e+02
171             	3.24214123e+02
172             	3.24230120e+02
173             	3.24248549e+02
174             	3.24264640e+02
175             	3.24278386e+02
176             	3.24290704e+02
177             	3.24305768e+02
178             	3.24315292e+02
179             	3.24320454e+02
180             	3.24333319e+02
181             	3.24354101e+02
182             	3.24370016e+02
183             	3.24377575e+02
184             	3.24381126e+02
185             	3.24387512e+02
186             	3.24396364e+02
187             	3.24404932e+02
188             	3.24408637e+02
189             	3.24410491e+02
190             	3.24410407e+02
191             	3.24409913e+02
192             	3.24412667e+02
193             	3.24402148e+02
194             	3.24404072e+02
195             	3.24414754e+02
196             	3.24423923e+02
197             	3.24427400e+02
198             	3.24431832e+02
199             	3.24439994e+02
200             	3.24453185e+02
201             	3.24460620e+02
202             	3.24462384e+02
203             	3.24465164e+02
204             	3.24461499e+02
205             	3.24457384e+02
206             	3.24456239e+02
207             	3.24453232e+02
208             	3.24449868e+02
209             	3.24449683e+02
210             	3.24451961e+02
211             	3.24452917e+02
212             	3.24456279e+02
213             	3.24455024e+02
214             	3.24457967e+02
215             	3.24449554e+02
216             	3.24454264e+02
217             	3.24466920e+02
218             	3.24481819e+02
219             	3.24481114e+02
220             	3.24475235e+02
221             	3.24472569e+02
222             	3.24473382e+02
223             	3.24476892e+02
224             	3.24481144e+02
225             	3.24480789e+02
226             	3.24480628e+02
227             	3.24483864e+02
228             	3.24493922e+02
229             	3.24507241e+02
230             	3.24520508e+02
231             	3.24531292e+02
232             	3.24545533e+02
233             	3.24532323e+02
234             	3.24521178e+02
235             	3.24525654e+02
236             	3.24528342e+02
237             	3.24525385e+02
238             	3.24524985e+02
239             	3.24525858e+02
240             	3.24523163e+02
241             	3.24524676e+02
242             	3.24530166e+02
243             	3.24537416e+02
244             	3.24544476e+02
245             	3.24552968e+02
246             	3.24561823e+02
247             	3.24568830e+02
248             	3.24574175e+02
249             	3.24579476e+02
250             	3.24584620e+02
251             	3.24588010e+02
252             	3.24588639e+02
253             	3.24591289e+02
254             	3.24573552e+02
255             	3.24560201e+02
256             	3.24561487e+02
257             	3.24566546e+02
258             	3.24566554e+02
259             	3.24567392e+02
260             	3.24570956e+02
261             	3.24578794e+02
262             	3.24587437e+02
263             	3.24597918e+02
264             	3.24611373e+02
265             	3.24620525e+02
266             	3.24627380e+02
267             	3.24636818e+02
268             	3.24648293e+02
269             	3.24639672e+02
270             	3.24630037e+02
271             	3.24631294e+02
272             	3.24636236e+02
273             	3.24637663e+02
274             	3.24636364e+02
275             	3.24636528e+02
276             	3.24635103e+02
277             	3.24637592e+02
278             	3.24644307e+02
279             	3.24653559e+02
280             	3.24662326e+02
281             	3.24669651e+02
282             	3.24673621e+02
283             	3.24679712e+02
284             	3.24687698e+02
285             	3.24694313e+02
286             	3.24700073e+02
287             	3.24705740e+02
288             	3.24705064e+02
289             	3.24698105e+02
290             	3.24691253e+02
291             	3.24687380e+02
292             	3.24685453e+02
293             	3.24682957e+02
294             	3.24676020e+02
295             	3.24672329e+02
296             	3.24666813e+02
297             	3.24657680e+02
298             	3.24656707e+02
299             	3.24664669e+02
300             	3.24674606e+02
301             	3.24685182e+02
302             	3.24694823e+02
303             	3.24688972e+02
304             	3.24683689e+02
305             	3.24688542e+02
306             	3.24699044e+02
307             	3.24711040e+02
308             	3.24714741e+02
309             	3.24714069e+02
310             	3.24712374e+02
311             	3.24701391e+02
312             	3.24696146e+02
313             	3.24697085e+02
314             	3.24699872e+02
315             	3.24703019e+02
316             	3.24705162e+02
317             	3.24706288e+02
318             	3.24708512e+02
319             	3.24710881e+02
320             	3.24713286e+02
321             	3.24717793e+02
322             	3.24711393e+02
323             	3.24703910e+02
324             	3.24704311e+02
325             	3.24709766e+02
326             	3.24715920e+02
327             	3.24721273e+02
328             	3.24727143e+02
329             	3.24733680e+02
330             	3.24739170e+02
331             	3.24742905e+02
332             	3.24746718e+02
333             	3.24750648e+02
334             	3.24754150e+02
335             	3.24757428e+02
336             	3.24760877e+02
337             	3.24762665e+02
338             	3.24762974e+02
339             	3.24759597e+02
340             	3.24758194e+02
341             	3.24759265e+02
342             	3.24760035e+02
343             	3.24759598e+02
344             	3.24758802e+02
345             	3.24758724e+02
346             	3.24759090e+02
347             	3.24759279e+02
348             	3.24759326e+02
349             	3.24759510e+02
350             	3.24760243e+02
351             	3.24761308e+02
352             	3.24762617e+02
353             	3.24763911e+02
354             	3.24765032e+02
355             	3.24765783e+02
356             	3.24765977e+02
357             	3.24765669e+02
358             	3.24766554e+02
359             	3.24764937e+02
360             	3.24761900e+02
361             	3.24759553e+02
362             	3.24758198e+02
363             	3.24757270e+02
364             	3.24756411e+02
365             	3.24755580e+02
366             	3.24755282e+02
367             	3.24755072e+02
368             	3.24754878e+02
369             	3.24754229e+02
370             	3.24749606e+02
371             	3.24747800e+02
372             	3.24749775e+02
373             	3.24752378e+02
374             	3.24753358e+02
375             	3.24752676e+02
376             	3.24751474e+02
377             	3.24749664e+02
378             	3.24747909e+02
379             	3.24748911e+02
380             	3.24747400e+02
381             	3.24744244e+02
382             	3.24742191e+02
383             	3.24742880e+02
384             	3.24744070e+02
385             	3.24744599e+02
386             	3.24745775e+02
387             	3.24747741e+02
388             	3.24749993e+02
389             	3.24749470e+02
390             	3.24750441e+02
391             	3.24750478e+02
392             	3.24751449e+02
393             	3.24753920e+02
394             	3.24756481e+02
395             	3.24757243e+02
396             	3.24756554e+02
397             	3.24754087e+02
398             	3.24750918e+02
399             	3.24749540e+02
400             	3.24746917e+02
401             	3.24743175e+02
402             	3.24739878e+02
403             	3.24737626e+02
404             	3.24736999e+02
405             	3.24736432e+02
406             	3.24737071e+02
407             	3.24739006e+02
408             	3.24741294e+02
409             	3.24743277e+02
410             	3.24745155e+02
411             	3.24746612e+02
412             	3.24747916e+02
413             	3.24749329e+02
414             	3.24748172e+02
415             	3.24745734e+02
416             	3.24741876e+02
417             	3.24739201e+02
418             	3.24737628e+02
419             	3.24735071e+02
420             	3.24733143e+02
421             	3.24729446e+02
422             	3.24727487e+02
423             	3.24727843e+02
424             	3.24729750e+02
425             	3.24731984e+02
426             	3.24733899e+02
427             	3.24734707e+02
428             	3.24735167e+02
429             	3.24734942e+02
430             	3.24736432e+02
431             	3.24734796e+02
432             	3.24731770e+02
433             	3.24729988e+02
434             	3.24727330e+02
435             	3.24725685e+02
436             	3.24726640e+02
437             	3.24728944e+02
438             	3.24731344e+02
439             	3.24732419e+02
440             	3.24732828e+02
441             	3.24733501e+02
442             	3.24734572e+02
443             	3.24736180e+02
444             	3.24738015e+02
445             	3.24738088e+02
446             	3.24736802e+02
447             	3.24735187e+02
448             	3.24733784e+02
449             	3.24732531e+02
450             	3.24731188e+02
451             	3.24729563e+02
452             	3.24728715e+02
453             	3.24728233e+02
454             	3.24728872e+02
455             	3.24730314e+02
456             	3.24732092e+02
457             	3.24734481e+02
458             	3.24734795e+02
459             	3.24734781e+02
460             	3.24735893e+02
461             	3.24737746e+02
462             	3.24739689e+02
463             	3.24740603e+02
464             	3.24739298e+02
465             	3.24738112e+02
466             	3.24736585e+02
467             	3.24736159e+02
468             	3.24736539e+02
469             	3.24736757e+02
470             	3.24737089e+02
471             	3.24737808e+02
472             	3.24739090e+02
473             	3.24740901e+02
474             	3.24742477e+02
475             	3.24744010e+02
476             	3.24745500e+02
477             	3.24747057e+02
478             	3.24748364e+02
479             	3.24748927e+02
480             	3.24748693e+02
481             	3.24748568e+02
482             	3.24748814e+02
483             	3.24749561e+02
484             	3.24750107e+02
485             	3.24750825e+02
486             	3.24750725e+02
487             	3.24750495e+02
488             	3.24750565e+02
489             	3.24751089e+02
490             	3.24751767e+02
491             	3.24752114e+02
492             	3.24752189e+02
493             	3.24752628e+02
494             	3.24753371e+02
495             	3.24754621e+02
496             	3.24756749e+02
497             	3.24759398e+02
498             	3.24762011e+02
499             	3.24764232e+02
500             	3.24766083e+02
501             	3.24767771e+02
502             	3.24767585e+02
503             	3.24767731e+02
504             	3.24768624e+02
505             	3.24769577e+02
506             	3.24769924e+02
507             	3.24769498e+02
508             	3.24769229e+02
509             	3.24768455e+02
510             	3.24767227e+02
511             	3.24765901e+02
512             	3.24764678e+02
513             	3.24763717e+02
514             	3.24762799e+02
515             	3.24762651e+02
516             	3.24762661e+02
517             	3.24762799e+02
518             	3.24762745e+02
519             	3.24763916e+02
520             	3.24763501e+02
521             	3.24762035e+02
522             	3.24760873e+02
523             	3.24760283e+02
524             	3.24759534e+02
525             	3.24758937e+02
526             	3.24758401e+02
527             	3.24757796e+02
528             	3.24757300e+02
529             	3.24756570e+02
530             	3.24755536e+02
531             	3.24754429e+02
532             	3.24750957e+02
533             	3.24748554e+02
534             	3.24747432e+02
535             	3.24747258e+02
536             	3.24747416e+02
537             	3.24747675e+02
538             	3.24748043e+02
539             	3.24748427e+02
540             	3.24748616e+02
541             	3.24748468e+02
542             	3.24748109e+02
543             	3.24747542e+02
544             	3.24747279e+02
545             	3.24747181e+02
546             	3.24746251e+02
547             	3.24743711e+02
548             	3.24741157e+02
549             	3.24740289e+02
550             	3.24741555e+02
551             	3.24742958e+02
552             	3.24744310e+02
553             	3.24745969e+02
554             	3.24747941e+02
555             	3.24749511e+02
556             	3.24749061e+02
557             	3.24747466e+02
558             	3.24746621e+02
559             	3.24747421e+02
560             	3.24749807e+02
561             	3.24752220e+02
562             	3.24753314e+02
563             	3.24753099e+02
564             	3.24752089e+02
565             	3.24751865e+02
566             	3.24750740e+02
567             	3.24748104e+02
568             	3.24745916e+02
569             	3.24745131e+02
570             	3.24745757e+02
571             	3.24746413e+02
572             	3.24748139e+02
573             	3.24749902e+02
574             	3.24751103e+02
575             	3.24751552e+02
576             	3.24751748e+02
577             	3.24752418e+02
578             	3.24751838e+02
579             	3.24750773e+02
580             	3.24748853e+02
581             	3.24747827e+02
582             	3.24748018e+02
583             	3.24748452e+02
584             	3.24748272e+02
585             	3.24747981e+02
586             	3.24749776e+02
587             	3.24753261e+02
588             	3.24757294e+02
589             	3.24761370e+02
590             	3.24765468e+02
591             	3.24768871e+02
592             	3.24771263e+02
593             	3.24772931e+02
594             	3.24771634e+02
595             	3.24769695e+02
596             	3.24768686e+02
597             	3.24764483e+02
598             	3.24758958e+02
599             	3.24755113e+02
600             	3.24753362e+02
601             	3.24749662e+02
602             	3.24748824e+02
603             	3.24751145e+02
604             	3.24754162e+02
605             	3.24756439e+02
606             	3.24758458e+02
607             	3.24760336e+02
608             	3.24763181e+02
609             	3.24765683e+02
610             	3.24768324e+02
611             	3.24766323e+02
612             	3.24764654e+02
613             	3.24760874e+02
614             	3.24756328e+02
615             	3.24752043e+02
616             	3.24747497e+02
617             	3.24743387e+02
618             	3.24742283e+02
619             	3.24743337e+02
620             	3.24745490e+02
621             	3.24747874e+02
