# Region        : cellZone component_3
# Cells         : 156
# Volume        : 2.71677582e-01
# Time          	volAverage(T)
1               	3.00712738e+02
2               	3.01414707e+02
3               	3.02043346e+02
4               	3.02624312e+02
5               	3.03188129e+02
6               	3.03740872e+02
7               	3.04282877e+02
8               	3.04816169e+02
9               	3.05343419e+02
10              	3.05858205e+02
11              	3.06364359e+02
12              	3.06861893e+02
13              	3.07358805e+02
14              	3.07848982e+02
15              	3.08324476e+02
16              	3.08800150e+02
17              	3.09231581e+02
18              	3.09622745e+02
19              	3.09981880e+02
20              	3.10316788e+02
21              	3.10640192e+02
22              	3.10984639e+02
23              	3.11334229e+02
24              	3.11658467e+02
25              	3.11954074e+02
26              	3.12233157e+02
27              	3.12513323e+02
28              	3.12788741e+02
29              	3.13060153e+02
30              	3.13331873e+02
31              	3.13599246e+02
32              	3.13857112e+02
33              	3.14116382e+02
34              	3.14371658e+02
35              	3.14629788e+02
36              	3.14895292e+02
37              	3.15167611e+02
38              	3.15440548e+02
39              	3.15730791e+02
40              	3.16027577e+02
41              	3.16308378e+02
42              	3.16533335e+02
43              	3.16734155e+02
44              	3.16915835e+02
45              	3.17093491e+02
46              	3.17262335e+02
47              	3.17455535e+02
48              	3.17656142e+02
49              	3.17857186e+02
50              	3.18064701e+02
51              	3.18271260e+02
52              	3.18471828e+02
53              	3.18665074e+02
54              	3.18856052e+02
55              	3.19044368e+02
56              	3.19234034e+02
57              	3.19418024e+02
58              	3.19612745e+02
59              	3.19792731e+02
60              	3.19954604e+02
61              	3.20110198e+02
62              	3.20262302e+02
63              	3.20423416e+02
64              	3.20591143e+02
65              	3.20761508e+02
66              	3.20938453e+02
67              	3.21105437e+02
68              	3.21270561e+02
69              	3.21430363e+02
70              	3.21581799e+02
71              	3.21724635e+02
72              	3.21859045e+02
73              	3.21973399e+02
74              	3.22063493e+02
75              	3.22134829e+02
76              	3.22186348e+02
77              	3.22248994e+02
78              	3.22318851e+02
79              	3.22388564e+02
80              	3.22469405e+02
81              	3.22559864e+02
82              	3.22658089e+02
83              	3.22750543e+02
84              	3.22815637e+02
85              	3.22866555e+02
86              	3.22916584e+02
87              	3.22966317e+02
88              	3.23020894e+02
89              	3.23080355e+02
90              	3.23134441e+02
91              	3.23181547e+02
92              	3.23217562e+02
93              	3.23244468e+02
94              	3.23259215e+02
95              	3.23272077e+02
96              	3.23292280e+02
97              	3.23315823e+02
98              	3.23347590e+02
99              	3.23383444e+02
100             	3.23423499e+02
101             	3.23468394e+02
102             	3.23518559e+02
103             	3.23572184e+02
104             	3.23627158e+02
105             	3.23676028e+02
106             	3.23722491e+02
107             	3.23765987e+02
108             	3.23807187e+02
109             	3.23845486e+02
110             	3.23879819e+02
111             	3.23908536e+02
112             	3.23933118e+02
113             	3.23949166e+02
114             	3.23957171e+02
115             	3.23967837e+02
116             	3.23986934e+02
117             	3.24011085e+02
118             	3.24042871e+02
119             	3.24081266e+02
120             	3.24129648e+02
121             	3.24176908e+02
122             	3.24231414e+02
123             	3.24276892e+02
124             	3.24304634e+02
125             	3.24317597e+02
126             	3.24320592e+02
127             	3.24313480e+02
128             	3.24294720e+02
129             	3.24279711e+02
130             	3.24264853e+02
131             	3.24269116e+02
132             	3.24284282e+02
133             	3.24310760e+02
134             	3.24348488e+02
135             	3.24385214e+02
136             	3.24419815e+02
137             	3.24453661e+02
138             	3.24475288e+02
139             	3.24476653e+02
140             	3.24456756e+02
141             	3.24423862e+02
142             	3.24388144e+02
143             	3.24365148e+02
144             	3.24354786e+02
145             	3.24354036e+02
146             	3.24351266e+02
147             	3.24355909e+02
148             	3.24366643e+02
149             	3.24384192e+02
150             	3.24408298e+02
151             	3.24430815e+02
152             	3.24453020e+02
153             	3.24474899e+02
154             	3.24500183e+02
155             	3.24529883e+02
156             	3.24563458e+02
157             	3.24598296e+02
158             	3.24637737e+02
159             	3.24672002e+02
160             	3.24709184e+02
161             	3.24739910e+02
162             	3.24760867e+02
163             	3.24773805e+02
164             	3.24779562e+02
165             	3.24781490e+02
166             	3.24780455e+02
167             	3.24780710e+02
168             	3.24784988e+02
169             	3.24791493e+02
170             	3.24804062e+02
171             	3.24823041e+02
172             	3.24850588e+02
173             	3.24891033e+02
174             	3.24937993e+02
175             	3.24992062e+02
176             	3.25036033e+02
177             	3.25076589e+02
178             	3.25106928e+02
179             	3.25119762e+02
180             	3.25117150e+02
181             	3.25104309e+02
182             	3.25085706e+02
183             	3.25062723e+02
184             	3.25041342e+02
185             	3.25025970e+02
186             	3.25018285e+02
187             	3.25006863e+02
188             	3.25004627e+02
189             	3.25002570e+02
190             	3.25011718e+02
191             	3.25026843e+02
192             	3.25045381e+02
193             	3.25065066e+02
194             	3.25081040e+02
195             	3.25104128e+02
196             	3.25132988e+02
197             	3.25165630e+02
198             	3.25197768e+02
199             	3.25224335e+02
200             	3.25252757e+02
201             	3.25277005e+02
202             	3.25298519e+02
203             	3.25316849e+02
204             	3.25328445e+02
205             	3.25334654e+02
206             	3.25336060e+02
207             	3.25333535e+02
208             	3.25330215e+02
209             	3.25325207e+02
210             	3.25320498e+02
211             	3.25320353e+02
212             	3.25327853e+02
213             	3.25342067e+02
214             	3.25362798e+02
215             	3.25387017e+02
216             	3.25412484e+02
217             	3.25438312e+02
218             	3.25463718e+02
219             	3.25490239e+02
220             	3.25518025e+02
221             	3.25546135e+02
222             	3.25574235e+02
223             	3.25601277e+02
224             	3.25627817e+02
225             	3.25655244e+02
226             	3.25684246e+02
227             	3.25714138e+02
228             	3.25740181e+02
229             	3.25764848e+02
230             	3.25786342e+02
231             	3.25800523e+02
232             	3.25805780e+02
233             	3.25803866e+02
234             	3.25798434e+02
235             	3.25792037e+02
236             	3.25783847e+02
237             	3.25781324e+02
238             	3.25783834e+02
239             	3.25790704e+02
240             	3.25802178e+02
241             	3.25818062e+02
242             	3.25839495e+02
243             	3.25859221e+02
244             	3.25884672e+02
245             	3.25904227e+02
246             	3.25918662e+02
247             	3.25929528e+02
248             	3.25936610e+02
249             	3.25942825e+02
250             	3.25947641e+02
251             	3.25951426e+02
252             	3.25954619e+02
253             	3.25958033e+02
254             	3.25961554e+02
255             	3.25961563e+02
256             	3.25963937e+02
257             	3.25968525e+02
258             	3.25979818e+02
259             	3.25994739e+02
260             	3.26010381e+02
261             	3.26028819e+02
262             	3.26047355e+02
263             	3.26065352e+02
264             	3.26083253e+02
265             	3.26098721e+02
266             	3.26115802e+02
267             	3.26134654e+02
268             	3.26155153e+02
269             	3.26181740e+02
270             	3.26210121e+02
271             	3.26242483e+02
272             	3.26272095e+02
273             	3.26298680e+02
274             	3.26325868e+02
275             	3.26347166e+02
276             	3.26363093e+02
277             	3.26374162e+02
278             	3.26381395e+02
279             	3.26386155e+02
280             	3.26390214e+02
281             	3.26393266e+02
282             	3.26395668e+02
283             	3.26398988e+02
284             	3.26403867e+02
285             	3.26410905e+02
286             	3.26419995e+02
287             	3.26428709e+02
288             	3.26440655e+02
289             	3.26451854e+02
290             	3.26465202e+02
291             	3.26481747e+02
292             	3.26499961e+02
293             	3.26518659e+02
294             	3.26539070e+02
295             	3.26561076e+02
296             	3.26582437e+02
297             	3.26603699e+02
298             	3.26625124e+02
299             	3.26646497e+02
300             	3.26664770e+02
301             	3.26680625e+02
302             	3.26695147e+02
303             	3.26707961e+02
304             	3.26718171e+02
305             	3.26726076e+02
306             	3.26730050e+02
307             	3.26732647e+02
308             	3.26734250e+02
309             	3.26735511e+02
310             	3.26735846e+02
311             	3.26736157e+02
312             	3.26737038e+02
313             	3.26739547e+02
314             	3.26742151e+02
315             	3.26745784e+02
316             	3.26752003e+02
317             	3.26761025e+02
318             	3.26772461e+02
319             	3.26786324e+02
320             	3.26801894e+02
321             	3.26817985e+02
322             	3.26834599e+02
323             	3.26850491e+02
324             	3.26866367e+02
325             	3.26881710e+02
326             	3.26896545e+02
327             	3.26911079e+02
328             	3.26923060e+02
329             	3.26934091e+02
330             	3.26943890e+02
331             	3.26953172e+02
332             	3.26961509e+02
333             	3.26969099e+02
334             	3.26976466e+02
335             	3.26983824e+02
336             	3.26991553e+02
337             	3.26999505e+02
338             	3.27007686e+02
339             	3.27017239e+02
340             	3.27026972e+02
341             	3.27036765e+02
342             	3.27046634e+02
343             	3.27056603e+02
344             	3.27066808e+02
345             	3.27077289e+02
346             	3.27087797e+02
347             	3.27097880e+02
348             	3.27108010e+02
349             	3.27118174e+02
350             	3.27128210e+02
351             	3.27137906e+02
352             	3.27147560e+02
353             	3.27156746e+02
354             	3.27165307e+02
355             	3.27173995e+02
356             	3.27183619e+02
357             	3.27189902e+02
358             	3.27196080e+02
359             	3.27202564e+02
360             	3.27208422e+02
361             	3.27212190e+02
362             	3.27214691e+02
363             	3.27217504e+02
364             	3.27219842e+02
365             	3.27221441e+02
366             	3.27223068e+02
367             	3.27225434e+02
368             	3.27227750e+02
369             	3.27230432e+02
370             	3.27233811e+02
371             	3.27237498e+02
372             	3.27241563e+02
373             	3.27245862e+02
374             	3.27249760e+02
375             	3.27254595e+02
376             	3.27260457e+02
377             	3.27267502e+02
378             	3.27275536e+02
379             	3.27283750e+02
380             	3.27291576e+02
381             	3.27298927e+02
382             	3.27305413e+02
383             	3.27311363e+02
384             	3.27314831e+02
385             	3.27317378e+02
386             	3.27319784e+02
387             	3.27322169e+02
388             	3.27324584e+02
389             	3.27327465e+02
390             	3.27330269e+02
391             	3.27332666e+02
392             	3.27335368e+02
393             	3.27339520e+02
394             	3.27343879e+02
395             	3.27347886e+02
396             	3.27352349e+02
397             	3.27357552e+02
398             	3.27362987e+02
399             	3.27368791e+02
400             	3.27374908e+02
401             	3.27380119e+02
402             	3.27385297e+02
403             	3.27389345e+02
404             	3.27393509e+02
405             	3.27397610e+02
406             	3.27401384e+02
407             	3.27404783e+02
408             	3.27407959e+02
409             	3.27410826e+02
410             	3.27413510e+02
411             	3.27415743e+02
412             	3.27417758e+02
413             	3.27419382e+02
414             	3.27420855e+02
415             	3.27422049e+02
416             	3.27424565e+02
417             	3.27426728e+02
418             	3.27429115e+02
419             	3.27431790e+02
420             	3.27434720e+02
421             	3.27437712e+02
422             	3.27440936e+02
423             	3.27444216e+02
424             	3.27447309e+02
425             	3.27447774e+02
426             	3.27448944e+02
427             	3.27450322e+02
428             	3.27451890e+02
429             	3.27453581e+02
430             	3.27454939e+02
431             	3.27456146e+02
432             	3.27457165e+02
433             	3.27459246e+02
434             	3.27459755e+02
435             	3.27460310e+02
436             	3.27461748e+02
437             	3.27463863e+02
438             	3.27466258e+02
439             	3.27468875e+02
440             	3.27471309e+02
441             	3.27473159e+02
442             	3.27475389e+02
443             	3.27477339e+02
444             	3.27478759e+02
445             	3.27480254e+02
446             	3.27481706e+02
447             	3.27482703e+02
448             	3.27483580e+02
449             	3.27485096e+02
450             	3.27486835e+02
451             	3.27488633e+02
452             	3.27490294e+02
453             	3.27492429e+02
454             	3.27494853e+02
455             	3.27497405e+02
456             	3.27499956e+02
457             	3.27502502e+02
458             	3.27504857e+02
459             	3.27507034e+02
460             	3.27509086e+02
461             	3.27510893e+02
462             	3.27511024e+02
463             	3.27511566e+02
464             	3.27512300e+02
465             	3.27512777e+02
466             	3.27513033e+02
467             	3.27513327e+02
468             	3.27513707e+02
469             	3.27514101e+02
470             	3.27514985e+02
471             	3.27515224e+02
472             	3.27515661e+02
473             	3.27516100e+02
474             	3.27516698e+02
475             	3.27517418e+02
476             	3.27519022e+02
477             	3.27521026e+02
478             	3.27523109e+02
479             	3.27525121e+02
480             	3.27527132e+02
481             	3.27528313e+02
482             	3.27529286e+02
483             	3.27530246e+02
484             	3.27531128e+02
485             	3.27531821e+02
486             	3.27532297e+02
487             	3.27532838e+02
488             	3.27533157e+02
489             	3.27533465e+02
490             	3.27533983e+02
491             	3.27534605e+02
492             	3.27535493e+02
493             	3.27536366e+02
494             	3.27537235e+02
495             	3.27538139e+02
496             	3.27539172e+02
497             	3.27540253e+02
498             	3.27540889e+02
499             	3.27541594e+02
500             	3.27542247e+02
501             	3.27543320e+02
502             	3.27544372e+02
503             	3.27545564e+02
504             	3.27546557e+02
505             	3.27547451e+02
506             	3.27548282e+02
507             	3.27549015e+02
508             	3.27549637e+02
509             	3.27549951e+02
510             	3.27550154e+02
511             	3.27548996e+02
512             	3.27548484e+02
513             	3.27547909e+02
514             	3.27547417e+02
515             	3.27547003e+02
516             	3.27546764e+02
517             	3.27546858e+02
518             	3.27547346e+02
519             	3.27547426e+02
520             	3.27547464e+02
521             	3.27547657e+02
522             	3.27547833e+02
523             	3.27547182e+02
524             	3.27547627e+02
525             	3.27548615e+02
526             	3.27549637e+02
527             	3.27550662e+02
528             	3.27551429e+02
529             	3.27551967e+02
530             	3.27552289e+02
531             	3.27552489e+02
532             	3.27552740e+02
533             	3.27552871e+02
534             	3.27553086e+02
535             	3.27553393e+02
536             	3.27553706e+02
537             	3.27554427e+02
538             	3.27555110e+02
539             	3.27555931e+02
540             	3.27556974e+02
541             	3.27558233e+02
542             	3.27559264e+02
543             	3.27560392e+02
544             	3.27560770e+02
545             	3.27561538e+02
546             	3.27562551e+02
547             	3.27563510e+02
548             	3.27564076e+02
549             	3.27564705e+02
550             	3.27565372e+02
551             	3.27565916e+02
552             	3.27566359e+02
553             	3.27566752e+02
554             	3.27567033e+02
555             	3.27567421e+02
556             	3.27567543e+02
557             	3.27567623e+02
558             	3.27567628e+02
559             	3.27568075e+02
560             	3.27568384e+02
561             	3.27568742e+02
562             	3.27569285e+02
563             	3.27569886e+02
564             	3.27570449e+02
565             	3.27571104e+02
566             	3.27571735e+02
567             	3.27572237e+02
568             	3.27572539e+02
569             	3.27572970e+02
570             	3.27573503e+02
571             	3.27573960e+02
572             	3.27574349e+02
573             	3.27574735e+02
574             	3.27574973e+02
575             	3.27575127e+02
576             	3.27575214e+02
577             	3.27575222e+02
578             	3.27575185e+02
579             	3.27575066e+02
580             	3.27574909e+02
581             	3.27574523e+02
582             	3.27574454e+02
583             	3.27574275e+02
584             	3.27574202e+02
585             	3.27574068e+02
586             	3.27573914e+02
587             	3.27573893e+02
588             	3.27574133e+02
589             	3.27574528e+02
590             	3.27574747e+02
591             	3.27575217e+02
592             	3.27575711e+02
593             	3.27576022e+02
594             	3.27576311e+02
595             	3.27576787e+02
596             	3.27577455e+02
597             	3.27577892e+02
598             	3.27578247e+02
599             	3.27578529e+02
600             	3.27578722e+02
601             	3.27578818e+02
602             	3.27578847e+02
603             	3.27578864e+02
604             	3.27578820e+02
605             	3.27578846e+02
606             	3.27579148e+02
607             	3.27579270e+02
608             	3.27579257e+02
609             	3.27579457e+02
610             	3.27579774e+02
611             	3.27580211e+02
612             	3.27580731e+02
613             	3.27581249e+02
614             	3.27581611e+02
615             	3.27581927e+02
616             	3.27582215e+02
617             	3.27582595e+02
618             	3.27582843e+02
619             	3.27583082e+02
620             	3.27583180e+02
621             	3.27583213e+02
