# Region        : cellZone component_3
# Cells         : 101
# Volume        : 2.05535600e-01
# Time          	volAverage(T)
1               	3.02851381e+02
2               	3.05533774e+02
3               	3.07147203e+02
4               	3.08022858e+02
5               	3.08947053e+02
6               	3.10138728e+02
7               	3.11327907e+02
8               	3.12315018e+02
9               	3.13160992e+02
10              	3.14003419e+02
11              	3.14855715e+02
12              	3.15674755e+02
13              	3.16426705e+02
14              	3.17088277e+02
15              	3.17703367e+02
16              	3.18294712e+02
17              	3.18846863e+02
18              	3.19300021e+02
19              	3.19648223e+02
20              	3.19920346e+02
21              	3.20162997e+02
22              	3.20499933e+02
23              	3.20768473e+02
24              	3.20765638e+02
25              	3.20683257e+02
26              	3.20570945e+02
27              	3.20646735e+02
28              	3.20809014e+02
29              	3.21000084e+02
30              	3.21243469e+02
31              	3.21459829e+02
32              	3.21660010e+02
33              	3.21890685e+02
34              	3.22124719e+02
35              	3.22325503e+02
36              	3.22484774e+02
37              	3.22608769e+02
38              	3.22704760e+02
39              	3.22826877e+02
40              	3.22967794e+02
41              	3.23140913e+02
42              	3.23397163e+02
43              	3.23739336e+02
44              	3.23992926e+02
45              	3.23993401e+02
46              	3.23956940e+02
47              	3.23949389e+02
48              	3.23922353e+02
49              	3.23840540e+02
50              	3.23714637e+02
51              	3.23565051e+02
52              	3.23451560e+02
53              	3.23351123e+02
54              	3.23283867e+02
55              	3.23255202e+02
56              	3.23273292e+02
57              	3.23359902e+02
58              	3.23518907e+02
59              	3.23637129e+02
60              	3.23683612e+02
61              	3.23624856e+02
62              	3.23554894e+02
63              	3.23496008e+02
64              	3.23415058e+02
65              	3.23311464e+02
66              	3.23191568e+02
67              	3.23071232e+02
68              	3.22966436e+02
69              	3.22899559e+02
70              	3.22888654e+02
71              	3.22930210e+02
72              	3.23014991e+02
73              	3.23136249e+02
74              	3.23257659e+02
75              	3.23380659e+02
76              	3.23470656e+02
77              	3.23524966e+02
78              	3.23552018e+02
79              	3.23556611e+02
80              	3.23564655e+02
81              	3.23587278e+02
82              	3.23624918e+02
83              	3.23668375e+02
84              	3.23722677e+02
85              	3.23777520e+02
86              	3.23818352e+02
87              	3.23835220e+02
88              	3.23836761e+02
89              	3.23830811e+02
90              	3.23819169e+02
91              	3.23828480e+02
92              	3.23884364e+02
93              	3.23981309e+02
94              	3.24103629e+02
95              	3.24192510e+02
96              	3.24244687e+02
97              	3.24267645e+02
98              	3.24252564e+02
99              	3.24194728e+02
100             	3.24126462e+02
101             	3.24065293e+02
102             	3.24030645e+02
103             	3.24009829e+02
104             	3.24001470e+02
105             	3.24006292e+02
106             	3.24018261e+02
107             	3.24051653e+02
108             	3.24105633e+02
109             	3.24173211e+02
110             	3.24254815e+02
111             	3.24330850e+02
112             	3.24374531e+02
113             	3.24377181e+02
114             	3.24346756e+02
115             	3.24284591e+02
116             	3.24205696e+02
117             	3.24137651e+02
118             	3.24091647e+02
119             	3.24079164e+02
120             	3.24101459e+02
121             	3.24151001e+02
122             	3.24221198e+02
123             	3.24299189e+02
124             	3.24373472e+02
125             	3.24421733e+02
126             	3.24450213e+02
127             	3.24441341e+02
128             	3.24404144e+02
129             	3.24354709e+02
130             	3.24311978e+02
131             	3.24281446e+02
132             	3.24264193e+02
133             	3.24262307e+02
134             	3.24274851e+02
135             	3.24297437e+02
136             	3.24329009e+02
137             	3.24368054e+02
138             	3.24411433e+02
139             	3.24446362e+02
140             	3.24479226e+02
141             	3.24514210e+02
142             	3.24552867e+02
143             	3.24585658e+02
144             	3.24604311e+02
145             	3.24607604e+02
146             	3.24596033e+02
147             	3.24577799e+02
148             	3.24558147e+02
149             	3.24538629e+02
150             	3.24517125e+02
151             	3.24495228e+02
152             	3.24480728e+02
153             	3.24484036e+02
154             	3.24495664e+02
155             	3.24521438e+02
156             	3.24561332e+02
157             	3.24613963e+02
158             	3.24673664e+02
159             	3.24725057e+02
160             	3.24766125e+02
161             	3.24789276e+02
162             	3.24790403e+02
163             	3.24770226e+02
164             	3.24737399e+02
165             	3.24700697e+02
166             	3.24665455e+02
167             	3.24647069e+02
168             	3.24646579e+02
169             	3.24655786e+02
170             	3.24675084e+02
171             	3.24699055e+02
172             	3.24722331e+02
173             	3.24738805e+02
174             	3.24751722e+02
175             	3.24766440e+02
176             	3.24780179e+02
177             	3.24799248e+02
178             	3.24819785e+02
179             	3.24831795e+02
180             	3.24834488e+02
181             	3.24823305e+02
182             	3.24802881e+02
183             	3.24773430e+02
184             	3.24755157e+02
185             	3.24752187e+02
186             	3.24758219e+02
187             	3.24777093e+02
188             	3.24804786e+02
189             	3.24832928e+02
190             	3.24854863e+02
191             	3.24867199e+02
192             	3.24873700e+02
193             	3.24873272e+02
194             	3.24869362e+02
195             	3.24865248e+02
196             	3.24860388e+02
197             	3.24850356e+02
198             	3.24833011e+02
199             	3.24816611e+02
200             	3.24804632e+02
201             	3.24797219e+02
202             	3.24800663e+02
203             	3.24814898e+02
204             	3.24837528e+02
205             	3.24862888e+02
206             	3.24892426e+02
207             	3.24915493e+02
208             	3.24923809e+02
209             	3.24918129e+02
210             	3.24897451e+02
211             	3.24868669e+02
212             	3.24834650e+02
213             	3.24801710e+02
214             	3.24775238e+02
215             	3.24762608e+02
216             	3.24765384e+02
217             	3.24774768e+02
218             	3.24787926e+02
219             	3.24801541e+02
220             	3.24814474e+02
221             	3.24827533e+02
222             	3.24840663e+02
223             	3.24851829e+02
224             	3.24859438e+02
225             	3.24863303e+02
226             	3.24863380e+02
227             	3.24859281e+02
228             	3.24852225e+02
229             	3.24844733e+02
230             	3.24839195e+02
231             	3.24835660e+02
232             	3.24834956e+02
233             	3.24837159e+02
234             	3.24841659e+02
235             	3.24847169e+02
236             	3.24850818e+02
237             	3.24850843e+02
238             	3.24848302e+02
239             	3.24844385e+02
240             	3.24839178e+02
241             	3.24832557e+02
242             	3.24825883e+02
243             	3.24819362e+02
244             	3.24814325e+02
245             	3.24811813e+02
246             	3.24812156e+02
247             	3.24815443e+02
248             	3.24819941e+02
249             	3.24825837e+02
250             	3.24832218e+02
251             	3.24838111e+02
252             	3.24841686e+02
253             	3.24841482e+02
254             	3.24837176e+02
255             	3.24830140e+02
256             	3.24821127e+02
257             	3.24811827e+02
258             	3.24803486e+02
259             	3.24796900e+02
260             	3.24792032e+02
261             	3.24789194e+02
262             	3.24788989e+02
263             	3.24791051e+02
264             	3.24794291e+02
265             	3.24797367e+02
266             	3.24799403e+02
267             	3.24799666e+02
268             	3.24797298e+02
269             	3.24792631e+02
270             	3.24786723e+02
271             	3.24781186e+02
272             	3.24777846e+02
273             	3.24776407e+02
274             	3.24778540e+02
275             	3.24782930e+02
276             	3.24789358e+02
277             	3.24795394e+02
278             	3.24799139e+02
279             	3.24799974e+02
280             	3.24797947e+02
281             	3.24791576e+02
282             	3.24783454e+02
283             	3.24774668e+02
284             	3.24766525e+02
285             	3.24759782e+02
286             	3.24755431e+02
287             	3.24753788e+02
288             	3.24754958e+02
289             	3.24757957e+02
290             	3.24762472e+02
291             	3.24767568e+02
292             	3.24772305e+02
293             	3.24775419e+02
294             	3.24776652e+02
295             	3.24776196e+02
296             	3.24774124e+02
297             	3.24770618e+02
298             	3.24766674e+02
299             	3.24763039e+02
300             	3.24759838e+02
301             	3.24757607e+02
302             	3.24756016e+02
303             	3.24754238e+02
304             	3.24751995e+02
305             	3.24749607e+02
306             	3.24748088e+02
307             	3.24747173e+02
308             	3.24746631e+02
309             	3.24747531e+02
310             	3.24749987e+02
311             	3.24753408e+02
312             	3.24756773e+02
313             	3.24759226e+02
314             	3.24759729e+02
315             	3.24758093e+02
316             	3.24755695e+02
317             	3.24752768e+02
318             	3.24749782e+02
319             	3.24746533e+02
320             	3.24743040e+02
321             	3.24739009e+02
322             	3.24735439e+02
323             	3.24733349e+02
324             	3.24731692e+02
325             	3.24731477e+02
326             	3.24733401e+02
327             	3.24737307e+02
328             	3.24743082e+02
329             	3.24748665e+02
330             	3.24751711e+02
331             	3.24753932e+02
332             	3.24754346e+02
333             	3.24752474e+02
334             	3.24749450e+02
335             	3.24745690e+02
336             	3.24741096e+02
337             	3.24735922e+02
338             	3.24730800e+02
339             	3.24725386e+02
340             	3.24721098e+02
341             	3.24718312e+02
342             	3.24717630e+02
343             	3.24719312e+02
344             	3.24722955e+02
345             	3.24727659e+02
346             	3.24732448e+02
347             	3.24737496e+02
348             	3.24741871e+02
349             	3.24744479e+02
350             	3.24744085e+02
351             	3.24740128e+02
352             	3.24734358e+02
353             	3.24727179e+02
354             	3.24719848e+02
355             	3.24713667e+02
356             	3.24710288e+02
357             	3.24709670e+02
358             	3.24710897e+02
359             	3.24713521e+02
360             	3.24716576e+02
361             	3.24718828e+02
362             	3.24719352e+02
363             	3.24718738e+02
364             	3.24716565e+02
365             	3.24713604e+02
366             	3.24710791e+02
367             	3.24709306e+02
368             	3.24709891e+02
369             	3.24711800e+02
370             	3.24714952e+02
371             	3.24718571e+02
372             	3.24721852e+02
373             	3.24723776e+02
374             	3.24724142e+02
375             	3.24723403e+02
376             	3.24721201e+02
377             	3.24717717e+02
378             	3.24714045e+02
379             	3.24711464e+02
380             	3.24710232e+02
381             	3.24710483e+02
382             	3.24712206e+02
383             	3.24715203e+02
384             	3.24718588e+02
385             	3.24721455e+02
386             	3.24723250e+02
387             	3.24723208e+02
388             	3.24721628e+02
389             	3.24718760e+02
390             	3.24715595e+02
391             	3.24713758e+02
392             	3.24713619e+02
393             	3.24714486e+02
394             	3.24716598e+02
395             	3.24719299e+02
396             	3.24721891e+02
397             	3.24723708e+02
398             	3.24723961e+02
399             	3.24722461e+02
400             	3.24719986e+02
401             	3.24717187e+02
402             	3.24714692e+02
403             	3.24712372e+02
404             	3.24710719e+02
405             	3.24709919e+02
406             	3.24709937e+02
407             	3.24710544e+02
408             	3.24711230e+02
409             	3.24711394e+02
410             	3.24710740e+02
411             	3.24709564e+02
412             	3.24708058e+02
413             	3.24706606e+02
414             	3.24705485e+02
415             	3.24705110e+02
416             	3.24705263e+02
417             	3.24705931e+02
418             	3.24707026e+02
419             	3.24708302e+02
420             	3.24709489e+02
421             	3.24710137e+02
422             	3.24710079e+02
423             	3.24709615e+02
424             	3.24708698e+02
425             	3.24707457e+02
426             	3.24706168e+02
427             	3.24705073e+02
428             	3.24704092e+02
429             	3.24703296e+02
430             	3.24702769e+02
431             	3.24702495e+02
432             	3.24702412e+02
433             	3.24702427e+02
434             	3.24702521e+02
435             	3.24702706e+02
436             	3.24702821e+02
437             	3.24702783e+02
438             	3.24702738e+02
439             	3.24702818e+02
440             	3.24702850e+02
441             	3.24702913e+02
442             	3.24703001e+02
443             	3.24703063e+02
444             	3.24703105e+02
445             	3.24703168e+02
446             	3.24703249e+02
447             	3.24703229e+02
448             	3.24703010e+02
449             	3.24702779e+02
450             	3.24702526e+02
451             	3.24702247e+02
452             	3.24701919e+02
453             	3.24701510e+02
454             	3.24700939e+02
455             	3.24700171e+02
456             	3.24699454e+02
457             	3.24698915e+02
458             	3.24698578e+02
459             	3.24698626e+02
460             	3.24698867e+02
461             	3.24699306e+02
462             	3.24699842e+02
463             	3.24700361e+02
464             	3.24700746e+02
465             	3.24700954e+02
466             	3.24701012e+02
467             	3.24700925e+02
468             	3.24700709e+02
469             	3.24700499e+02
470             	3.24700295e+02
471             	3.24700079e+02
472             	3.24699802e+02
473             	3.24699499e+02
474             	3.24699110e+02
475             	3.24698657e+02
476             	3.24698143e+02
477             	3.24697660e+02
478             	3.24697221e+02
479             	3.24696844e+02
480             	3.24696687e+02
481             	3.24696921e+02
482             	3.24697291e+02
483             	3.24697820e+02
484             	3.24698366e+02
485             	3.24698914e+02
486             	3.24699491e+02
487             	3.24700009e+02
488             	3.24700188e+02
489             	3.24699842e+02
490             	3.24699257e+02
491             	3.24698420e+02
492             	3.24697474e+02
493             	3.24696590e+02
494             	3.24695885e+02
495             	3.24695446e+02
496             	3.24695285e+02
497             	3.24695423e+02
498             	3.24695740e+02
499             	3.24696167e+02
500             	3.24696654e+02
501             	3.24697099e+02
502             	3.24697367e+02
503             	3.24697400e+02
504             	3.24697254e+02
505             	3.24696902e+02
506             	3.24696344e+02
507             	3.24695713e+02
508             	3.24695064e+02
509             	3.24694428e+02
510             	3.24693835e+02
511             	3.24693405e+02
512             	3.24693147e+02
513             	3.24693032e+02
514             	3.24693072e+02
515             	3.24693234e+02
516             	3.24693407e+02
517             	3.24693521e+02
518             	3.24693562e+02
519             	3.24693546e+02
520             	3.24693456e+02
521             	3.24693330e+02
522             	3.24693258e+02
523             	3.24693263e+02
524             	3.24693332e+02
525             	3.24693403e+02
526             	3.24693435e+02
527             	3.24693407e+02
528             	3.24693354e+02
529             	3.24693376e+02
530             	3.24693448e+02
531             	3.24693548e+02
532             	3.24693655e+02
533             	3.24693748e+02
534             	3.24693850e+02
535             	3.24693883e+02
536             	3.24693835e+02
537             	3.24693744e+02
538             	3.24693590e+02
539             	3.24693319e+02
540             	3.24693072e+02
541             	3.24692860e+02
542             	3.24692682e+02
543             	3.24692603e+02
544             	3.24692724e+02
545             	3.24692988e+02
546             	3.24693336e+02
547             	3.24693723e+02
548             	3.24694152e+02
549             	3.24694492e+02
550             	3.24694761e+02
551             	3.24694942e+02
552             	3.24695020e+02
553             	3.24694941e+02
554             	3.24694719e+02
555             	3.24694384e+02
556             	3.24693882e+02
557             	3.24693318e+02
558             	3.24692745e+02
559             	3.24692248e+02
560             	3.24691896e+02
561             	3.24691753e+02
562             	3.24691771e+02
563             	3.24691983e+02
564             	3.24692299e+02
565             	3.24692674e+02
566             	3.24693033e+02
567             	3.24693301e+02
568             	3.24693545e+02
569             	3.24693753e+02
570             	3.24693919e+02
571             	3.24694009e+02
572             	3.24694026e+02
573             	3.24693944e+02
574             	3.24693770e+02
575             	3.24693529e+02
576             	3.24693229e+02
577             	3.24692933e+02
578             	3.24692692e+02
579             	3.24692511e+02
580             	3.24692411e+02
581             	3.24692366e+02
582             	3.24692365e+02
583             	3.24692391e+02
584             	3.24692435e+02
585             	3.24692475e+02
586             	3.24692506e+02
587             	3.24692514e+02
588             	3.24692502e+02
589             	3.24692462e+02
590             	3.24692390e+02
591             	3.24692299e+02
592             	3.24692199e+02
593             	3.24692094e+02
594             	3.24691992e+02
595             	3.24691908e+02
596             	3.24691825e+02
597             	3.24691728e+02
598             	3.24691640e+02
599             	3.24691551e+02
600             	3.24691455e+02
601             	3.24691360e+02
602             	3.24691269e+02
603             	3.24691189e+02
604             	3.24691174e+02
605             	3.24691254e+02
606             	3.24691377e+02
607             	3.24691548e+02
608             	3.24691751e+02
609             	3.24691963e+02
610             	3.24692163e+02
611             	3.24692338e+02
612             	3.24692486e+02
613             	3.24692553e+02
614             	3.24692527e+02
615             	3.24692427e+02
616             	3.24692269e+02
617             	3.24692069e+02
618             	3.24691861e+02
619             	3.24691682e+02
620             	3.24691569e+02
621             	3.24691533e+02
