# Region        : cellZone component_3
# Cells         : 244
# Volume        : 5.06737256e-01
# Time          	volAverage(T)
1               	3.00848206e+02
2               	3.01686431e+02
3               	3.02466880e+02
4               	3.03202316e+02
5               	3.03908687e+02
6               	3.04592241e+02
7               	3.05255608e+02
8               	3.05904177e+02
9               	3.06536975e+02
10              	3.07153630e+02
11              	3.07759537e+02
12              	3.08353919e+02
13              	3.08938792e+02
14              	3.09512175e+02
15              	3.10067117e+02
16              	3.10622809e+02
17              	3.11174945e+02
18              	3.11722524e+02
19              	3.12255547e+02
20              	3.12785420e+02
21              	3.13311408e+02
22              	3.13830211e+02
23              	3.14336581e+02
24              	3.14826423e+02
25              	3.15299370e+02
26              	3.15753282e+02
27              	3.16190872e+02
28              	3.16617545e+02
29              	3.17047957e+02
30              	3.17457075e+02
31              	3.17832514e+02
32              	3.18182579e+02
33              	3.18518423e+02
34              	3.18849047e+02
35              	3.19186080e+02
36              	3.19515607e+02
37              	3.19850000e+02
38              	3.20171365e+02
39              	3.20491630e+02
40              	3.20804002e+02
41              	3.21118820e+02
42              	3.21433688e+02
43              	3.21737076e+02
44              	3.22036167e+02
45              	3.22329432e+02
46              	3.22617225e+02
47              	3.22897099e+02
48              	3.23175100e+02
49              	3.23447556e+02
50              	3.23722468e+02
51              	3.23992422e+02
52              	3.24257189e+02
53              	3.24514125e+02
54              	3.24767785e+02
55              	3.25010711e+02
56              	3.25252205e+02
57              	3.25490587e+02
58              	3.25721677e+02
59              	3.25944361e+02
60              	3.26160837e+02
61              	3.26370801e+02
62              	3.26575521e+02
63              	3.26774726e+02
64              	3.26967806e+02
65              	3.27153285e+02
66              	3.27335430e+02
67              	3.27514419e+02
68              	3.27691452e+02
69              	3.27871007e+02
70              	3.28049635e+02
71              	3.28214654e+02
72              	3.28381934e+02
73              	3.28548290e+02
74              	3.28712493e+02
75              	3.28862959e+02
76              	3.29013905e+02
77              	3.29159108e+02
78              	3.29301098e+02
79              	3.29441023e+02
80              	3.29577438e+02
81              	3.29711982e+02
82              	3.29843246e+02
83              	3.29969992e+02
84              	3.30093285e+02
85              	3.30212659e+02
86              	3.30328423e+02
87              	3.30440493e+02
88              	3.30554552e+02
89              	3.30665291e+02
90              	3.30775687e+02
91              	3.30886612e+02
92              	3.30995744e+02
93              	3.31104832e+02
94              	3.31209464e+02
95              	3.31314450e+02
96              	3.31417362e+02
97              	3.31515507e+02
98              	3.31611868e+02
99              	3.31704899e+02
100             	3.31799241e+02
101             	3.31889037e+02
102             	3.31977242e+02
103             	3.32063721e+02
104             	3.32150458e+02
105             	3.32234504e+02
106             	3.32316315e+02
107             	3.32396079e+02
108             	3.32471551e+02
109             	3.32546048e+02
110             	3.32617943e+02
111             	3.32687312e+02
112             	3.32755824e+02
113             	3.32821454e+02
114             	3.32886266e+02
115             	3.32950009e+02
116             	3.33011065e+02
117             	3.33072235e+02
118             	3.33134407e+02
119             	3.33196322e+02
120             	3.33256021e+02
121             	3.33317547e+02
122             	3.33378544e+02
123             	3.33438359e+02
124             	3.33497031e+02
125             	3.33553562e+02
126             	3.33608484e+02
127             	3.33661435e+02
128             	3.33712846e+02
129             	3.33762399e+02
130             	3.33810905e+02
131             	3.33857824e+02
132             	3.33903149e+02
133             	3.33946741e+02
134             	3.33988905e+02
135             	3.34031862e+02
136             	3.34073879e+02
137             	3.34115283e+02
138             	3.34156394e+02
139             	3.34198010e+02
140             	3.34239526e+02
141             	3.34281916e+02
142             	3.34323969e+02
143             	3.34364408e+02
144             	3.34404499e+02
145             	3.34443485e+02
146             	3.34482032e+02
147             	3.34518414e+02
148             	3.34552976e+02
149             	3.34585788e+02
150             	3.34617175e+02
151             	3.34647413e+02
152             	3.34676789e+02
153             	3.34705711e+02
154             	3.34734869e+02
155             	3.34763484e+02
156             	3.34792265e+02
157             	3.34821291e+02
158             	3.34852116e+02
159             	3.34883007e+02
160             	3.34913864e+02
161             	3.34945387e+02
162             	3.34976789e+02
163             	3.35007416e+02
164             	3.35036958e+02
165             	3.35065356e+02
166             	3.35092506e+02
167             	3.35118313e+02
168             	3.35142462e+02
169             	3.35165086e+02
170             	3.35187247e+02
171             	3.35209204e+02
172             	3.35230654e+02
173             	3.35251892e+02
174             	3.35273263e+02
175             	3.35295319e+02
176             	3.35317629e+02
177             	3.35340120e+02
178             	3.35362013e+02
179             	3.35382923e+02
180             	3.35403061e+02
181             	3.35422303e+02
182             	3.35440517e+02
183             	3.35457899e+02
184             	3.35475217e+02
185             	3.35492152e+02
186             	3.35508827e+02
187             	3.35525383e+02
188             	3.35541700e+02
189             	3.35557393e+02
190             	3.35572435e+02
191             	3.35586786e+02
192             	3.35600419e+02
193             	3.35613311e+02
194             	3.35625478e+02
195             	3.35637749e+02
196             	3.35651321e+02
197             	3.35664989e+02
198             	3.35679266e+02
199             	3.35693994e+02
200             	3.35709125e+02
201             	3.35724164e+02
202             	3.35738737e+02
203             	3.35752920e+02
204             	3.35766466e+02
205             	3.35779280e+02
206             	3.35778406e+02
207             	3.35770671e+02
208             	3.35762132e+02
209             	3.35755634e+02
210             	3.35750668e+02
211             	3.35746437e+02
212             	3.35745955e+02
213             	3.35744365e+02
214             	3.35741475e+02
215             	3.35735964e+02
216             	3.35729421e+02
217             	3.35722243e+02
218             	3.35715173e+02
219             	3.35710720e+02
220             	3.35711528e+02
221             	3.35719467e+02
222             	3.35729051e+02
223             	3.35748390e+02
224             	3.35770262e+02
225             	3.35792455e+02
226             	3.35811566e+02
227             	3.35831533e+02
228             	3.35848377e+02
229             	3.35861133e+02
230             	3.35872621e+02
231             	3.35881845e+02
232             	3.35890267e+02
233             	3.35898948e+02
234             	3.35909632e+02
235             	3.35921491e+02
236             	3.35935583e+02
237             	3.35952811e+02
238             	3.35972279e+02
239             	3.35992165e+02
240             	3.36012596e+02
241             	3.36033184e+02
242             	3.36052322e+02
243             	3.36071019e+02
244             	3.36090331e+02
245             	3.36110324e+02
246             	3.36131292e+02
247             	3.36152797e+02
248             	3.36174744e+02
249             	3.36197179e+02
250             	3.36220078e+02
251             	3.36244112e+02
252             	3.36268453e+02
253             	3.36291609e+02
254             	3.36315228e+02
255             	3.36338964e+02
256             	3.36362772e+02
257             	3.36386872e+02
258             	3.36411567e+02
259             	3.36436242e+02
260             	3.36460120e+02
261             	3.36482869e+02
262             	3.36504636e+02
263             	3.36523644e+02
264             	3.36539721e+02
265             	3.36553898e+02
266             	3.36566555e+02
267             	3.36578836e+02
268             	3.36593475e+02
269             	3.36609325e+02
270             	3.36627144e+02
271             	3.36645622e+02
272             	3.36664016e+02
273             	3.36681498e+02
274             	3.36697655e+02
275             	3.36712218e+02
276             	3.36725570e+02
277             	3.36738185e+02
278             	3.36750859e+02
279             	3.36763496e+02
280             	3.36776141e+02
281             	3.36789106e+02
282             	3.36802095e+02
283             	3.36815600e+02
284             	3.36829592e+02
285             	3.36843997e+02
286             	3.36858138e+02
287             	3.36871597e+02
288             	3.36884196e+02
289             	3.36895295e+02
290             	3.36905461e+02
291             	3.36915998e+02
292             	3.36926514e+02
293             	3.36936792e+02
294             	3.36946700e+02
295             	3.36956547e+02
296             	3.36966068e+02
297             	3.36975038e+02
298             	3.36983315e+02
299             	3.36990941e+02
300             	3.36998356e+02
301             	3.37006137e+02
302             	3.37013862e+02
303             	3.37022104e+02
304             	3.37029295e+02
305             	3.37035749e+02
306             	3.37041973e+02
307             	3.37047829e+02
308             	3.37052942e+02
309             	3.37059938e+02
310             	3.37069470e+02
311             	3.37080531e+02
312             	3.37091470e+02
313             	3.37103560e+02
314             	3.37116460e+02
315             	3.37130398e+02
316             	3.37140034e+02
317             	3.37146548e+02
318             	3.37151093e+02
319             	3.37153722e+02
320             	3.37154262e+02
321             	3.37155023e+02
322             	3.37156495e+02
323             	3.37159340e+02
324             	3.37164151e+02
325             	3.37170728e+02
326             	3.37178687e+02
327             	3.37187074e+02
328             	3.37195426e+02
329             	3.37202891e+02
330             	3.37208869e+02
331             	3.37213485e+02
332             	3.37216527e+02
333             	3.37219912e+02
334             	3.37223730e+02
335             	3.37227104e+02
336             	3.37232246e+02
337             	3.37238416e+02
338             	3.37244884e+02
339             	3.37251353e+02
340             	3.37258455e+02
341             	3.37264249e+02
342             	3.37270279e+02
343             	3.37275318e+02
344             	3.37279189e+02
345             	3.37282429e+02
346             	3.37285619e+02
347             	3.37289035e+02
348             	3.37293151e+02
349             	3.37297676e+02
350             	3.37302538e+02
351             	3.37307750e+02
352             	3.37313309e+02
353             	3.37319164e+02
354             	3.37325323e+02
355             	3.37331686e+02
356             	3.37337481e+02
357             	3.37342581e+02
358             	3.37346546e+02
359             	3.37350207e+02
360             	3.37354887e+02
361             	3.37362238e+02
362             	3.37370545e+02
363             	3.37379379e+02
364             	3.37388403e+02
365             	3.37395279e+02
366             	3.37400130e+02
367             	3.37403869e+02
368             	3.37406722e+02
369             	3.37409042e+02
370             	3.37410965e+02
371             	3.37412339e+02
372             	3.37414334e+02
373             	3.37417647e+02
374             	3.37421103e+02
375             	3.37424031e+02
376             	3.37426403e+02
377             	3.37428768e+02
378             	3.37431360e+02
379             	3.37433649e+02
380             	3.37435112e+02
381             	3.37435613e+02
382             	3.37434470e+02
383             	3.37433387e+02
384             	3.37436062e+02
385             	3.37440596e+02
386             	3.37446108e+02
387             	3.37451711e+02
388             	3.37457307e+02
389             	3.37464860e+02
390             	3.37468988e+02
391             	3.37470278e+02
392             	3.37469893e+02
393             	3.37468558e+02
394             	3.37467370e+02
395             	3.37465806e+02
396             	3.37464368e+02
397             	3.37463442e+02
398             	3.37463162e+02
399             	3.37463126e+02
400             	3.37463766e+02
401             	3.37466729e+02
402             	3.37470599e+02
403             	3.37475030e+02
404             	3.37479039e+02
405             	3.37483163e+02
406             	3.37485406e+02
407             	3.37487691e+02
408             	3.37492787e+02
409             	3.37497674e+02
410             	3.37499617e+02
411             	3.37499593e+02
412             	3.37498666e+02
413             	3.37497438e+02
414             	3.37496675e+02
415             	3.37495467e+02
416             	3.37493592e+02
417             	3.37491460e+02
418             	3.37489615e+02
419             	3.37489119e+02
420             	3.37490832e+02
421             	3.37493061e+02
422             	3.37495495e+02
423             	3.37499217e+02
424             	3.37503026e+02
425             	3.37507153e+02
426             	3.37508081e+02
427             	3.37506867e+02
428             	3.37504483e+02
429             	3.37501608e+02
430             	3.37498769e+02
431             	3.37496291e+02
432             	3.37494498e+02
433             	3.37491966e+02
434             	3.37489720e+02
435             	3.37488047e+02
436             	3.37486903e+02
437             	3.37486398e+02
438             	3.37485985e+02
439             	3.37486880e+02
440             	3.37487885e+02
441             	3.37489563e+02
442             	3.37491234e+02
443             	3.37491967e+02
444             	3.37493452e+02
445             	3.37497311e+02
446             	3.37497998e+02
447             	3.37495625e+02
448             	3.37491869e+02
449             	3.37487864e+02
450             	3.37484118e+02
451             	3.37480915e+02
452             	3.37478265e+02
453             	3.37476385e+02
454             	3.37475234e+02
455             	3.37474775e+02
456             	3.37474547e+02
457             	3.37475618e+02
458             	3.37477706e+02
459             	3.37480497e+02
460             	3.37483410e+02
461             	3.37486032e+02
462             	3.37488091e+02
463             	3.37489460e+02
464             	3.37489479e+02
465             	3.37490181e+02
466             	3.37491191e+02
467             	3.37493334e+02
468             	3.37493899e+02
469             	3.37493808e+02
470             	3.37494139e+02
471             	3.37494638e+02
472             	3.37494461e+02
473             	3.37494064e+02
474             	3.37494104e+02
475             	3.37493942e+02
476             	3.37493559e+02
477             	3.37492483e+02
478             	3.37492637e+02
479             	3.37493442e+02
480             	3.37494714e+02
481             	3.37495609e+02
482             	3.37497790e+02
483             	3.37500483e+02
484             	3.37503524e+02
485             	3.37506371e+02
486             	3.37508849e+02
487             	3.37512936e+02
488             	3.37515003e+02
489             	3.37514886e+02
490             	3.37513366e+02
491             	3.37512030e+02
492             	3.37511107e+02
493             	3.37510079e+02
494             	3.37509196e+02
495             	3.37508679e+02
496             	3.37508614e+02
497             	3.37509105e+02
498             	3.37510482e+02
499             	3.37512609e+02
500             	3.37514225e+02
501             	3.37515887e+02
502             	3.37517446e+02
503             	3.37518301e+02
504             	3.37520772e+02
505             	3.37523753e+02
506             	3.37526920e+02
507             	3.37530141e+02
508             	3.37533244e+02
509             	3.37535687e+02
510             	3.37537102e+02
511             	3.37540404e+02
512             	3.37542250e+02
513             	3.37542313e+02
514             	3.37541796e+02
515             	3.37541307e+02
516             	3.37540825e+02
517             	3.37540057e+02
518             	3.37539167e+02
519             	3.37538354e+02
520             	3.37537570e+02
521             	3.37536727e+02
522             	3.37536124e+02
523             	3.37535647e+02
524             	3.37535443e+02
525             	3.37536537e+02
526             	3.37538513e+02
527             	3.37541223e+02
528             	3.37544595e+02
529             	3.37548368e+02
530             	3.37552089e+02
531             	3.37555526e+02
532             	3.37558813e+02
533             	3.37561855e+02
534             	3.37564641e+02
535             	3.37566678e+02
536             	3.37568014e+02
537             	3.37568819e+02
538             	3.37569313e+02
539             	3.37569709e+02
540             	3.37569888e+02
541             	3.37570270e+02
542             	3.37569930e+02
543             	3.37569086e+02
544             	3.37568101e+02
545             	3.37566656e+02
546             	3.37564890e+02
547             	3.37562795e+02
548             	3.37560255e+02
549             	3.37557423e+02
550             	3.37554764e+02
551             	3.37552755e+02
552             	3.37549972e+02
553             	3.37549223e+02
554             	3.37549886e+02
555             	3.37552438e+02
556             	3.37554480e+02
557             	3.37556213e+02
558             	3.37557837e+02
559             	3.37559413e+02
560             	3.37561202e+02
561             	3.37562922e+02
562             	3.37564814e+02
563             	3.37566089e+02
564             	3.37566667e+02
565             	3.37566987e+02
566             	3.37567628e+02
567             	3.37567684e+02
568             	3.37567161e+02
569             	3.37566112e+02
570             	3.37565908e+02
571             	3.37566014e+02
572             	3.37566226e+02
573             	3.37566325e+02
574             	3.37566725e+02
575             	3.37567209e+02
576             	3.37567162e+02
577             	3.37567038e+02
578             	3.37567042e+02
579             	3.37566834e+02
580             	3.37566181e+02
581             	3.37565861e+02
582             	3.37565500e+02
583             	3.37565305e+02
584             	3.37565339e+02
585             	3.37565357e+02
586             	3.37565683e+02
587             	3.37566193e+02
588             	3.37566418e+02
589             	3.37566326e+02
590             	3.37565952e+02
591             	3.37565432e+02
592             	3.37564867e+02
593             	3.37564192e+02
594             	3.37563386e+02
595             	3.37562517e+02
596             	3.37561840e+02
597             	3.37561125e+02
598             	3.37560205e+02
599             	3.37558977e+02
600             	3.37557579e+02
601             	3.37556551e+02
602             	3.37555885e+02
603             	3.37555591e+02
604             	3.37555575e+02
605             	3.37555500e+02
606             	3.37555591e+02
607             	3.37555091e+02
608             	3.37554281e+02
609             	3.37553476e+02
610             	3.37552768e+02
611             	3.37552184e+02
612             	3.37551799e+02
613             	3.37551252e+02
614             	3.37551087e+02
615             	3.37551134e+02
616             	3.37550253e+02
617             	3.37552094e+02
618             	3.37555186e+02
619             	3.37558689e+02
620             	3.37562548e+02
621             	3.37566018e+02
