# Region        : cellZone fluid
# Cells         : 8310
# Volume        : 1.61644186e+01
# Time          	volAverage(T)
1               	2.99999915e+02
2               	2.99999934e+02
3               	3.00000218e+02
4               	3.00000663e+02
5               	3.00001003e+02
6               	3.00001378e+02
7               	3.00002010e+02
8               	3.00002787e+02
9               	3.00003433e+02
10              	3.00004255e+02
11              	3.00005158e+02
12              	3.00006514e+02
13              	3.00007967e+02
14              	3.00009059e+02
15              	3.00010239e+02
16              	3.00011483e+02
17              	3.00012832e+02
18              	3.00013553e+02
19              	3.00014415e+02
20              	3.00015402e+02
21              	3.00016741e+02
22              	3.00017999e+02
23              	3.00019108e+02
24              	3.00020354e+02
25              	3.00022110e+02
26              	3.00023158e+02
27              	3.00024590e+02
28              	3.00026409e+02
29              	3.00027721e+02
30              	3.00028900e+02
31              	3.00030606e+02
32              	3.00032255e+02
33              	3.00034108e+02
34              	3.00035580e+02
35              	3.00037317e+02
36              	3.00038929e+02
37              	3.00040607e+02
38              	3.00042440e+02
39              	3.00044121e+02
40              	3.00045939e+02
41              	3.00047524e+02
42              	3.00048776e+02
43              	3.00049972e+02
44              	3.00051592e+02
45              	3.00052891e+02
46              	3.00054522e+02
47              	3.00056335e+02
48              	3.00057855e+02
49              	3.00059684e+02
50              	3.00061146e+02
51              	3.00062664e+02
52              	3.00064261e+02
53              	3.00065426e+02
54              	3.00066218e+02
55              	3.00067507e+02
56              	3.00068859e+02
57              	3.00070035e+02
58              	3.00071308e+02
59              	3.00072600e+02
60              	3.00073597e+02
61              	3.00075127e+02
62              	3.00076260e+02
63              	3.00078061e+02
64              	3.00079522e+02
65              	3.00080844e+02
66              	3.00081777e+02
67              	3.00082477e+02
68              	3.00083255e+02
69              	3.00084060e+02
70              	3.00084902e+02
71              	3.00086477e+02
72              	3.00089142e+02
73              	3.00090750e+02
74              	3.00092049e+02
75              	3.00093763e+02
76              	3.00095172e+02
77              	3.00096092e+02
78              	3.00097222e+02
79              	3.00098570e+02
80              	3.00100693e+02
81              	3.00101591e+02
82              	3.00103059e+02
83              	3.00103966e+02
84              	3.00104962e+02
85              	3.00106822e+02
86              	3.00108557e+02
87              	3.00110064e+02
88              	3.00111934e+02
89              	3.00112388e+02
90              	3.00113205e+02
91              	3.00114047e+02
92              	3.00115186e+02
93              	3.00116575e+02
94              	3.00117826e+02
95              	3.00118744e+02
96              	3.00120101e+02
97              	3.00121648e+02
98              	3.00123555e+02
99              	3.00124857e+02
100             	3.00126240e+02
101             	3.00127315e+02
102             	3.00129296e+02
103             	3.00130460e+02
104             	3.00130773e+02
105             	3.00131288e+02
106             	3.00133101e+02
107             	3.00134700e+02
108             	3.00135484e+02
109             	3.00136098e+02
110             	3.00137099e+02
111             	3.00138521e+02
112             	3.00139256e+02
113             	3.00140340e+02
114             	3.00140866e+02
115             	3.00142500e+02
116             	3.00143367e+02
117             	3.00143541e+02
118             	3.00143947e+02
119             	3.00145400e+02
120             	3.00147575e+02
121             	3.00149677e+02
122             	3.00149784e+02
123             	3.00150096e+02
124             	3.00151302e+02
125             	3.00152353e+02
126             	3.00153103e+02
127             	3.00153451e+02
128             	3.00154184e+02
129             	3.00155065e+02
130             	3.00155440e+02
131             	3.00155817e+02
132             	3.00156302e+02
133             	3.00157167e+02
134             	3.00158270e+02
135             	3.00158790e+02
136             	3.00159767e+02
137             	3.00160356e+02
138             	3.00160883e+02
139             	3.00160954e+02
140             	3.00160884e+02
141             	3.00162198e+02
142             	3.00161235e+02
143             	3.00162584e+02
144             	3.00162746e+02
145             	3.00163428e+02
146             	3.00163466e+02
147             	3.00163882e+02
148             	3.00165335e+02
149             	3.00166508e+02
150             	3.00166420e+02
151             	3.00166717e+02
152             	3.00167462e+02
153             	3.00166978e+02
154             	3.00166603e+02
155             	3.00166598e+02
156             	3.00166658e+02
157             	3.00167148e+02
158             	3.00167068e+02
159             	3.00167123e+02
160             	3.00167587e+02
161             	3.00168382e+02
162             	3.00168689e+02
163             	3.00169230e+02
164             	3.00169308e+02
165             	3.00169130e+02
166             	3.00168862e+02
167             	3.00168827e+02
168             	3.00168835e+02
169             	3.00169008e+02
170             	3.00168856e+02
171             	3.00168693e+02
172             	3.00169447e+02
173             	3.00169946e+02
174             	3.00170204e+02
175             	3.00170259e+02
176             	3.00170628e+02
177             	3.00170968e+02
178             	3.00171395e+02
179             	3.00171153e+02
180             	3.00170979e+02
181             	3.00171247e+02
182             	3.00171550e+02
183             	3.00171825e+02
184             	3.00171728e+02
185             	3.00171937e+02
186             	3.00172686e+02
187             	3.00173466e+02
188             	3.00174339e+02
189             	3.00175190e+02
190             	3.00175760e+02
191             	3.00176064e+02
192             	3.00176020e+02
193             	3.00175952e+02
194             	3.00175627e+02
195             	3.00175975e+02
196             	3.00176523e+02
197             	3.00176584e+02
198             	3.00177071e+02
199             	3.00177661e+02
200             	3.00178141e+02
201             	3.00178564e+02
202             	3.00179011e+02
203             	3.00179515e+02
204             	3.00179052e+02
205             	3.00179133e+02
206             	3.00179238e+02
207             	3.00178948e+02
208             	3.00178655e+02
209             	3.00178358e+02
210             	3.00179013e+02
211             	3.00179524e+02
212             	3.00179688e+02
213             	3.00179999e+02
214             	3.00179807e+02
215             	3.00179752e+02
216             	3.00180053e+02
217             	3.00179639e+02
218             	3.00180769e+02
219             	3.00180543e+02
220             	3.00180401e+02
221             	3.00179966e+02
222             	3.00179725e+02
223             	3.00179630e+02
224             	3.00179371e+02
225             	3.00179856e+02
226             	3.00180564e+02
227             	3.00181402e+02
228             	3.00181830e+02
229             	3.00181791e+02
230             	3.00180901e+02
231             	3.00180467e+02
232             	3.00179748e+02
233             	3.00179319e+02
234             	3.00178910e+02
235             	3.00179012e+02
236             	3.00178923e+02
237             	3.00179179e+02
238             	3.00179663e+02
239             	3.00180176e+02
240             	3.00180964e+02
241             	3.00181446e+02
242             	3.00181549e+02
243             	3.00182055e+02
244             	3.00181944e+02
245             	3.00181927e+02
246             	3.00181522e+02
247             	3.00181177e+02
248             	3.00181527e+02
249             	3.00181360e+02
250             	3.00181413e+02
251             	3.00181801e+02
252             	3.00182284e+02
253             	3.00182236e+02
254             	3.00182274e+02
255             	3.00182190e+02
256             	3.00181780e+02
257             	3.00181641e+02
258             	3.00181506e+02
259             	3.00181598e+02
260             	3.00181702e+02
261             	3.00181932e+02
262             	3.00182288e+02
263             	3.00181793e+02
264             	3.00182463e+02
265             	3.00182871e+02
266             	3.00182804e+02
267             	3.00182618e+02
268             	3.00183243e+02
269             	3.00183151e+02
270             	3.00182858e+02
271             	3.00182697e+02
272             	3.00182601e+02
273             	3.00182588e+02
274             	3.00182638e+02
275             	3.00182770e+02
276             	3.00182791e+02
277             	3.00182878e+02
278             	3.00183130e+02
279             	3.00183553e+02
280             	3.00183767e+02
281             	3.00183980e+02
282             	3.00184175e+02
283             	3.00184421e+02
284             	3.00185115e+02
285             	3.00185637e+02
286             	3.00185644e+02
287             	3.00185777e+02
288             	3.00185867e+02
289             	3.00185971e+02
290             	3.00185655e+02
291             	3.00185586e+02
292             	3.00185771e+02
293             	3.00185905e+02
294             	3.00185803e+02
295             	3.00185774e+02
296             	3.00185756e+02
297             	3.00186245e+02
298             	3.00186627e+02
299             	3.00186282e+02
300             	3.00186229e+02
301             	3.00186284e+02
302             	3.00186369e+02
303             	3.00186465e+02
304             	3.00186301e+02
305             	3.00186288e+02
306             	3.00186365e+02
307             	3.00186390e+02
308             	3.00186314e+02
309             	3.00186222e+02
310             	3.00186301e+02
311             	3.00186329e+02
312             	3.00186399e+02
313             	3.00186452e+02
314             	3.00186469e+02
315             	3.00186856e+02
316             	3.00187186e+02
317             	3.00187017e+02
318             	3.00187117e+02
319             	3.00187256e+02
320             	3.00187432e+02
321             	3.00187372e+02
322             	3.00187499e+02
323             	3.00187526e+02
324             	3.00187721e+02
325             	3.00187754e+02
326             	3.00187797e+02
327             	3.00187770e+02
328             	3.00188008e+02
329             	3.00188607e+02
330             	3.00188445e+02
331             	3.00188469e+02
332             	3.00188563e+02
333             	3.00188698e+02
334             	3.00188859e+02
335             	3.00189060e+02
336             	3.00189273e+02
337             	3.00189311e+02
338             	3.00188971e+02
339             	3.00189222e+02
340             	3.00189280e+02
341             	3.00189219e+02
342             	3.00189123e+02
343             	3.00188945e+02
344             	3.00188934e+02
345             	3.00189105e+02
346             	3.00189476e+02
347             	3.00189783e+02
348             	3.00189478e+02
349             	3.00189366e+02
350             	3.00189406e+02
351             	3.00189399e+02
352             	3.00189253e+02
353             	3.00188934e+02
354             	3.00188950e+02
355             	3.00189028e+02
356             	3.00188924e+02
357             	3.00188927e+02
358             	3.00189004e+02
359             	3.00189302e+02
360             	3.00189836e+02
361             	3.00189694e+02
362             	3.00189618e+02
363             	3.00189601e+02
364             	3.00189582e+02
365             	3.00189494e+02
366             	3.00189126e+02
367             	3.00188961e+02
368             	3.00189390e+02
369             	3.00189575e+02
370             	3.00189798e+02
371             	3.00190404e+02
372             	3.00190491e+02
373             	3.00190290e+02
374             	3.00190324e+02
375             	3.00190350e+02
376             	3.00190405e+02
377             	3.00190486e+02
378             	3.00190339e+02
379             	3.00190264e+02
380             	3.00190555e+02
381             	3.00190688e+02
382             	3.00190737e+02
383             	3.00190775e+02
384             	3.00190704e+02
385             	3.00190867e+02
386             	3.00191118e+02
387             	3.00191056e+02
388             	3.00191019e+02
389             	3.00190939e+02
390             	3.00190897e+02
391             	3.00190921e+02
392             	3.00191062e+02
393             	3.00191217e+02
394             	3.00190967e+02
395             	3.00191151e+02
396             	3.00191326e+02
397             	3.00191383e+02
398             	3.00191365e+02
399             	3.00191354e+02
400             	3.00191310e+02
401             	3.00191278e+02
402             	3.00191251e+02
403             	3.00191222e+02
404             	3.00191175e+02
405             	3.00191098e+02
406             	3.00191127e+02
407             	3.00191167e+02
408             	3.00191311e+02
409             	3.00191539e+02
410             	3.00191329e+02
411             	3.00191249e+02
412             	3.00191223e+02
413             	3.00191250e+02
414             	3.00190987e+02
415             	3.00191160e+02
416             	3.00191438e+02
417             	3.00191620e+02
418             	3.00191734e+02
419             	3.00191863e+02
420             	3.00191884e+02
421             	3.00191930e+02
422             	3.00191976e+02
423             	3.00191979e+02
424             	3.00192252e+02
425             	3.00192229e+02
426             	3.00192187e+02
427             	3.00192155e+02
428             	3.00192177e+02
429             	3.00192206e+02
430             	3.00192224e+02
431             	3.00192248e+02
432             	3.00192294e+02
433             	3.00192315e+02
434             	3.00192327e+02
435             	3.00192187e+02
436             	3.00192166e+02
437             	3.00192264e+02
438             	3.00192256e+02
439             	3.00192208e+02
440             	3.00192157e+02
441             	3.00192139e+02
442             	3.00192106e+02
443             	3.00192055e+02
444             	3.00192008e+02
445             	3.00191977e+02
446             	3.00191961e+02
447             	3.00191943e+02
448             	3.00191984e+02
449             	3.00192023e+02
450             	3.00192091e+02
451             	3.00192313e+02
452             	3.00192277e+02
453             	3.00192387e+02
454             	3.00192244e+02
455             	3.00192099e+02
456             	3.00191924e+02
457             	3.00191779e+02
458             	3.00191717e+02
459             	3.00191688e+02
460             	3.00191844e+02
461             	3.00192013e+02
462             	3.00192236e+02
463             	3.00192482e+02
464             	3.00192697e+02
465             	3.00192580e+02
466             	3.00192138e+02
467             	3.00192138e+02
468             	3.00192078e+02
469             	3.00191884e+02
470             	3.00191770e+02
471             	3.00192004e+02
472             	3.00192086e+02
473             	3.00193007e+02
474             	3.00192948e+02
475             	3.00193078e+02
476             	3.00193383e+02
477             	3.00193558e+02
478             	3.00193572e+02
479             	3.00193158e+02
480             	3.00192886e+02
481             	3.00193307e+02
482             	3.00193447e+02
483             	3.00193699e+02
484             	3.00193672e+02
485             	3.00194087e+02
486             	3.00194452e+02
487             	3.00194726e+02
488             	3.00194347e+02
489             	3.00194236e+02
490             	3.00194173e+02
491             	3.00194318e+02
492             	3.00194016e+02
493             	3.00193616e+02
494             	3.00193365e+02
495             	3.00193612e+02
496             	3.00193709e+02
497             	3.00193715e+02
498             	3.00193776e+02
499             	3.00193827e+02
500             	3.00193823e+02
501             	3.00193798e+02
502             	3.00194204e+02
503             	3.00194039e+02
504             	3.00194134e+02
505             	3.00194111e+02
506             	3.00194155e+02
507             	3.00194277e+02
508             	3.00194395e+02
509             	3.00194520e+02
510             	3.00194721e+02
511             	3.00194748e+02
512             	3.00194840e+02
513             	3.00194911e+02
514             	3.00195052e+02
515             	3.00195088e+02
516             	3.00195178e+02
517             	3.00195265e+02
518             	3.00194816e+02
519             	3.00195035e+02
520             	3.00195074e+02
521             	3.00195151e+02
522             	3.00195303e+02
523             	3.00195538e+02
524             	3.00195399e+02
525             	3.00195217e+02
526             	3.00195106e+02
527             	3.00195115e+02
528             	3.00195143e+02
529             	3.00195198e+02
530             	3.00195204e+02
531             	3.00195158e+02
532             	3.00195186e+02
533             	3.00195442e+02
534             	3.00195550e+02
535             	3.00195517e+02
536             	3.00195299e+02
537             	3.00195109e+02
538             	3.00194977e+02
539             	3.00194965e+02
540             	3.00195331e+02
541             	3.00195164e+02
542             	3.00195067e+02
543             	3.00194990e+02
544             	3.00194917e+02
545             	3.00194857e+02
546             	3.00194871e+02
547             	3.00194904e+02
548             	3.00194909e+02
549             	3.00194595e+02
550             	3.00194363e+02
551             	3.00194376e+02
552             	3.00194282e+02
553             	3.00194271e+02
554             	3.00194236e+02
555             	3.00194296e+02
556             	3.00194503e+02
557             	3.00194883e+02
558             	3.00194730e+02
559             	3.00194700e+02
560             	3.00194731e+02
561             	3.00194901e+02
562             	3.00195018e+02
563             	3.00194898e+02
564             	3.00194869e+02
565             	3.00195091e+02
566             	3.00195068e+02
567             	3.00194956e+02
568             	3.00194857e+02
569             	3.00194810e+02
570             	3.00194685e+02
571             	3.00194639e+02
572             	3.00194875e+02
573             	3.00194579e+02
574             	3.00194438e+02
575             	3.00194350e+02
576             	3.00194297e+02
577             	3.00194262e+02
578             	3.00194229e+02
579             	3.00194192e+02
580             	3.00194156e+02
581             	3.00194150e+02
582             	3.00194048e+02
583             	3.00194002e+02
584             	3.00194007e+02
585             	3.00194022e+02
586             	3.00193949e+02
587             	3.00193862e+02
588             	3.00193888e+02
589             	3.00193832e+02
590             	3.00193865e+02
591             	3.00193841e+02
592             	3.00193866e+02
593             	3.00193883e+02
594             	3.00193940e+02
595             	3.00194009e+02
596             	3.00194044e+02
597             	3.00194101e+02
598             	3.00194208e+02
599             	3.00194301e+02
600             	3.00194395e+02
601             	3.00194511e+02
602             	3.00194634e+02
603             	3.00194755e+02
604             	3.00194872e+02
605             	3.00194961e+02
606             	3.00194954e+02
607             	3.00194940e+02
608             	3.00194896e+02
609             	3.00194801e+02
610             	3.00194794e+02
611             	3.00194749e+02
612             	3.00194697e+02
613             	3.00194688e+02
614             	3.00194664e+02
615             	3.00194627e+02
616             	3.00194623e+02
617             	3.00194618e+02
618             	3.00194613e+02
619             	3.00194646e+02
620             	3.00194650e+02
621             	3.00194645e+02
