# Region        : cellZone component_3
# Cells         : 95
# Volume        : 1.86080888e-01
# Time          	volAverage(T)
1               	3.02112917e+02
2               	3.04140545e+02
3               	3.05612336e+02
4               	3.06736308e+02
5               	3.07886109e+02
6               	3.09148232e+02
7               	3.10381297e+02
8               	3.11500395e+02
9               	3.12554862e+02
10              	3.13615440e+02
11              	3.14608277e+02
12              	3.15528495e+02
13              	3.16382430e+02
14              	3.17194306e+02
15              	3.17937975e+02
16              	3.18583607e+02
17              	3.19137824e+02
18              	3.19738060e+02
19              	3.20392117e+02
20              	3.21009381e+02
21              	3.21621630e+02
22              	3.22190076e+02
23              	3.22679468e+02
24              	3.23134169e+02
25              	3.23494809e+02
26              	3.23863892e+02
27              	3.24158448e+02
28              	3.24467179e+02
29              	3.24771248e+02
30              	3.25080071e+02
31              	3.25520704e+02
32              	3.25752497e+02
33              	3.25615297e+02
34              	3.25495685e+02
35              	3.25551439e+02
36              	3.25818531e+02
37              	3.26092884e+02
38              	3.26292733e+02
39              	3.26430965e+02
40              	3.26518895e+02
41              	3.26669207e+02
42              	3.26849822e+02
43              	3.27127207e+02
44              	3.27188024e+02
45              	3.27100047e+02
46              	3.26955281e+02
47              	3.27036046e+02
48              	3.27296758e+02
49              	3.27635690e+02
50              	3.27901826e+02
51              	3.28080652e+02
52              	3.28205881e+02
53              	3.28335621e+02
54              	3.28475599e+02
55              	3.28678452e+02
56              	3.28790866e+02
57              	3.28674067e+02
58              	3.28467998e+02
59              	3.28313092e+02
60              	3.28217999e+02
61              	3.28157902e+02
62              	3.28203054e+02
63              	3.28320615e+02
64              	3.28432249e+02
65              	3.28513501e+02
66              	3.28563806e+02
67              	3.28591543e+02
68              	3.28725974e+02
69              	3.28931412e+02
70              	3.28869873e+02
71              	3.28728840e+02
72              	3.28553016e+02
73              	3.28488061e+02
74              	3.28567290e+02
75              	3.28769833e+02
76              	3.28963791e+02
77              	3.29090157e+02
78              	3.29190262e+02
79              	3.29299854e+02
80              	3.29404278e+02
81              	3.29524207e+02
82              	3.29693632e+02
83              	3.29905250e+02
84              	3.29976378e+02
85              	3.29933896e+02
86              	3.29776164e+02
87              	3.29745831e+02
88              	3.29812517e+02
89              	3.29960919e+02
90              	3.30130654e+02
91              	3.30244761e+02
92              	3.30305456e+02
93              	3.30347083e+02
94              	3.30410401e+02
95              	3.30493521e+02
96              	3.30557436e+02
97              	3.30607173e+02
98              	3.30684402e+02
99              	3.30779932e+02
100             	3.30914754e+02
101             	3.30948981e+02
102             	3.30966215e+02
103             	3.30960498e+02
104             	3.30992966e+02
105             	3.31027797e+02
106             	3.31045043e+02
107             	3.31030968e+02
108             	3.31033962e+02
109             	3.31095768e+02
110             	3.31231977e+02
111             	3.31395487e+02
112             	3.31420311e+02
113             	3.31422594e+02
114             	3.31396040e+02
115             	3.31440065e+02
116             	3.31504997e+02
117             	3.31551712e+02
118             	3.31563087e+02
119             	3.31554950e+02
120             	3.31549028e+02
121             	3.31572565e+02
122             	3.31612005e+02
123             	3.31651518e+02
124             	3.31707177e+02
125             	3.31806518e+02
126             	3.31889419e+02
127             	3.31943629e+02
128             	3.31979255e+02
129             	3.32010880e+02
130             	3.32021502e+02
131             	3.31999181e+02
132             	3.31959017e+02
133             	3.31931618e+02
134             	3.31912665e+02
135             	3.31912320e+02
136             	3.31914624e+02
137             	3.31904238e+02
138             	3.31927988e+02
139             	3.31958458e+02
140             	3.32024513e+02
141             	3.32122575e+02
142             	3.32233793e+02
143             	3.32337906e+02
144             	3.32413321e+02
145             	3.32466276e+02
146             	3.32512619e+02
147             	3.32559320e+02
148             	3.32592391e+02
149             	3.32609653e+02
150             	3.32602484e+02
151             	3.32609467e+02
152             	3.32621897e+02
153             	3.32653011e+02
154             	3.32705646e+02
155             	3.32777050e+02
156             	3.32864798e+02
157             	3.32964364e+02
158             	3.33073355e+02
159             	3.33157257e+02
160             	3.33229955e+02
161             	3.33290574e+02
162             	3.33330501e+02
163             	3.33344375e+02
164             	3.33345537e+02
165             	3.33336362e+02
166             	3.33339052e+02
167             	3.33364597e+02
168             	3.33416665e+02
169             	3.33483066e+02
170             	3.33557876e+02
171             	3.33627596e+02
172             	3.33684965e+02
173             	3.33755811e+02
174             	3.33792512e+02
175             	3.33797320e+02
176             	3.33779739e+02
177             	3.33752179e+02
178             	3.33735917e+02
179             	3.33737761e+02
180             	3.33754170e+02
181             	3.33767445e+02
182             	3.33777168e+02
183             	3.33804958e+02
184             	3.33819797e+02
185             	3.33850643e+02
186             	3.33884168e+02
187             	3.33904649e+02
188             	3.33914067e+02
189             	3.33905043e+02
190             	3.33899238e+02
191             	3.33900726e+02
192             	3.33903516e+02
193             	3.33911927e+02
194             	3.33911409e+02
195             	3.33916731e+02
196             	3.33928637e+02
197             	3.33967775e+02
198             	3.34020104e+02
199             	3.34080422e+02
200             	3.34147778e+02
201             	3.34215598e+02
202             	3.34274922e+02
203             	3.34318162e+02
204             	3.34348250e+02
205             	3.34378924e+02
206             	3.34405599e+02
207             	3.34427330e+02
208             	3.34440940e+02
209             	3.34448078e+02
210             	3.34462673e+02
211             	3.34491652e+02
212             	3.34526718e+02
213             	3.34572304e+02
214             	3.34629106e+02
215             	3.34692400e+02
216             	3.34738390e+02
217             	3.34782618e+02
218             	3.34827915e+02
219             	3.34867475e+02
220             	3.34900386e+02
221             	3.34926187e+02
222             	3.34951724e+02
223             	3.34975078e+02
224             	3.34995276e+02
225             	3.35014568e+02
226             	3.35040050e+02
227             	3.35075880e+02
228             	3.35114665e+02
229             	3.35152987e+02
230             	3.35198417e+02
231             	3.35250390e+02
232             	3.35283928e+02
233             	3.35315642e+02
234             	3.35346782e+02
235             	3.35380604e+02
236             	3.35409713e+02
237             	3.35435057e+02
238             	3.35457378e+02
239             	3.35478688e+02
240             	3.35500161e+02
241             	3.35522591e+02
242             	3.35543200e+02
243             	3.35566762e+02
244             	3.35589314e+02
245             	3.35612719e+02
246             	3.35639000e+02
247             	3.35669651e+02
248             	3.35703552e+02
249             	3.35740840e+02
250             	3.35753361e+02
251             	3.35770277e+02
252             	3.35800996e+02
253             	3.35831788e+02
254             	3.35856165e+02
255             	3.35877498e+02
256             	3.35899864e+02
257             	3.35918863e+02
258             	3.35930452e+02
259             	3.35937838e+02
260             	3.35943139e+02
261             	3.35943811e+02
262             	3.35939712e+02
263             	3.35932597e+02
264             	3.35925788e+02
265             	3.35927701e+02
266             	3.35919112e+02
267             	3.35913025e+02
268             	3.35909913e+02
269             	3.35918300e+02
270             	3.35930962e+02
271             	3.35946857e+02
272             	3.35956601e+02
273             	3.35966120e+02
274             	3.35977791e+02
275             	3.35991430e+02
276             	3.36003870e+02
277             	3.36014248e+02
278             	3.36024472e+02
279             	3.36037542e+02
280             	3.36049914e+02
281             	3.36060024e+02
282             	3.36069708e+02
283             	3.36078316e+02
284             	3.36085021e+02
285             	3.36090939e+02
286             	3.36097608e+02
287             	3.36104546e+02
288             	3.36110685e+02
289             	3.36116533e+02
290             	3.36122424e+02
291             	3.36126458e+02
292             	3.36131143e+02
293             	3.36136898e+02
294             	3.36145632e+02
295             	3.36153499e+02
296             	3.36159960e+02
297             	3.36168173e+02
298             	3.36180817e+02
299             	3.36197430e+02
300             	3.36215043e+02
301             	3.36230895e+02
302             	3.36241799e+02
303             	3.36256653e+02
304             	3.36272583e+02
305             	3.36285854e+02
306             	3.36296092e+02
307             	3.36304795e+02
308             	3.36312520e+02
309             	3.36317784e+02
310             	3.36321368e+02
311             	3.36322574e+02
312             	3.36322163e+02
313             	3.36322281e+02
314             	3.36323238e+02
315             	3.36323998e+02
316             	3.36324527e+02
317             	3.36326713e+02
318             	3.36330635e+02
319             	3.36338911e+02
320             	3.36345882e+02
321             	3.36350957e+02
322             	3.36357431e+02
323             	3.36366591e+02
324             	3.36376524e+02
325             	3.36383841e+02
326             	3.36391332e+02
327             	3.36400565e+02
328             	3.36409744e+02
329             	3.36416986e+02
330             	3.36420844e+02
331             	3.36424866e+02
332             	3.36430227e+02
333             	3.36434204e+02
334             	3.36436541e+02
335             	3.36438150e+02
336             	3.36440970e+02
337             	3.36443180e+02
338             	3.36445343e+02
339             	3.36447391e+02
340             	3.36448594e+02
341             	3.36448357e+02
342             	3.36451943e+02
343             	3.36454501e+02
344             	3.36455262e+02
345             	3.36458421e+02
346             	3.36465126e+02
347             	3.36473190e+02
348             	3.36478584e+02
349             	3.36481357e+02
350             	3.36483279e+02
351             	3.36488525e+02
352             	3.36495111e+02
353             	3.36497820e+02
354             	3.36496793e+02
355             	3.36493859e+02
356             	3.36491042e+02
357             	3.36491282e+02
358             	3.36487594e+02
359             	3.36490094e+02
360             	3.36489452e+02
361             	3.36489381e+02
362             	3.36494142e+02
363             	3.36495278e+02
364             	3.36499075e+02
365             	3.36507293e+02
366             	3.36512453e+02
367             	3.36513872e+02
368             	3.36513220e+02
369             	3.36511228e+02
370             	3.36508138e+02
371             	3.36504094e+02
372             	3.36501454e+02
373             	3.36499377e+02
374             	3.36497520e+02
375             	3.36492471e+02
376             	3.36489062e+02
377             	3.36489353e+02
378             	3.36492630e+02
379             	3.36496098e+02
380             	3.36500528e+02
381             	3.36506465e+02
382             	3.36511988e+02
383             	3.36516590e+02
384             	3.36520726e+02
385             	3.36523737e+02
386             	3.36526107e+02
387             	3.36528847e+02
388             	3.36531087e+02
389             	3.36533077e+02
390             	3.36535590e+02
391             	3.36538190e+02
392             	3.36540590e+02
393             	3.36542356e+02
394             	3.36543312e+02
395             	3.36544289e+02
396             	3.36544088e+02
397             	3.36544039e+02
398             	3.36544763e+02
399             	3.36545981e+02
400             	3.36545838e+02
401             	3.36548389e+02
402             	3.36550009e+02
403             	3.36549302e+02
404             	3.36548632e+02
405             	3.36550231e+02
406             	3.36553976e+02
407             	3.36557977e+02
408             	3.36560739e+02
409             	3.36562804e+02
410             	3.36565666e+02
411             	3.36567858e+02
412             	3.36568118e+02
413             	3.36567148e+02
414             	3.36566533e+02
415             	3.36567224e+02
416             	3.36567634e+02
417             	3.36567950e+02
418             	3.36568847e+02
419             	3.36570068e+02
420             	3.36570863e+02
421             	3.36571200e+02
422             	3.36571996e+02
423             	3.36573211e+02
424             	3.36573706e+02
425             	3.36573115e+02
426             	3.36573906e+02
427             	3.36575657e+02
428             	3.36577518e+02
429             	3.36576205e+02
430             	3.36575275e+02
431             	3.36576970e+02
432             	3.36580649e+02
433             	3.36584422e+02
434             	3.36587280e+02
435             	3.36589950e+02
436             	3.36592450e+02
437             	3.36593935e+02
438             	3.36594429e+02
439             	3.36594216e+02
440             	3.36593311e+02
441             	3.36592353e+02
442             	3.36591038e+02
443             	3.36590368e+02
444             	3.36590561e+02
445             	3.36591090e+02
446             	3.36591277e+02
447             	3.36591557e+02
448             	3.36591493e+02
449             	3.36590716e+02
450             	3.36589261e+02
451             	3.36587430e+02
452             	3.36585455e+02
453             	3.36584634e+02
454             	3.36583830e+02
455             	3.36583393e+02
456             	3.36583115e+02
457             	3.36583310e+02
458             	3.36584344e+02
459             	3.36585701e+02
460             	3.36587081e+02
461             	3.36587477e+02
462             	3.36588241e+02
463             	3.36589411e+02
464             	3.36590196e+02
465             	3.36590564e+02
466             	3.36590919e+02
467             	3.36591407e+02
468             	3.36591764e+02
469             	3.36592044e+02
470             	3.36592295e+02
471             	3.36592503e+02
472             	3.36592949e+02
473             	3.36592679e+02
474             	3.36592768e+02
475             	3.36593158e+02
476             	3.36593168e+02
477             	3.36592643e+02
478             	3.36591626e+02
479             	3.36590450e+02
480             	3.36589224e+02
481             	3.36589219e+02
482             	3.36589021e+02
483             	3.36588461e+02
484             	3.36588826e+02
485             	3.36589280e+02
486             	3.36589992e+02
487             	3.36591002e+02
488             	3.36592273e+02
489             	3.36593264e+02
490             	3.36594017e+02
491             	3.36594532e+02
492             	3.36594879e+02
493             	3.36595059e+02
494             	3.36594954e+02
495             	3.36594099e+02
496             	3.36592787e+02
497             	3.36591731e+02
498             	3.36591993e+02
499             	3.36591722e+02
500             	3.36591227e+02
501             	3.36591449e+02
502             	3.36591833e+02
503             	3.36592437e+02
504             	3.36593879e+02
505             	3.36594558e+02
506             	3.36595384e+02
507             	3.36596611e+02
508             	3.36597685e+02
509             	3.36598325e+02
510             	3.36598566e+02
511             	3.36598508e+02
512             	3.36598347e+02
513             	3.36598229e+02
514             	3.36598221e+02
515             	3.36598325e+02
516             	3.36598251e+02
517             	3.36598093e+02
518             	3.36597932e+02
519             	3.36597719e+02
520             	3.36597418e+02
521             	3.36597011e+02
522             	3.36596627e+02
523             	3.36596259e+02
524             	3.36595954e+02
525             	3.36595699e+02
526             	3.36595685e+02
527             	3.36595576e+02
528             	3.36595533e+02
529             	3.36595724e+02
530             	3.36596126e+02
531             	3.36596730e+02
532             	3.36597319e+02
533             	3.36597861e+02
534             	3.36598311e+02
535             	3.36598638e+02
536             	3.36599048e+02
537             	3.36599539e+02
538             	3.36599900e+02
539             	3.36600102e+02
540             	3.36600170e+02
541             	3.36600159e+02
542             	3.36600088e+02
543             	3.36599987e+02
544             	3.36599853e+02
545             	3.36599678e+02
546             	3.36599636e+02
547             	3.36599575e+02
548             	3.36599350e+02
549             	3.36599181e+02
550             	3.36599134e+02
551             	3.36599080e+02
552             	3.36599035e+02
553             	3.36599173e+02
554             	3.36599305e+02
555             	3.36599442e+02
556             	3.36599673e+02
557             	3.36600033e+02
558             	3.36600406e+02
559             	3.36600779e+02
560             	3.36601108e+02
561             	3.36601119e+02
562             	3.36601169e+02
563             	3.36601294e+02
564             	3.36601311e+02
565             	3.36601211e+02
566             	3.36601077e+02
567             	3.36601064e+02
568             	3.36600957e+02
569             	3.36600812e+02
570             	3.36600706e+02
571             	3.36600715e+02
572             	3.36600824e+02
573             	3.36600981e+02
574             	3.36601123e+02
575             	3.36601292e+02
576             	3.36601464e+02
577             	3.36601632e+02
578             	3.36601812e+02
579             	3.36601957e+02
580             	3.36602055e+02
581             	3.36602053e+02
582             	3.36602075e+02
583             	3.36602084e+02
584             	3.36602012e+02
585             	3.36601856e+02
586             	3.36601638e+02
587             	3.36601399e+02
588             	3.36601177e+02
589             	3.36600974e+02
590             	3.36600788e+02
591             	3.36600588e+02
592             	3.36600396e+02
593             	3.36600255e+02
594             	3.36600240e+02
595             	3.36600299e+02
596             	3.36600292e+02
597             	3.36600301e+02
598             	3.36600364e+02
599             	3.36600489e+02
600             	3.36600627e+02
601             	3.36600844e+02
602             	3.36600992e+02
603             	3.36601183e+02
604             	3.36601434e+02
605             	3.36601624e+02
606             	3.36601730e+02
607             	3.36601776e+02
608             	3.36601796e+02
609             	3.36601791e+02
610             	3.36601736e+02
611             	3.36601642e+02
612             	3.36601557e+02
613             	3.36601486e+02
614             	3.36601415e+02
615             	3.36601350e+02
616             	3.36601345e+02
617             	3.36601315e+02
618             	3.36601270e+02
619             	3.36601238e+02
620             	3.36601250e+02
621             	3.36601287e+02
