# Region        : cellZone component_3
# Cells         : 124
# Volume        : 2.29442967e-01
# Time          	volAverage(T)
1               	3.01209044e+02
2               	3.02388328e+02
3               	3.03383738e+02
4               	3.04236140e+02
5               	3.05018420e+02
6               	3.05760207e+02
7               	3.06468660e+02
8               	3.07141731e+02
9               	3.07802380e+02
10              	3.08439611e+02
11              	3.09052807e+02
12              	3.09627440e+02
13              	3.10141360e+02
14              	3.10591068e+02
15              	3.11017596e+02
16              	3.11477593e+02
17              	3.11912920e+02
18              	3.12296811e+02
19              	3.12658156e+02
20              	3.13019698e+02
21              	3.13391464e+02
22              	3.13712321e+02
23              	3.13996395e+02
24              	3.14245736e+02
25              	3.14459417e+02
26              	3.14688549e+02
27              	3.14916433e+02
28              	3.15142993e+02
29              	3.15379016e+02
30              	3.15622941e+02
31              	3.15856479e+02
32              	3.16045394e+02
33              	3.16109478e+02
34              	3.16054662e+02
35              	3.16014427e+02
36              	3.16097663e+02
37              	3.16213712e+02
38              	3.16309139e+02
39              	3.16378525e+02
40              	3.16431223e+02
41              	3.16492223e+02
42              	3.16559988e+02
43              	3.16638401e+02
44              	3.16731677e+02
45              	3.16858033e+02
46              	3.17025723e+02
47              	3.17216276e+02
48              	3.17411541e+02
49              	3.17604638e+02
50              	3.17784538e+02
51              	3.17967053e+02
52              	3.18132413e+02
53              	3.18283842e+02
54              	3.18423778e+02
55              	3.18542149e+02
56              	3.18634856e+02
57              	3.18704062e+02
58              	3.18748877e+02
59              	3.18768510e+02
60              	3.18774181e+02
61              	3.18771403e+02
62              	3.18764118e+02
63              	3.18781805e+02
64              	3.18813027e+02
65              	3.18803818e+02
66              	3.18688869e+02
67              	3.18661300e+02
68              	3.18686248e+02
69              	3.18705667e+02
70              	3.18683962e+02
71              	3.18641680e+02
72              	3.18585869e+02
73              	3.18528264e+02
74              	3.18468233e+02
75              	3.18407115e+02
76              	3.18336702e+02
77              	3.18274047e+02
78              	3.18221702e+02
79              	3.18188391e+02
80              	3.18182391e+02
81              	3.18198395e+02
82              	3.18229896e+02
83              	3.18269912e+02
84              	3.18317125e+02
85              	3.18371303e+02
86              	3.18426704e+02
87              	3.18483187e+02
88              	3.18537395e+02
89              	3.18589494e+02
90              	3.18639374e+02
91              	3.18691248e+02
92              	3.18751020e+02
93              	3.18813041e+02
94              	3.18882595e+02
95              	3.18964716e+02
96              	3.19060782e+02
97              	3.19164804e+02
98              	3.19258278e+02
99              	3.19354203e+02
100             	3.19443344e+02
101             	3.19518196e+02
102             	3.19570905e+02
103             	3.19608145e+02
104             	3.19630576e+02
105             	3.19659871e+02
106             	3.19706517e+02
107             	3.19773703e+02
108             	3.19858424e+02
109             	3.19940425e+02
110             	3.20019861e+02
111             	3.20090203e+02
112             	3.20148875e+02
113             	3.20179653e+02
114             	3.20185428e+02
115             	3.20173927e+02
116             	3.20161233e+02
117             	3.20163937e+02
118             	3.20174255e+02
119             	3.20188275e+02
120             	3.20212407e+02
121             	3.20240698e+02
122             	3.20263261e+02
123             	3.20280751e+02
124             	3.20290976e+02
125             	3.20294997e+02
126             	3.20290423e+02
127             	3.20278439e+02
128             	3.20256209e+02
129             	3.20238835e+02
130             	3.20231395e+02
131             	3.20231897e+02
132             	3.20249626e+02
133             	3.20278576e+02
134             	3.20315841e+02
135             	3.20358465e+02
136             	3.20405381e+02
137             	3.20443847e+02
138             	3.20469560e+02
139             	3.20478899e+02
140             	3.20476621e+02
141             	3.20465934e+02
142             	3.20453332e+02
143             	3.20438383e+02
144             	3.20423904e+02
145             	3.20412578e+02
146             	3.20404230e+02
147             	3.20398670e+02
148             	3.20392873e+02
149             	3.20388890e+02
150             	3.20384962e+02
151             	3.20380729e+02
152             	3.20377751e+02
153             	3.20374063e+02
154             	3.20373128e+02
155             	3.20377960e+02
156             	3.20388522e+02
157             	3.20402108e+02
158             	3.20417211e+02
159             	3.20433142e+02
160             	3.20452121e+02
161             	3.20472921e+02
162             	3.20493744e+02
163             	3.20507773e+02
164             	3.20514606e+02
165             	3.20517368e+02
166             	3.20513347e+02
167             	3.20502616e+02
168             	3.20488871e+02
169             	3.20477203e+02
170             	3.20470978e+02
171             	3.20472308e+02
172             	3.20483237e+02
173             	3.20497022e+02
174             	3.20512987e+02
175             	3.20531678e+02
176             	3.20549167e+02
177             	3.20563351e+02
178             	3.20573497e+02
179             	3.20576772e+02
180             	3.20573829e+02
181             	3.20566927e+02
182             	3.20556973e+02
183             	3.20543746e+02
184             	3.20527545e+02
185             	3.20508483e+02
186             	3.20488294e+02
187             	3.20467651e+02
188             	3.20449819e+02
189             	3.20439156e+02
190             	3.20434264e+02
191             	3.20434106e+02
192             	3.20440182e+02
193             	3.20448236e+02
194             	3.20456162e+02
195             	3.20465718e+02
196             	3.20470933e+02
197             	3.20471804e+02
198             	3.20468029e+02
199             	3.20460621e+02
200             	3.20450933e+02
201             	3.20439960e+02
202             	3.20429134e+02
203             	3.20420341e+02
204             	3.20412004e+02
205             	3.20408323e+02
206             	3.20409154e+02
207             	3.20416638e+02
208             	3.20430456e+02
209             	3.20451330e+02
210             	3.20476854e+02
211             	3.20501463e+02
212             	3.20522501e+02
213             	3.20540608e+02
214             	3.20553511e+02
215             	3.20558162e+02
216             	3.20556317e+02
217             	3.20549391e+02
218             	3.20539326e+02
219             	3.20528490e+02
220             	3.20519492e+02
221             	3.20514237e+02
222             	3.20513115e+02
223             	3.20514863e+02
224             	3.20521112e+02
225             	3.20527526e+02
226             	3.20531599e+02
227             	3.20534626e+02
228             	3.20533253e+02
229             	3.20524279e+02
230             	3.20510578e+02
231             	3.20493239e+02
232             	3.20474931e+02
233             	3.20457782e+02
234             	3.20444704e+02
235             	3.20437400e+02
236             	3.20436452e+02
237             	3.20440666e+02
238             	3.20449953e+02
239             	3.20463195e+02
240             	3.20478676e+02
241             	3.20492809e+02
242             	3.20506623e+02
243             	3.20518158e+02
244             	3.20527032e+02
245             	3.20532768e+02
246             	3.20535801e+02
247             	3.20536551e+02
248             	3.20535233e+02
249             	3.20533781e+02
250             	3.20532293e+02
251             	3.20530993e+02
252             	3.20529795e+02
253             	3.20529037e+02
254             	3.20529233e+02
255             	3.20530928e+02
256             	3.20533747e+02
257             	3.20536120e+02
258             	3.20539230e+02
259             	3.20543018e+02
260             	3.20545780e+02
261             	3.20547985e+02
262             	3.20550142e+02
263             	3.20552823e+02
264             	3.20554091e+02
265             	3.20554331e+02
266             	3.20553130e+02
267             	3.20550924e+02
268             	3.20547946e+02
269             	3.20544000e+02
270             	3.20538578e+02
271             	3.20531983e+02
272             	3.20527213e+02
273             	3.20524369e+02
274             	3.20524463e+02
275             	3.20529622e+02
276             	3.20538765e+02
277             	3.20550899e+02
278             	3.20566442e+02
279             	3.20578483e+02
280             	3.20589916e+02
281             	3.20599908e+02
282             	3.20606095e+02
283             	3.20607971e+02
284             	3.20605900e+02
285             	3.20600349e+02
286             	3.20592759e+02
287             	3.20584433e+02
288             	3.20577121e+02
289             	3.20571262e+02
290             	3.20566963e+02
291             	3.20564283e+02
292             	3.20561753e+02
293             	3.20559289e+02
294             	3.20555688e+02
295             	3.20551025e+02
296             	3.20545874e+02
297             	3.20540817e+02
298             	3.20536365e+02
299             	3.20533513e+02
300             	3.20533176e+02
301             	3.20535592e+02
302             	3.20540027e+02
303             	3.20545838e+02
304             	3.20552785e+02
305             	3.20559609e+02
306             	3.20565788e+02
307             	3.20570849e+02
308             	3.20574307e+02
309             	3.20576208e+02
310             	3.20576953e+02
311             	3.20577024e+02
312             	3.20576658e+02
313             	3.20576238e+02
314             	3.20576460e+02
315             	3.20577538e+02
316             	3.20579742e+02
317             	3.20583224e+02
318             	3.20587959e+02
319             	3.20592864e+02
320             	3.20597903e+02
321             	3.20602868e+02
322             	3.20607032e+02
323             	3.20609394e+02
324             	3.20609861e+02
325             	3.20608367e+02
326             	3.20604935e+02
327             	3.20600208e+02
328             	3.20595863e+02
329             	3.20591762e+02
330             	3.20587948e+02
331             	3.20585060e+02
332             	3.20583313e+02
333             	3.20582444e+02
334             	3.20582436e+02
335             	3.20582724e+02
336             	3.20583411e+02
337             	3.20584583e+02
338             	3.20586026e+02
339             	3.20587623e+02
340             	3.20589317e+02
341             	3.20591219e+02
342             	3.20592915e+02
343             	3.20594581e+02
344             	3.20596329e+02
345             	3.20598719e+02
346             	3.20601505e+02
347             	3.20604426e+02
348             	3.20607958e+02
349             	3.20612091e+02
350             	3.20616497e+02
351             	3.20621053e+02
352             	3.20625572e+02
353             	3.20629676e+02
354             	3.20632758e+02
355             	3.20634944e+02
356             	3.20636177e+02
357             	3.20636279e+02
358             	3.20635385e+02
359             	3.20633745e+02
360             	3.20631880e+02
361             	3.20629719e+02
362             	3.20628079e+02
363             	3.20626885e+02
364             	3.20626052e+02
365             	3.20625445e+02
366             	3.20624659e+02
367             	3.20623530e+02
368             	3.20622269e+02
369             	3.20620737e+02
370             	3.20619101e+02
371             	3.20617662e+02
372             	3.20616263e+02
373             	3.20615313e+02
374             	3.20615077e+02
375             	3.20615583e+02
376             	3.20616892e+02
377             	3.20618809e+02
378             	3.20621042e+02
379             	3.20623642e+02
380             	3.20626091e+02
381             	3.20627939e+02
382             	3.20629260e+02
383             	3.20630007e+02
384             	3.20630341e+02
385             	3.20630355e+02
386             	3.20630164e+02
387             	3.20629885e+02
388             	3.20629740e+02
389             	3.20629776e+02
390             	3.20629883e+02
391             	3.20630138e+02
392             	3.20630431e+02
393             	3.20630760e+02
394             	3.20631035e+02
395             	3.20631226e+02
396             	3.20631518e+02
397             	3.20631801e+02
398             	3.20631949e+02
399             	3.20632025e+02
400             	3.20632096e+02
401             	3.20632163e+02
402             	3.20632202e+02
403             	3.20632125e+02
404             	3.20631926e+02
405             	3.20631759e+02
406             	3.20631621e+02
407             	3.20631570e+02
408             	3.20631671e+02
409             	3.20631937e+02
410             	3.20632307e+02
411             	3.20632767e+02
412             	3.20633281e+02
413             	3.20633669e+02
414             	3.20634016e+02
415             	3.20634309e+02
416             	3.20634647e+02
417             	3.20634961e+02
418             	3.20635233e+02
419             	3.20635543e+02
420             	3.20635915e+02
421             	3.20636275e+02
422             	3.20636641e+02
423             	3.20637008e+02
424             	3.20637351e+02
425             	3.20637595e+02
426             	3.20637661e+02
427             	3.20637630e+02
428             	3.20637504e+02
429             	3.20637267e+02
430             	3.20636942e+02
431             	3.20636567e+02
432             	3.20636201e+02
433             	3.20635938e+02
434             	3.20635747e+02
435             	3.20635672e+02
436             	3.20635713e+02
437             	3.20635886e+02
438             	3.20636186e+02
439             	3.20636583e+02
440             	3.20637045e+02
441             	3.20637480e+02
442             	3.20637889e+02
443             	3.20638213e+02
444             	3.20638394e+02
445             	3.20638480e+02
446             	3.20638450e+02
447             	3.20638301e+02
448             	3.20638071e+02
449             	3.20637818e+02
450             	3.20637566e+02
451             	3.20637331e+02
452             	3.20637163e+02
453             	3.20637074e+02
454             	3.20637053e+02
455             	3.20637096e+02
456             	3.20637161e+02
457             	3.20637248e+02
458             	3.20637354e+02
459             	3.20637476e+02
460             	3.20637601e+02
461             	3.20637723e+02
462             	3.20637848e+02
463             	3.20637992e+02
464             	3.20638188e+02
465             	3.20638422e+02
466             	3.20638685e+02
467             	3.20638912e+02
468             	3.20639127e+02
469             	3.20639340e+02
470             	3.20639523e+02
471             	3.20639665e+02
472             	3.20639715e+02
473             	3.20639661e+02
474             	3.20639526e+02
475             	3.20639367e+02
476             	3.20639223e+02
477             	3.20639102e+02
478             	3.20639058e+02
479             	3.20639101e+02
480             	3.20639247e+02
481             	3.20639456e+02
482             	3.20639697e+02
483             	3.20639941e+02
484             	3.20640142e+02
485             	3.20640273e+02
486             	3.20640322e+02
487             	3.20640277e+02
488             	3.20640134e+02
489             	3.20639936e+02
490             	3.20639769e+02
491             	3.20639608e+02
492             	3.20639472e+02
493             	3.20639378e+02
494             	3.20639324e+02
495             	3.20639326e+02
496             	3.20639371e+02
497             	3.20639440e+02
498             	3.20639520e+02
499             	3.20639604e+02
500             	3.20639704e+02
501             	3.20639817e+02
502             	3.20639930e+02
503             	3.20640046e+02
504             	3.20640157e+02
505             	3.20640256e+02
506             	3.20640330e+02
507             	3.20640380e+02
508             	3.20640433e+02
509             	3.20640515e+02
510             	3.20640623e+02
511             	3.20640737e+02
512             	3.20640845e+02
513             	3.20640952e+02
514             	3.20641037e+02
515             	3.20641068e+02
516             	3.20641067e+02
517             	3.20641026e+02
518             	3.20640973e+02
519             	3.20640951e+02
520             	3.20640974e+02
521             	3.20641041e+02
522             	3.20641161e+02
523             	3.20641308e+02
524             	3.20641434e+02
525             	3.20641540e+02
526             	3.20641622e+02
527             	3.20641659e+02
528             	3.20641641e+02
529             	3.20641588e+02
530             	3.20641535e+02
531             	3.20641507e+02
532             	3.20641502e+02
533             	3.20641514e+02
534             	3.20641573e+02
535             	3.20641663e+02
536             	3.20641758e+02
537             	3.20641820e+02
538             	3.20641861e+02
539             	3.20641892e+02
540             	3.20641916e+02
541             	3.20641930e+02
542             	3.20641951e+02
543             	3.20641980e+02
544             	3.20642023e+02
545             	3.20642087e+02
546             	3.20642170e+02
547             	3.20642258e+02
548             	3.20642335e+02
549             	3.20642397e+02
550             	3.20642446e+02
551             	3.20642480e+02
552             	3.20642491e+02
553             	3.20642507e+02
554             	3.20642539e+02
555             	3.20642579e+02
556             	3.20642633e+02
557             	3.20642698e+02
558             	3.20642770e+02
559             	3.20642826e+02
560             	3.20642874e+02
561             	3.20642917e+02
562             	3.20642945e+02
563             	3.20642954e+02
564             	3.20642955e+02
565             	3.20642966e+02
566             	3.20642986e+02
567             	3.20643014e+02
568             	3.20643058e+02
569             	3.20643120e+02
570             	3.20643192e+02
571             	3.20643258e+02
572             	3.20643298e+02
573             	3.20643315e+02
574             	3.20643342e+02
575             	3.20643359e+02
576             	3.20643362e+02
577             	3.20643363e+02
578             	3.20643374e+02
579             	3.20643393e+02
580             	3.20643434e+02
581             	3.20643489e+02
582             	3.20643526e+02
583             	3.20643553e+02
584             	3.20643578e+02
585             	3.20643581e+02
586             	3.20643562e+02
587             	3.20643528e+02
588             	3.20643483e+02
589             	3.20643428e+02
590             	3.20643366e+02
591             	3.20643299e+02
592             	3.20643231e+02
593             	3.20643167e+02
594             	3.20643122e+02
595             	3.20643112e+02
596             	3.20643130e+02
597             	3.20643169e+02
598             	3.20643233e+02
599             	3.20643318e+02
600             	3.20643413e+02
601             	3.20643511e+02
602             	3.20643596e+02
603             	3.20643662e+02
604             	3.20643710e+02
605             	3.20643736e+02
606             	3.20643746e+02
607             	3.20643745e+02
608             	3.20643748e+02
609             	3.20643756e+02
610             	3.20643770e+02
611             	3.20643787e+02
612             	3.20643810e+02
613             	3.20643837e+02
614             	3.20643857e+02
615             	3.20643866e+02
616             	3.20643860e+02
617             	3.20643844e+02
618             	3.20643816e+02
619             	3.20643772e+02
620             	3.20643721e+02
621             	3.20643688e+02
