# Region        : cellZone component_2
# Cells         : 118
# Volume        : 1.99480856e-01
# Time          	volAverage(T)
1               	3.08641041e+02
2               	3.17054018e+02
3               	3.23588690e+02
4               	3.29023143e+02
5               	3.34583486e+02
6               	3.40495896e+02
7               	3.46321885e+02
8               	3.51838158e+02
9               	3.57175166e+02
10              	3.62434152e+02
11              	3.67624675e+02
12              	3.72513499e+02
13              	3.77195853e+02
14              	3.81817670e+02
15              	3.86325156e+02
16              	3.90790501e+02
17              	3.95241343e+02
18              	3.99610384e+02
19              	4.03751209e+02
20              	4.07719392e+02
21              	4.11533309e+02
22              	4.15159069e+02
23              	4.18567629e+02
24              	4.21769745e+02
25              	4.24815140e+02
26              	4.27767979e+02
27              	4.30606937e+02
28              	4.33409931e+02
29              	4.36197888e+02
30              	4.39140956e+02
31              	4.42193355e+02
32              	4.44641601e+02
33              	4.46645029e+02
34              	4.48672418e+02
35              	4.50869792e+02
36              	4.52885571e+02
37              	4.54723724e+02
38              	4.56525248e+02
39              	4.58359601e+02
40              	4.60200169e+02
41              	4.61983905e+02
42              	4.63706379e+02
43              	4.65614791e+02
44              	4.67469533e+02
45              	4.69495344e+02
46              	4.71350595e+02
47              	4.73122740e+02
48              	4.74603328e+02
49              	4.75986016e+02
50              	4.77191284e+02
51              	4.78285305e+02
52              	4.79312191e+02
53              	4.80275926e+02
54              	4.81172253e+02
55              	4.82034392e+02
56              	4.82859541e+02
57              	4.83903921e+02
58              	4.84793977e+02
59              	4.85747395e+02
60              	4.86624116e+02
61              	4.87508802e+02
62              	4.88279533e+02
63              	4.88935817e+02
64              	4.89448704e+02
65              	4.89844224e+02
66              	4.90200200e+02
67              	4.90592138e+02
68              	4.90988489e+02
69              	4.91263174e+02
70              	4.91678104e+02
71              	4.92276982e+02
72              	4.93011266e+02
73              	4.93907455e+02
74              	4.94790112e+02
75              	4.95725714e+02
76              	4.96530682e+02
77              	4.97139680e+02
78              	4.97756846e+02
79              	4.98420626e+02
80              	4.99007079e+02
81              	4.99569322e+02
82              	5.00031183e+02
83              	5.00264749e+02
84              	5.00453161e+02
85              	5.00593048e+02
86              	5.00851598e+02
87              	5.01226413e+02
88              	5.01736936e+02
89              	5.02339220e+02
90              	5.02970785e+02
91              	5.03591231e+02
92              	5.04166230e+02
93              	5.04681935e+02
94              	5.05162800e+02
95              	5.05633293e+02
96              	5.06115373e+02
97              	5.06626304e+02
98              	5.07166422e+02
99              	5.07682708e+02
100             	5.08194373e+02
101             	5.08678740e+02
102             	5.09113185e+02
103             	5.09481600e+02
104             	5.09816480e+02
105             	5.10129629e+02
106             	5.10429555e+02
107             	5.10720581e+02
108             	5.10971560e+02
109             	5.11136063e+02
110             	5.11234380e+02
111             	5.11381439e+02
112             	5.11522740e+02
113             	5.11598779e+02
114             	5.11709984e+02
115             	5.11894289e+02
116             	5.12163589e+02
117             	5.12465277e+02
118             	5.12748022e+02
119             	5.13035509e+02
120             	5.13405090e+02
121             	5.13777900e+02
122             	5.14181122e+02
123             	5.14353147e+02
124             	5.14617924e+02
125             	5.14935287e+02
126             	5.15233106e+02
127             	5.15498820e+02
128             	5.15752282e+02
129             	5.16021205e+02
130             	5.16285308e+02
131             	5.16537593e+02
132             	5.16742427e+02
133             	5.16912425e+02
134             	5.16979127e+02
135             	5.17069430e+02
136             	5.17175434e+02
137             	5.17246239e+02
138             	5.17343683e+02
139             	5.17460152e+02
140             	5.17601221e+02
141             	5.17765288e+02
142             	5.17927751e+02
143             	5.18051761e+02
144             	5.18149439e+02
145             	5.18277057e+02
146             	5.18425881e+02
147             	5.18553519e+02
148             	5.18652226e+02
149             	5.18737066e+02
150             	5.18820196e+02
151             	5.18904962e+02
152             	5.18983659e+02
153             	5.19052573e+02
154             	5.19118099e+02
155             	5.19178771e+02
156             	5.19222154e+02
157             	5.19269574e+02
158             	5.19365336e+02
159             	5.19367214e+02
160             	5.19392289e+02
161             	5.19471490e+02
162             	5.19581489e+02
163             	5.19619927e+02
164             	5.19628444e+02
165             	5.19661295e+02
166             	5.19731995e+02
167             	5.19808882e+02
168             	5.19871854e+02
169             	5.19930370e+02
170             	5.19990531e+02
171             	5.20049826e+02
172             	5.20115638e+02
173             	5.20189338e+02
174             	5.20199713e+02
175             	5.20202863e+02
176             	5.20234273e+02
177             	5.20271403e+02
178             	5.20321747e+02
179             	5.20257044e+02
180             	5.20246254e+02
181             	5.20273820e+02
182             	5.20289646e+02
183             	5.20320586e+02
184             	5.20331676e+02
185             	5.20333798e+02
186             	5.20346210e+02
187             	5.20369401e+02
188             	5.20427772e+02
189             	5.20484282e+02
190             	5.20517436e+02
191             	5.20543703e+02
192             	5.20583076e+02
193             	5.20623310e+02
194             	5.20661325e+02
195             	5.20694414e+02
196             	5.20736100e+02
197             	5.20788186e+02
198             	5.20742834e+02
199             	5.20728825e+02
200             	5.20750524e+02
201             	5.20746362e+02
202             	5.20747016e+02
203             	5.20764995e+02
204             	5.20828894e+02
205             	5.20898873e+02
206             	5.20971719e+02
207             	5.21052514e+02
208             	5.21147705e+02
209             	5.21258340e+02
210             	5.21398446e+02
211             	5.21521514e+02
212             	5.21623635e+02
213             	5.21708407e+02
214             	5.21798500e+02
215             	5.21894929e+02
216             	5.21904148e+02
217             	5.21881007e+02
218             	5.21881150e+02
219             	5.21895372e+02
220             	5.21895640e+02
221             	5.21871738e+02
222             	5.21851859e+02
223             	5.21848016e+02
224             	5.21852272e+02
225             	5.21862945e+02
226             	5.21876942e+02
227             	5.21893031e+02
228             	5.21911590e+02
229             	5.21933417e+02
230             	5.21955608e+02
231             	5.21989868e+02
232             	5.21988571e+02
233             	5.21963761e+02
234             	5.21940136e+02
235             	5.21922205e+02
236             	5.21915099e+02
237             	5.21901179e+02
238             	5.21875852e+02
239             	5.21861444e+02
240             	5.21825735e+02
241             	5.21787805e+02
242             	5.21785958e+02
243             	5.21804156e+02
244             	5.21828254e+02
245             	5.21858082e+02
246             	5.21890994e+02
247             	5.21931686e+02
248             	5.21982351e+02
249             	5.22044015e+02
250             	5.22114260e+02
251             	5.22128944e+02
252             	5.22118953e+02
253             	5.22102541e+02
254             	5.22095999e+02
255             	5.22126266e+02
256             	5.22116483e+02
257             	5.22121652e+02
258             	5.22133227e+02
259             	5.22144414e+02
260             	5.22160486e+02
261             	5.22192434e+02
262             	5.22215350e+02
263             	5.22253198e+02
264             	5.22282159e+02
265             	5.22315368e+02
266             	5.22349757e+02
267             	5.22387026e+02
268             	5.22414012e+02
269             	5.22434516e+02
270             	5.22453504e+02
271             	5.22471888e+02
272             	5.22493717e+02
273             	5.22519412e+02
274             	5.22544790e+02
275             	5.22561736e+02
276             	5.22551868e+02
277             	5.22544736e+02
278             	5.22565548e+02
279             	5.22598960e+02
280             	5.22635493e+02
281             	5.22675564e+02
282             	5.22725367e+02
283             	5.22779210e+02
284             	5.22838981e+02
285             	5.22898872e+02
286             	5.22936316e+02
287             	5.22956615e+02
288             	5.22962016e+02
289             	5.22953368e+02
290             	5.22958274e+02
291             	5.22957323e+02
292             	5.22943951e+02
293             	5.22922280e+02
294             	5.22900761e+02
295             	5.22883855e+02
296             	5.22873845e+02
297             	5.22854654e+02
298             	5.22818721e+02
299             	5.22800435e+02
300             	5.22794049e+02
301             	5.22817331e+02
302             	5.22849456e+02
303             	5.22873373e+02
304             	5.22887083e+02
305             	5.22900181e+02
306             	5.22910272e+02
307             	5.22903219e+02
308             	5.22912156e+02
309             	5.22894458e+02
310             	5.22862697e+02
311             	5.22831828e+02
312             	5.22806581e+02
313             	5.22771383e+02
314             	5.22750558e+02
315             	5.22751000e+02
316             	5.22766041e+02
317             	5.22788250e+02
318             	5.22785229e+02
319             	5.22782083e+02
320             	5.22792907e+02
321             	5.22807856e+02
322             	5.22817867e+02
323             	5.22830988e+02
324             	5.22845508e+02
325             	5.22859062e+02
326             	5.22871353e+02
327             	5.22880300e+02
328             	5.22887845e+02
329             	5.22893253e+02
330             	5.22905989e+02
331             	5.22925038e+02
332             	5.22943264e+02
333             	5.22958803e+02
334             	5.22989466e+02
335             	5.22999003e+02
336             	5.23005329e+02
337             	5.23005665e+02
338             	5.23007736e+02
339             	5.23008461e+02
340             	5.23003779e+02
341             	5.22995613e+02
342             	5.22985027e+02
343             	5.22969660e+02
344             	5.22960616e+02
345             	5.22962480e+02
346             	5.22967504e+02
347             	5.22989338e+02
348             	5.22978982e+02
349             	5.22961031e+02
350             	5.22950048e+02
351             	5.22962525e+02
352             	5.22978662e+02
353             	5.22983494e+02
354             	5.22984424e+02
355             	5.22981314e+02
356             	5.22980126e+02
357             	5.22983450e+02
358             	5.22988685e+02
359             	5.22995298e+02
360             	5.23007088e+02
361             	5.23027437e+02
362             	5.23039017e+02
363             	5.23048904e+02
364             	5.23057701e+02
365             	5.23064590e+02
366             	5.23071025e+02
367             	5.23082548e+02
368             	5.23092886e+02
369             	5.23103419e+02
370             	5.23110549e+02
371             	5.23103083e+02
372             	5.23093257e+02
373             	5.23085848e+02
374             	5.23081204e+02
375             	5.23080286e+02
376             	5.23085781e+02
377             	5.23093533e+02
378             	5.23101904e+02
379             	5.23110303e+02
380             	5.23118871e+02
381             	5.23128455e+02
382             	5.23140582e+02
383             	5.23145679e+02
384             	5.23149405e+02
385             	5.23153784e+02
386             	5.23153916e+02
387             	5.23151434e+02
388             	5.23146864e+02
389             	5.23139603e+02
390             	5.23135909e+02
391             	5.23130939e+02
392             	5.23126849e+02
393             	5.23125774e+02
394             	5.23125447e+02
395             	5.23125347e+02
396             	5.23125434e+02
397             	5.23126870e+02
398             	5.23130199e+02
399             	5.23134715e+02
400             	5.23134862e+02
401             	5.23133304e+02
402             	5.23131818e+02
403             	5.23131281e+02
404             	5.23128621e+02
405             	5.23124417e+02
406             	5.23121846e+02
407             	5.23119306e+02
408             	5.23119353e+02
409             	5.23120069e+02
410             	5.23119943e+02
411             	5.23120019e+02
412             	5.23122862e+02
413             	5.23123711e+02
414             	5.23124497e+02
415             	5.23125515e+02
416             	5.23127716e+02
417             	5.23130735e+02
418             	5.23134289e+02
419             	5.23139186e+02
420             	5.23144957e+02
421             	5.23152245e+02
422             	5.23157463e+02
423             	5.23165296e+02
424             	5.23173507e+02
425             	5.23180838e+02
426             	5.23187625e+02
427             	5.23192749e+02
428             	5.23197625e+02
429             	5.23200165e+02
430             	5.23202514e+02
431             	5.23204235e+02
432             	5.23204069e+02
433             	5.23202266e+02
434             	5.23201465e+02
435             	5.23199116e+02
436             	5.23199435e+02
437             	5.23200528e+02
438             	5.23200857e+02
439             	5.23200716e+02
440             	5.23200641e+02
441             	5.23199986e+02
442             	5.23198551e+02
443             	5.23197111e+02
444             	5.23197126e+02
445             	5.23195988e+02
446             	5.23194212e+02
447             	5.23192860e+02
448             	5.23191677e+02
449             	5.23190655e+02
450             	5.23189068e+02
451             	5.23188959e+02
452             	5.23189030e+02
453             	5.23188414e+02
454             	5.23187479e+02
455             	5.23187012e+02
456             	5.23187443e+02
457             	5.23187367e+02
458             	5.23187990e+02
459             	5.23188894e+02
460             	5.23188962e+02
461             	5.23189390e+02
462             	5.23190478e+02
463             	5.23191914e+02
464             	5.23192590e+02
465             	5.23195055e+02
466             	5.23197915e+02
467             	5.23200535e+02
468             	5.23202727e+02
469             	5.23204858e+02
470             	5.23206857e+02
471             	5.23209816e+02
472             	5.23210986e+02
473             	5.23211417e+02
474             	5.23211700e+02
475             	5.23212107e+02
476             	5.23212141e+02
477             	5.23211118e+02
478             	5.23211155e+02
479             	5.23211041e+02
480             	5.23211032e+02
481             	5.23211128e+02
482             	5.23211197e+02
483             	5.23211019e+02
484             	5.23210512e+02
485             	5.23209709e+02
486             	5.23209023e+02
487             	5.23208231e+02
488             	5.23207389e+02
489             	5.23206987e+02
490             	5.23206630e+02
491             	5.23206427e+02
492             	5.23206135e+02
493             	5.23206034e+02
494             	5.23206466e+02
495             	5.23206961e+02
496             	5.23207120e+02
497             	5.23207181e+02
498             	5.23207418e+02
499             	5.23207557e+02
500             	5.23208113e+02
501             	5.23208222e+02
502             	5.23208336e+02
503             	5.23208854e+02
504             	5.23209429e+02
505             	5.23209954e+02
506             	5.23210509e+02
507             	5.23211357e+02
508             	5.23212712e+02
509             	5.23214187e+02
510             	5.23215295e+02
511             	5.23216377e+02
512             	5.23217545e+02
513             	5.23218800e+02
514             	5.23219044e+02
515             	5.23219285e+02
516             	5.23219380e+02
517             	5.23219479e+02
518             	5.23219375e+02
519             	5.23219368e+02
520             	5.23219386e+02
521             	5.23219901e+02
522             	5.23220385e+02
523             	5.23220629e+02
524             	5.23220622e+02
525             	5.23220635e+02
526             	5.23220545e+02
527             	5.23220610e+02
528             	5.23219926e+02
529             	5.23219314e+02
530             	5.23219005e+02
531             	5.23218917e+02
532             	5.23218719e+02
533             	5.23218519e+02
534             	5.23218306e+02
535             	5.23218520e+02
536             	5.23218638e+02
537             	5.23218991e+02
538             	5.23218828e+02
539             	5.23218581e+02
540             	5.23218794e+02
541             	5.23219296e+02
542             	5.23219238e+02
543             	5.23219274e+02
544             	5.23219442e+02
545             	5.23219792e+02
546             	5.23219990e+02
547             	5.23220752e+02
548             	5.23221483e+02
549             	5.23222158e+02
550             	5.23222666e+02
551             	5.23223249e+02
552             	5.23223651e+02
553             	5.23224104e+02
554             	5.23224289e+02
555             	5.23224356e+02
556             	5.23224419e+02
557             	5.23224590e+02
558             	5.23224346e+02
559             	5.23224114e+02
560             	5.23223701e+02
561             	5.23223519e+02
562             	5.23223726e+02
563             	5.23224291e+02
564             	5.23224680e+02
565             	5.23224901e+02
566             	5.23225310e+02
567             	5.23225333e+02
568             	5.23225122e+02
569             	5.23225067e+02
570             	5.23225010e+02
571             	5.23225080e+02
572             	5.23225252e+02
573             	5.23225329e+02
574             	5.23225225e+02
575             	5.23225194e+02
576             	5.23225058e+02
577             	5.23224891e+02
578             	5.23224793e+02
579             	5.23224556e+02
580             	5.23224367e+02
581             	5.23224290e+02
582             	5.23224165e+02
583             	5.23224280e+02
584             	5.23224230e+02
585             	5.23224295e+02
586             	5.23224360e+02
587             	5.23224607e+02
588             	5.23224797e+02
589             	5.23225252e+02
590             	5.23225654e+02
591             	5.23226098e+02
592             	5.23226309e+02
593             	5.23226588e+02
594             	5.23226637e+02
595             	5.23226661e+02
596             	5.23226571e+02
597             	5.23226384e+02
598             	5.23226015e+02
599             	5.23225680e+02
600             	5.23225293e+02
601             	5.23225099e+02
602             	5.23224846e+02
603             	5.23224629e+02
604             	5.23224693e+02
605             	5.23224973e+02
606             	5.23225161e+02
607             	5.23225449e+02
608             	5.23225695e+02
609             	5.23225941e+02
610             	5.23226028e+02
611             	5.23226055e+02
612             	5.23226190e+02
613             	5.23226447e+02
614             	5.23226528e+02
615             	5.23226594e+02
616             	5.23226487e+02
617             	5.23226411e+02
618             	5.23226190e+02
619             	5.23226015e+02
620             	5.23225913e+02
621             	5.23225678e+02
