# Region        : cellZone component_1
# Cells         : 65
# Volume        : 9.41920471e-02
# Time          	volAverage(T)
1               	3.00576912e+02
2               	3.01142143e+02
3               	3.01648686e+02
4               	3.02132410e+02
5               	3.02596255e+02
6               	3.03061237e+02
7               	3.03503460e+02
8               	3.03954034e+02
9               	3.04376675e+02
10              	3.04787753e+02
11              	3.05198065e+02
12              	3.05584584e+02
13              	3.05957688e+02
14              	3.06314110e+02
15              	3.06656367e+02
16              	3.06994722e+02
17              	3.07321827e+02
18              	3.07650046e+02
19              	3.07977098e+02
20              	3.08294126e+02
21              	3.08601038e+02
22              	3.08898034e+02
23              	3.09209256e+02
24              	3.09519158e+02
25              	3.09842801e+02
26              	3.10172093e+02
27              	3.10496804e+02
28              	3.10803144e+02
29              	3.11098780e+02
30              	3.11378703e+02
31              	3.11649852e+02
32              	3.11911906e+02
33              	3.12168084e+02
34              	3.12410188e+02
35              	3.12654951e+02
36              	3.12895862e+02
37              	3.13132584e+02
38              	3.13355281e+02
39              	3.13578824e+02
40              	3.13815194e+02
41              	3.14020922e+02
42              	3.14231839e+02
43              	3.14437388e+02
44              	3.14641409e+02
45              	3.14836070e+02
46              	3.15044335e+02
47              	3.15251634e+02
48              	3.15445499e+02
49              	3.15625905e+02
50              	3.15807493e+02
51              	3.15997837e+02
52              	3.16178526e+02
53              	3.16352708e+02
54              	3.16536347e+02
55              	3.16714898e+02
56              	3.16897836e+02
57              	3.17080207e+02
58              	3.17260414e+02
59              	3.17441974e+02
60              	3.17623869e+02
61              	3.17804082e+02
62              	3.17984169e+02
63              	3.18157600e+02
64              	3.18310191e+02
65              	3.18463507e+02
66              	3.18613613e+02
67              	3.18757675e+02
68              	3.18887301e+02
69              	3.18991869e+02
70              	3.19087586e+02
71              	3.19188780e+02
72              	3.19294309e+02
73              	3.19407031e+02
74              	3.19518951e+02
75              	3.19627322e+02
76              	3.19743606e+02
77              	3.19858584e+02
78              	3.19980942e+02
79              	3.20111756e+02
80              	3.20237687e+02
81              	3.20375389e+02
82              	3.20522427e+02
83              	3.20669055e+02
84              	3.20807565e+02
85              	3.20952011e+02
86              	3.21093341e+02
87              	3.21224177e+02
88              	3.21354767e+02
89              	3.21480052e+02
90              	3.21606382e+02
91              	3.21706331e+02
92              	3.21793906e+02
93              	3.21890592e+02
94              	3.21984720e+02
95              	3.22084435e+02
96              	3.22180643e+02
97              	3.22282156e+02
98              	3.22389320e+02
99              	3.22494722e+02
100             	3.22592472e+02
101             	3.22696006e+02
102             	3.22796278e+02
103             	3.22891288e+02
104             	3.22985637e+02
105             	3.23082308e+02
106             	3.23178706e+02
107             	3.23270914e+02
108             	3.23356164e+02
109             	3.23439896e+02
110             	3.23523776e+02
111             	3.23591143e+02
112             	3.23658775e+02
113             	3.23715114e+02
114             	3.23772944e+02
115             	3.23831645e+02
116             	3.23891773e+02
117             	3.23955450e+02
118             	3.24019583e+02
119             	3.24088324e+02
120             	3.24159295e+02
121             	3.24232757e+02
122             	3.24311793e+02
123             	3.24381976e+02
124             	3.24462694e+02
125             	3.24542908e+02
126             	3.24619320e+02
127             	3.24700093e+02
128             	3.24776660e+02
129             	3.24850309e+02
130             	3.24920760e+02
131             	3.24988804e+02
132             	3.25055333e+02
133             	3.25112015e+02
134             	3.25173413e+02
135             	3.25230427e+02
136             	3.25282321e+02
137             	3.25342997e+02
138             	3.25402587e+02
139             	3.25462652e+02
140             	3.25517968e+02
141             	3.25575551e+02
142             	3.25639117e+02
143             	3.25705263e+02
144             	3.25773076e+02
145             	3.25834655e+02
146             	3.25895230e+02
147             	3.25954500e+02
148             	3.26011977e+02
149             	3.26067610e+02
150             	3.26119282e+02
151             	3.26167652e+02
152             	3.26214258e+02
153             	3.26252509e+02
154             	3.26291015e+02
155             	3.26331643e+02
156             	3.26373500e+02
157             	3.26414734e+02
158             	3.26456059e+02
159             	3.26498219e+02
160             	3.26539213e+02
161             	3.26581951e+02
162             	3.26628777e+02
163             	3.26660708e+02
164             	3.26706324e+02
165             	3.26745073e+02
166             	3.26781783e+02
167             	3.26818322e+02
168             	3.26850856e+02
169             	3.26878670e+02
170             	3.26900467e+02
171             	3.26929490e+02
172             	3.26957820e+02
173             	3.26984793e+02
174             	3.27010063e+02
175             	3.27034262e+02
176             	3.27059922e+02
177             	3.27086520e+02
178             	3.27115859e+02
179             	3.27150731e+02
180             	3.27174567e+02
181             	3.27206118e+02
182             	3.27238643e+02
183             	3.27273927e+02
184             	3.27310385e+02
185             	3.27345135e+02
186             	3.27378142e+02
187             	3.27406669e+02
188             	3.27427572e+02
189             	3.27453429e+02
190             	3.27480948e+02
191             	3.27507565e+02
192             	3.27531524e+02
193             	3.27557143e+02
194             	3.27583887e+02
195             	3.27611301e+02
196             	3.27640837e+02
197             	3.27668798e+02
198             	3.27696151e+02
199             	3.27725569e+02
200             	3.27757378e+02
201             	3.27790103e+02
202             	3.27819917e+02
203             	3.27849376e+02
204             	3.27877444e+02
205             	3.27905352e+02
206             	3.27934830e+02
207             	3.27956588e+02
208             	3.27977556e+02
209             	3.27998666e+02
210             	3.28017025e+02
211             	3.28033907e+02
212             	3.28052509e+02
213             	3.28070306e+02
214             	3.28086169e+02
215             	3.28101369e+02
216             	3.28116377e+02
217             	3.28131464e+02
218             	3.28144645e+02
219             	3.28155728e+02
220             	3.28167134e+02
221             	3.28179921e+02
222             	3.28191796e+02
223             	3.28206403e+02
224             	3.28220213e+02
225             	3.28235313e+02
226             	3.28251229e+02
227             	3.28266918e+02
228             	3.28282643e+02
229             	3.28298538e+02
230             	3.28316483e+02
231             	3.28334519e+02
232             	3.28352431e+02
233             	3.28375182e+02
234             	3.28392128e+02
235             	3.28408626e+02
236             	3.28425842e+02
237             	3.28442459e+02
238             	3.28458256e+02
239             	3.28472407e+02
240             	3.28483087e+02
241             	3.28495690e+02
242             	3.28502780e+02
243             	3.28513131e+02
244             	3.28524214e+02
245             	3.28534819e+02
246             	3.28545425e+02
247             	3.28556427e+02
248             	3.28567969e+02
249             	3.28580905e+02
250             	3.28590186e+02
251             	3.28598905e+02
252             	3.28607744e+02
253             	3.28616893e+02
254             	3.28626008e+02
255             	3.28636727e+02
256             	3.28646035e+02
257             	3.28654354e+02
258             	3.28663038e+02
259             	3.28671299e+02
260             	3.28679350e+02
261             	3.28684362e+02
262             	3.28688844e+02
263             	3.28692596e+02
264             	3.28696124e+02
265             	3.28698790e+02
266             	3.28701920e+02
267             	3.28708121e+02
268             	3.28713926e+02
269             	3.28718743e+02
270             	3.28723753e+02
271             	3.28728279e+02
272             	3.28733172e+02
273             	3.28738559e+02
274             	3.28744548e+02
275             	3.28751344e+02
276             	3.28759500e+02
277             	3.28766577e+02
278             	3.28773295e+02
279             	3.28780400e+02
280             	3.28787845e+02
281             	3.28794992e+02
282             	3.28801255e+02
283             	3.28806359e+02
284             	3.28810598e+02
285             	3.28816846e+02
286             	3.28824103e+02
287             	3.28831052e+02
288             	3.28837619e+02
289             	3.28845027e+02
290             	3.28856030e+02
291             	3.28869602e+02
292             	3.28876422e+02
293             	3.28882837e+02
294             	3.28890122e+02
295             	3.28897396e+02
296             	3.28902225e+02
297             	3.28900665e+02
298             	3.28904679e+02
299             	3.28909956e+02
300             	3.28916376e+02
301             	3.28918786e+02
302             	3.28920354e+02
303             	3.28924935e+02
304             	3.28927379e+02
305             	3.28929354e+02
306             	3.28931612e+02
307             	3.28934056e+02
308             	3.28936307e+02
309             	3.28939981e+02
310             	3.28943992e+02
311             	3.28947733e+02
312             	3.28951656e+02
313             	3.28955916e+02
314             	3.28960546e+02
315             	3.28965297e+02
316             	3.28968732e+02
317             	3.28971579e+02
318             	3.28974129e+02
319             	3.28975778e+02
320             	3.28979935e+02
321             	3.28982382e+02
322             	3.28984747e+02
323             	3.28987621e+02
324             	3.28990718e+02
325             	3.28993537e+02
326             	3.28995861e+02
327             	3.28993528e+02
328             	3.28994783e+02
329             	3.28996699e+02
330             	3.28997954e+02
331             	3.28998729e+02
332             	3.28999588e+02
333             	3.29001140e+02
334             	3.29002791e+02
335             	3.29005102e+02
336             	3.29008476e+02
337             	3.29012631e+02
338             	3.29016548e+02
339             	3.29020106e+02
340             	3.29023942e+02
341             	3.29028215e+02
342             	3.29032702e+02
343             	3.29036799e+02
344             	3.29040838e+02
345             	3.29044628e+02
346             	3.29048019e+02
347             	3.29052411e+02
348             	3.29055873e+02
349             	3.29058010e+02
350             	3.29058624e+02
351             	3.29059121e+02
352             	3.29059365e+02
353             	3.29061300e+02
354             	3.29063351e+02
355             	3.29064352e+02
356             	3.29064487e+02
357             	3.29064616e+02
358             	3.29066094e+02
359             	3.29066457e+02
360             	3.29066635e+02
361             	3.29067154e+02
362             	3.29067957e+02
363             	3.29068985e+02
364             	3.29070005e+02
365             	3.29071104e+02
366             	3.29072377e+02
367             	3.29073089e+02
368             	3.29074451e+02
369             	3.29077064e+02
370             	3.29078970e+02
371             	3.29081400e+02
372             	3.29083473e+02
373             	3.29084355e+02
374             	3.29084916e+02
375             	3.29085299e+02
376             	3.29085541e+02
377             	3.29085624e+02
378             	3.29085534e+02
379             	3.29085195e+02
380             	3.29084484e+02
381             	3.29082157e+02
382             	3.29081860e+02
383             	3.29082004e+02
384             	3.29081987e+02
385             	3.29082026e+02
386             	3.29082306e+02
387             	3.29083075e+02
388             	3.29084479e+02
389             	3.29086139e+02
390             	3.29088260e+02
391             	3.29091659e+02
392             	3.29094006e+02
393             	3.29096630e+02
394             	3.29099658e+02
395             	3.29102747e+02
396             	3.29105663e+02
397             	3.29108484e+02
398             	3.29111546e+02
399             	3.29114393e+02
400             	3.29116713e+02
401             	3.29119022e+02
402             	3.29121187e+02
403             	3.29122716e+02
404             	3.29124352e+02
405             	3.29125796e+02
406             	3.29126939e+02
407             	3.29127707e+02
408             	3.29129248e+02
409             	3.29130832e+02
410             	3.29132300e+02
411             	3.29133715e+02
412             	3.29135486e+02
413             	3.29137893e+02
414             	3.29140578e+02
415             	3.29141358e+02
416             	3.29141999e+02
417             	3.29142679e+02
418             	3.29143174e+02
419             	3.29143316e+02
420             	3.29144023e+02
421             	3.29144724e+02
422             	3.29145183e+02
423             	3.29145462e+02
424             	3.29145727e+02
425             	3.29146042e+02
426             	3.29146078e+02
427             	3.29146063e+02
428             	3.29146305e+02
429             	3.29146431e+02
430             	3.29146322e+02
431             	3.29146096e+02
432             	3.29145869e+02
433             	3.29145518e+02
434             	3.29145314e+02
435             	3.29145490e+02
436             	3.29146239e+02
437             	3.29147101e+02
438             	3.29148003e+02
439             	3.29149055e+02
440             	3.29150445e+02
441             	3.29152092e+02
442             	3.29153439e+02
443             	3.29154895e+02
444             	3.29156570e+02
445             	3.29158507e+02
446             	3.29160602e+02
447             	3.29162767e+02
448             	3.29165078e+02
449             	3.29167093e+02
450             	3.29169552e+02
451             	3.29171929e+02
452             	3.29174189e+02
453             	3.29176296e+02
454             	3.29178120e+02
455             	3.29179754e+02
456             	3.29181449e+02
457             	3.29182675e+02
458             	3.29184103e+02
459             	3.29184784e+02
460             	3.29185143e+02
461             	3.29185391e+02
462             	3.29185563e+02
463             	3.29185624e+02
464             	3.29185530e+02
465             	3.29185257e+02
466             	3.29184749e+02
467             	3.29184056e+02
468             	3.29183239e+02
469             	3.29182421e+02
470             	3.29181490e+02
471             	3.29180003e+02
472             	3.29178634e+02
473             	3.29176956e+02
474             	3.29175218e+02
475             	3.29173492e+02
476             	3.29171916e+02
477             	3.29170385e+02
478             	3.29168954e+02
479             	3.29167645e+02
480             	3.29166448e+02
481             	3.29165439e+02
482             	3.29164550e+02
483             	3.29163987e+02
484             	3.29163270e+02
485             	3.29163272e+02
486             	3.29163655e+02
487             	3.29164267e+02
488             	3.29165101e+02
489             	3.29166216e+02
490             	3.29167617e+02
491             	3.29169213e+02
492             	3.29171026e+02
493             	3.29172757e+02
494             	3.29175019e+02
495             	3.29177508e+02
496             	3.29179876e+02
497             	3.29182240e+02
498             	3.29184609e+02
499             	3.29186731e+02
500             	3.29189285e+02
501             	3.29191765e+02
502             	3.29194117e+02
503             	3.29196229e+02
504             	3.29198315e+02
505             	3.29200358e+02
506             	3.29201663e+02
507             	3.29202675e+02
508             	3.29203440e+02
509             	3.29204054e+02
510             	3.29204413e+02
511             	3.29204492e+02
512             	3.29204332e+02
513             	3.29203989e+02
514             	3.29203522e+02
515             	3.29202952e+02
516             	3.29202162e+02
517             	3.29201407e+02
518             	3.29199861e+02
519             	3.29198081e+02
520             	3.29196263e+02
521             	3.29194322e+02
522             	3.29192220e+02
523             	3.29189814e+02
524             	3.29187932e+02
525             	3.29186317e+02
526             	3.29184866e+02
527             	3.29183621e+02
528             	3.29182685e+02
529             	3.29181992e+02
530             	3.29181554e+02
531             	3.29181373e+02
532             	3.29181502e+02
533             	3.29181846e+02
534             	3.29182327e+02
535             	3.29182953e+02
536             	3.29183521e+02
537             	3.29184557e+02
538             	3.29186008e+02
539             	3.29187646e+02
540             	3.29189344e+02
541             	3.29191002e+02
542             	3.29193376e+02
543             	3.29195986e+02
544             	3.29198728e+02
545             	3.29201267e+02
546             	3.29203817e+02
547             	3.29206457e+02
548             	3.29209031e+02
549             	3.29211506e+02
550             	3.29213760e+02
551             	3.29215639e+02
552             	3.29217650e+02
553             	3.29219549e+02
554             	3.29221259e+02
555             	3.29222741e+02
556             	3.29224024e+02
557             	3.29225130e+02
558             	3.29226028e+02
559             	3.29227790e+02
560             	3.29227872e+02
561             	3.29227420e+02
562             	3.29226843e+02
563             	3.29226136e+02
564             	3.29225261e+02
565             	3.29224255e+02
566             	3.29222775e+02
567             	3.29220365e+02
568             	3.29217944e+02
569             	3.29216224e+02
570             	3.29214528e+02
571             	3.29212562e+02
572             	3.29210888e+02
573             	3.29209104e+02
574             	3.29207468e+02
575             	3.29207068e+02
576             	3.29206309e+02
577             	3.29205743e+02
578             	3.29205521e+02
579             	3.29206631e+02
580             	3.29206873e+02
581             	3.29207077e+02
582             	3.29206811e+02
583             	3.29206874e+02
584             	3.29207612e+02
585             	3.29208262e+02
586             	3.29208679e+02
587             	3.29208946e+02
588             	3.29209147e+02
589             	3.29209288e+02
590             	3.29209329e+02
591             	3.29209491e+02
592             	3.29209826e+02
593             	3.29210082e+02
594             	3.29210269e+02
595             	3.29210397e+02
596             	3.29210233e+02
597             	3.29210188e+02
598             	3.29209916e+02
599             	3.29209562e+02
600             	3.29209710e+02
601             	3.29209851e+02
602             	3.29210192e+02
603             	3.29210227e+02
604             	3.29210223e+02
605             	3.29210365e+02
606             	3.29210670e+02
607             	3.29211044e+02
608             	3.29211409e+02
609             	3.29211763e+02
610             	3.29212152e+02
611             	3.29212547e+02
612             	3.29212964e+02
613             	3.29213411e+02
614             	3.29213777e+02
615             	3.29214018e+02
616             	3.29213931e+02
617             	3.29213496e+02
618             	3.29212802e+02
619             	3.29211828e+02
620             	3.29210022e+02
621             	3.29208101e+02
