# Region        : cellZone component_1
# Cells         : 118
# Volume        : 2.00695942e-01
# Time          	volAverage(T)
1               	3.01672152e+02
2               	3.03303701e+02
3               	3.04701612e+02
4               	3.05971987e+02
5               	3.07209140e+02
6               	3.08433765e+02
7               	3.09643063e+02
8               	3.10846597e+02
9               	3.12039308e+02
10              	3.13231576e+02
11              	3.14411059e+02
12              	3.15572861e+02
13              	3.16719668e+02
14              	3.17823319e+02
15              	3.18908381e+02
16              	3.19977435e+02
17              	3.21008058e+02
18              	3.22046074e+02
19              	3.23083038e+02
20              	3.24108662e+02
21              	3.25113917e+02
22              	3.26095906e+02
23              	3.27058625e+02
24              	3.28001437e+02
25              	3.28921583e+02
26              	3.29817242e+02
27              	3.30678421e+02
28              	3.31514864e+02
29              	3.32319140e+02
30              	3.33105995e+02
31              	3.33881244e+02
32              	3.34667760e+02
33              	3.35413682e+02
34              	3.36122069e+02
35              	3.36744956e+02
36              	3.37313154e+02
37              	3.37915776e+02
38              	3.38551660e+02
39              	3.39193238e+02
40              	3.39818543e+02
41              	3.40426141e+02
42              	3.41014218e+02
43              	3.41580842e+02
44              	3.42127513e+02
45              	3.42656180e+02
46              	3.43184750e+02
47              	3.43720351e+02
48              	3.44267384e+02
49              	3.44821495e+02
50              	3.45372990e+02
51              	3.45912782e+02
52              	3.46433519e+02
53              	3.46933378e+02
54              	3.47411016e+02
55              	3.47866170e+02
56              	3.48303064e+02
57              	3.48730191e+02
58              	3.49149803e+02
59              	3.49563500e+02
60              	3.49976858e+02
61              	3.50383790e+02
62              	3.50787846e+02
63              	3.51183064e+02
64              	3.51558948e+02
65              	3.51914697e+02
66              	3.52250533e+02
67              	3.52576259e+02
68              	3.52896120e+02
69              	3.53209959e+02
70              	3.53519017e+02
71              	3.53828886e+02
72              	3.54133893e+02
73              	3.54431662e+02
74              	3.54714312e+02
75              	3.54989701e+02
76              	3.55244105e+02
77              	3.55472382e+02
78              	3.55682859e+02
79              	3.55885227e+02
80              	3.56081902e+02
81              	3.56275477e+02
82              	3.56461891e+02
83              	3.56642604e+02
84              	3.56818566e+02
85              	3.56993608e+02
86              	3.57168025e+02
87              	3.57337577e+02
88              	3.57504362e+02
89              	3.57664952e+02
90              	3.57823511e+02
91              	3.57979892e+02
92              	3.58127055e+02
93              	3.58270935e+02
94              	3.58404781e+02
95              	3.58529580e+02
96              	3.58642680e+02
97              	3.58742950e+02
98              	3.58831871e+02
99              	3.58911339e+02
100             	3.58986074e+02
101             	3.59059029e+02
102             	3.59130002e+02
103             	3.59202181e+02
104             	3.59277211e+02
105             	3.59354213e+02
106             	3.59431610e+02
107             	3.59510510e+02
108             	3.59588317e+02
109             	3.59663578e+02
110             	3.59734742e+02
111             	3.59801477e+02
112             	3.59864734e+02
113             	3.59923906e+02
114             	3.59976851e+02
115             	3.60026675e+02
116             	3.60071324e+02
117             	3.60112118e+02
118             	3.60148781e+02
119             	3.60181615e+02
120             	3.60210402e+02
121             	3.60235893e+02
122             	3.60258458e+02
123             	3.60277851e+02
124             	3.60295302e+02
125             	3.60310493e+02
126             	3.60326704e+02
127             	3.60343426e+02
128             	3.60359626e+02
129             	3.60377510e+02
130             	3.60397442e+02
131             	3.60418089e+02
132             	3.60436773e+02
133             	3.60451905e+02
134             	3.60466385e+02
135             	3.60478580e+02
136             	3.60487661e+02
137             	3.60493517e+02
138             	3.60496344e+02
139             	3.60496726e+02
140             	3.60495366e+02
141             	3.60492474e+02
142             	3.60488195e+02
143             	3.60483162e+02
144             	3.60477716e+02
145             	3.60472867e+02
146             	3.60469817e+02
147             	3.60466781e+02
148             	3.60464848e+02
149             	3.60464184e+02
150             	3.60462525e+02
151             	3.60457097e+02
152             	3.60451626e+02
153             	3.60444473e+02
154             	3.60435286e+02
155             	3.60423804e+02
156             	3.60409795e+02
157             	3.60394013e+02
158             	3.60377016e+02
159             	3.60359115e+02
160             	3.60340658e+02
161             	3.60322036e+02
162             	3.60303201e+02
163             	3.60284296e+02
164             	3.60265414e+02
165             	3.60247002e+02
166             	3.60229092e+02
167             	3.60210558e+02
168             	3.60191729e+02
169             	3.60172500e+02
170             	3.60153039e+02
171             	3.60133253e+02
172             	3.60113330e+02
173             	3.60092490e+02
174             	3.60070798e+02
175             	3.60048695e+02
176             	3.60025747e+02
177             	3.60002128e+02
178             	3.59977847e+02
179             	3.59953005e+02
180             	3.59927699e+02
181             	3.59902316e+02
182             	3.59876871e+02
183             	3.59851328e+02
184             	3.59825629e+02
185             	3.59800561e+02
186             	3.59775090e+02
187             	3.59749560e+02
188             	3.59724180e+02
189             	3.59698975e+02
190             	3.59673968e+02
191             	3.59649130e+02
192             	3.59624401e+02
193             	3.59599628e+02
194             	3.59574638e+02
195             	3.59549294e+02
196             	3.59523731e+02
197             	3.59497894e+02
198             	3.59471847e+02
199             	3.59445686e+02
200             	3.59419182e+02
201             	3.59392703e+02
202             	3.59366227e+02
203             	3.59339684e+02
204             	3.59313084e+02
205             	3.59286419e+02
206             	3.59259670e+02
207             	3.59232857e+02
208             	3.59206005e+02
209             	3.59179149e+02
210             	3.59152301e+02
211             	3.59125485e+02
212             	3.59098735e+02
213             	3.59072151e+02
214             	3.59045984e+02
215             	3.59019883e+02
216             	3.58993944e+02
217             	3.58968161e+02
218             	3.58942451e+02
219             	3.58916700e+02
220             	3.58890995e+02
221             	3.58865246e+02
222             	3.58839433e+02
223             	3.58813644e+02
224             	3.58787914e+02
225             	3.58762272e+02
226             	3.58736828e+02
227             	3.58711646e+02
228             	3.58686701e+02
229             	3.58661953e+02
230             	3.58637379e+02
231             	3.58612969e+02
232             	3.58588701e+02
233             	3.58564653e+02
234             	3.58540725e+02
235             	3.58516979e+02
236             	3.58493469e+02
237             	3.58470204e+02
238             	3.58446986e+02
239             	3.58424012e+02
240             	3.58401200e+02
241             	3.58378484e+02
242             	3.58355858e+02
243             	3.58333302e+02
244             	3.58310807e+02
245             	3.58288405e+02
246             	3.58266111e+02
247             	3.58243937e+02
248             	3.58221917e+02
249             	3.58200104e+02
250             	3.58178520e+02
251             	3.58157173e+02
252             	3.58136072e+02
253             	3.58115220e+02
254             	3.58094601e+02
255             	3.58074200e+02
256             	3.58053991e+02
257             	3.58033846e+02
258             	3.58013886e+02
259             	3.57994054e+02
260             	3.57974321e+02
261             	3.57954710e+02
262             	3.57935248e+02
263             	3.57915980e+02
264             	3.57896847e+02
265             	3.57877882e+02
266             	3.57859119e+02
267             	3.57840566e+02
268             	3.57822204e+02
269             	3.57804044e+02
270             	3.57786078e+02
271             	3.57768294e+02
272             	3.57750671e+02
273             	3.57733218e+02
274             	3.57715925e+02
275             	3.57698778e+02
276             	3.57681771e+02
277             	3.57664925e+02
278             	3.57648255e+02
279             	3.57631773e+02
280             	3.57615499e+02
281             	3.57599437e+02
282             	3.57583598e+02
283             	3.57567981e+02
284             	3.57552581e+02
285             	3.57537402e+02
286             	3.57522434e+02
287             	3.57507660e+02
288             	3.57493071e+02
289             	3.57478599e+02
290             	3.57464295e+02
291             	3.57450155e+02
292             	3.57436171e+02
293             	3.57422329e+02
294             	3.57408648e+02
295             	3.57395132e+02
296             	3.57381786e+02
297             	3.57368617e+02
298             	3.57355610e+02
299             	3.57342775e+02
300             	3.57330101e+02
301             	3.57317591e+02
302             	3.57305242e+02
303             	3.57293051e+02
304             	3.57281018e+02
305             	3.57269128e+02
306             	3.57257409e+02
307             	3.57245857e+02
308             	3.57234457e+02
309             	3.57223212e+02
310             	3.57212124e+02
311             	3.57201192e+02
312             	3.57190417e+02
313             	3.57179791e+02
314             	3.57169304e+02
315             	3.57158948e+02
316             	3.57148731e+02
317             	3.57138641e+02
318             	3.57128681e+02
319             	3.57118850e+02
320             	3.57109168e+02
321             	3.57099618e+02
322             	3.57090206e+02
323             	3.57080941e+02
324             	3.57071833e+02
325             	3.57062875e+02
326             	3.57054069e+02
327             	3.57045409e+02
328             	3.57036894e+02
329             	3.57028520e+02
330             	3.57020292e+02
331             	3.57012195e+02
332             	3.57004236e+02
333             	3.56996395e+02
334             	3.56988682e+02
335             	3.56981094e+02
336             	3.56973633e+02
337             	3.56966289e+02
338             	3.56959072e+02
339             	3.56951985e+02
340             	3.56945030e+02
341             	3.56938197e+02
342             	3.56931499e+02
343             	3.56924932e+02
344             	3.56918502e+02
345             	3.56912199e+02
346             	3.56906018e+02
347             	3.56899962e+02
348             	3.56894032e+02
349             	3.56888218e+02
350             	3.56882526e+02
351             	3.56876955e+02
352             	3.56871504e+02
353             	3.56866227e+02
354             	3.56861069e+02
355             	3.56856052e+02
356             	3.56851192e+02
357             	3.56846481e+02
358             	3.56841914e+02
359             	3.56837481e+02
360             	3.56833182e+02
361             	3.56829010e+02
362             	3.56824961e+02
363             	3.56821038e+02
364             	3.56817226e+02
365             	3.56813434e+02
366             	3.56809736e+02
367             	3.56806094e+02
368             	3.56802485e+02
369             	3.56798904e+02
370             	3.56795369e+02
371             	3.56791896e+02
372             	3.56788496e+02
373             	3.56785213e+02
374             	3.56782021e+02
375             	3.56778942e+02
376             	3.56775988e+02
377             	3.56773167e+02
378             	3.56770473e+02
379             	3.56767884e+02
380             	3.56765425e+02
381             	3.56763075e+02
382             	3.56760822e+02
383             	3.56758652e+02
384             	3.56756563e+02
385             	3.56754529e+02
386             	3.56752619e+02
387             	3.56750795e+02
388             	3.56749073e+02
389             	3.56747465e+02
390             	3.56745977e+02
391             	3.56744626e+02
392             	3.56743405e+02
393             	3.56742339e+02
394             	3.56741392e+02
395             	3.56740568e+02
396             	3.56739858e+02
397             	3.56739225e+02
398             	3.56738679e+02
399             	3.56738233e+02
400             	3.56737893e+02
401             	3.56737646e+02
402             	3.56737485e+02
403             	3.56737404e+02
404             	3.56737399e+02
405             	3.56737413e+02
406             	3.56737480e+02
407             	3.56737580e+02
408             	3.56737701e+02
409             	3.56737847e+02
410             	3.56738036e+02
411             	3.56738307e+02
412             	3.56738669e+02
413             	3.56739138e+02
414             	3.56739712e+02
415             	3.56740392e+02
416             	3.56741169e+02
417             	3.56742058e+02
418             	3.56743021e+02
419             	3.56744056e+02
420             	3.56745161e+02
421             	3.56746326e+02
422             	3.56747551e+02
423             	3.56748826e+02
424             	3.56750167e+02
425             	3.56751542e+02
426             	3.56753000e+02
427             	3.56754535e+02
428             	3.56756147e+02
429             	3.56757846e+02
430             	3.56759615e+02
431             	3.56761457e+02
432             	3.56763371e+02
433             	3.56765361e+02
434             	3.56767418e+02
435             	3.56769541e+02
436             	3.56771728e+02
437             	3.56773969e+02
438             	3.56776274e+02
439             	3.56778645e+02
440             	3.56781086e+02
441             	3.56783688e+02
442             	3.56786358e+02
443             	3.56789124e+02
444             	3.56792003e+02
445             	3.56794933e+02
446             	3.56797962e+02
447             	3.56801066e+02
448             	3.56804224e+02
449             	3.56807371e+02
450             	3.56810561e+02
451             	3.56813777e+02
452             	3.56817012e+02
453             	3.56820277e+02
454             	3.56823652e+02
455             	3.56827074e+02
456             	3.56830571e+02
457             	3.56834144e+02
458             	3.56837811e+02
459             	3.56841542e+02
460             	3.56845346e+02
461             	3.56849085e+02
462             	3.56852878e+02
463             	3.56856683e+02
464             	3.56860472e+02
465             	3.56864274e+02
466             	3.56868067e+02
467             	3.56871879e+02
468             	3.56875829e+02
469             	3.56879949e+02
470             	3.56884156e+02
471             	3.56888501e+02
472             	3.56893020e+02
473             	3.56897666e+02
474             	3.56902441e+02
475             	3.56907306e+02
476             	3.56912241e+02
477             	3.56917135e+02
478             	3.56922036e+02
479             	3.56926930e+02
480             	3.56931750e+02
481             	3.56936511e+02
482             	3.56941237e+02
483             	3.56945961e+02
484             	3.56950713e+02
485             	3.56955485e+02
486             	3.56960287e+02
487             	3.56965153e+02
488             	3.56970103e+02
489             	3.56975166e+02
490             	3.56980293e+02
491             	3.56985502e+02
492             	3.56990802e+02
493             	3.56996188e+02
494             	3.57001611e+02
495             	3.57007060e+02
496             	3.57012528e+02
497             	3.57017992e+02
498             	3.57023503e+02
499             	3.57029059e+02
500             	3.57034617e+02
501             	3.57040213e+02
502             	3.57045839e+02
503             	3.57051591e+02
504             	3.57057403e+02
505             	3.57063348e+02
506             	3.57069396e+02
507             	3.57075548e+02
508             	3.57081800e+02
509             	3.57088115e+02
510             	3.57094475e+02
511             	3.57100896e+02
512             	3.57107291e+02
513             	3.57113721e+02
514             	3.57120129e+02
515             	3.57126402e+02
516             	3.57132621e+02
517             	3.57138819e+02
518             	3.57144941e+02
519             	3.57151011e+02
520             	3.57157060e+02
521             	3.57163194e+02
522             	3.57169540e+02
523             	3.57176040e+02
524             	3.57182728e+02
525             	3.57189613e+02
526             	3.57196673e+02
527             	3.57203817e+02
528             	3.57211006e+02
529             	3.57218106e+02
530             	3.57225139e+02
531             	3.57232058e+02
532             	3.57238867e+02
533             	3.57245663e+02
534             	3.57252492e+02
535             	3.57259360e+02
536             	3.57266331e+02
537             	3.57273439e+02
538             	3.57280687e+02
539             	3.57288009e+02
540             	3.57295318e+02
541             	3.57302531e+02
542             	3.57309705e+02
543             	3.57316750e+02
544             	3.57323655e+02
545             	3.57330539e+02
546             	3.57337450e+02
547             	3.57344435e+02
548             	3.57351533e+02
549             	3.57358803e+02
550             	3.57366257e+02
551             	3.57373842e+02
552             	3.57381518e+02
553             	3.57389215e+02
554             	3.57396921e+02
555             	3.57404577e+02
556             	3.57412187e+02
557             	3.57419786e+02
558             	3.57427459e+02
559             	3.57435176e+02
560             	3.57442974e+02
561             	3.57450885e+02
562             	3.57458920e+02
563             	3.57467002e+02
564             	3.57475196e+02
565             	3.57483273e+02
566             	3.57491378e+02
567             	3.57499436e+02
568             	3.57507394e+02
569             	3.57515257e+02
570             	3.57523082e+02
571             	3.57530956e+02
572             	3.57538829e+02
573             	3.57546768e+02
574             	3.57554838e+02
575             	3.57563050e+02
576             	3.57571376e+02
577             	3.57579753e+02
578             	3.57588197e+02
579             	3.57596658e+02
580             	3.57605065e+02
581             	3.57613365e+02
582             	3.57621653e+02
583             	3.57629863e+02
584             	3.57638059e+02
585             	3.57646297e+02
586             	3.57654599e+02
587             	3.57663017e+02
588             	3.57671555e+02
589             	3.57680231e+02
590             	3.57689031e+02
591             	3.57697947e+02
592             	3.57706952e+02
593             	3.57715996e+02
594             	3.57725038e+02
595             	3.57734047e+02
596             	3.57743021e+02
597             	3.57751875e+02
598             	3.57760690e+02
599             	3.57769436e+02
600             	3.57778110e+02
601             	3.57786793e+02
602             	3.57795534e+02
603             	3.57804290e+02
604             	3.57813089e+02
605             	3.57821988e+02
606             	3.57831028e+02
607             	3.57840220e+02
608             	3.57849531e+02
609             	3.57858843e+02
610             	3.57868201e+02
611             	3.57877557e+02
612             	3.57886886e+02
613             	3.57896176e+02
614             	3.57905438e+02
615             	3.57914685e+02
616             	3.57923933e+02
617             	3.57933185e+02
618             	3.57942457e+02
619             	3.57951736e+02
620             	3.57961033e+02
621             	3.57970337e+02
