# Region        : cellZone component_1
# Cells         : 171
# Volume        : 3.26123001e-01
# Time          	volAverage(T)
1               	3.00724137e+02
2               	3.01433507e+02
3               	3.02046639e+02
4               	3.02600876e+02
5               	3.03139756e+02
6               	3.03676062e+02
7               	3.04208817e+02
8               	3.04738140e+02
9               	3.05269536e+02
10              	3.05786318e+02
11              	3.06279219e+02
12              	3.06751259e+02
13              	3.07208545e+02
14              	3.07667520e+02
15              	3.08125825e+02
16              	3.08577884e+02
17              	3.09018282e+02
18              	3.09441843e+02
19              	3.09865139e+02
20              	3.10282028e+02
21              	3.10685006e+02
22              	3.11063551e+02
23              	3.11416881e+02
24              	3.11776311e+02
25              	3.12133955e+02
26              	3.12482461e+02
27              	3.12822189e+02
28              	3.13155022e+02
29              	3.13481649e+02
30              	3.13779112e+02
31              	3.14091596e+02
32              	3.14368681e+02
33              	3.14571910e+02
34              	3.14737251e+02
35              	3.14872665e+02
36              	3.15035797e+02
37              	3.15237167e+02
38              	3.15453576e+02
39              	3.15659314e+02
40              	3.15851731e+02
41              	3.16044000e+02
42              	3.16240629e+02
43              	3.16442193e+02
44              	3.16656671e+02
45              	3.16794987e+02
46              	3.16849353e+02
47              	3.16899412e+02
48              	3.16985671e+02
49              	3.17106229e+02
50              	3.17242713e+02
51              	3.17367435e+02
52              	3.17477217e+02
53              	3.17600920e+02
54              	3.17737947e+02
55              	3.17876144e+02
56              	3.17997589e+02
57              	3.18097954e+02
58              	3.18188542e+02
59              	3.18282828e+02
60              	3.18405573e+02
61              	3.18524512e+02
62              	3.18622568e+02
63              	3.18715172e+02
64              	3.18811568e+02
65              	3.18952681e+02
66              	3.19024092e+02
67              	3.19067407e+02
68              	3.19059777e+02
69              	3.19072236e+02
70              	3.19101893e+02
71              	3.19143160e+02
72              	3.19207073e+02
73              	3.19275164e+02
74              	3.19340976e+02
75              	3.19411614e+02
76              	3.19502104e+02
77              	3.19594756e+02
78              	3.19675050e+02
79              	3.19705087e+02
80              	3.19729113e+02
81              	3.19756379e+02
82              	3.19793296e+02
83              	3.19844979e+02
84              	3.19905600e+02
85              	3.19966732e+02
86              	3.20030419e+02
87              	3.20092813e+02
88              	3.20150334e+02
89              	3.20201921e+02
90              	3.20256560e+02
91              	3.20310614e+02
92              	3.20365875e+02
93              	3.20414857e+02
94              	3.20460800e+02
95              	3.20508955e+02
96              	3.20551008e+02
97              	3.20582461e+02
98              	3.20615188e+02
99              	3.20652646e+02
100             	3.20687775e+02
101             	3.20720148e+02
102             	3.20753454e+02
103             	3.20790913e+02
104             	3.20848170e+02
105             	3.20901157e+02
106             	3.20940587e+02
107             	3.20971833e+02
108             	3.20994926e+02
109             	3.21027404e+02
110             	3.21062888e+02
111             	3.21094427e+02
112             	3.21121359e+02
113             	3.21149937e+02
114             	3.21177774e+02
115             	3.21204914e+02
116             	3.21232369e+02
117             	3.21262403e+02
118             	3.21292769e+02
119             	3.21321114e+02
120             	3.21349487e+02
121             	3.21376511e+02
122             	3.21403521e+02
123             	3.21429261e+02
124             	3.21452270e+02
125             	3.21475399e+02
126             	3.21497793e+02
127             	3.21518921e+02
128             	3.21536928e+02
129             	3.21554818e+02
130             	3.21571544e+02
131             	3.21585067e+02
132             	3.21598300e+02
133             	3.21606475e+02
134             	3.21616571e+02
135             	3.21628633e+02
136             	3.21641984e+02
137             	3.21657834e+02
138             	3.21675688e+02
139             	3.21694322e+02
140             	3.21715124e+02
141             	3.21736485e+02
142             	3.21757131e+02
143             	3.21775476e+02
144             	3.21792591e+02
145             	3.21802118e+02
146             	3.21811899e+02
147             	3.21815204e+02
148             	3.21821498e+02
149             	3.21829594e+02
150             	3.21840455e+02
151             	3.21854468e+02
152             	3.21870169e+02
153             	3.21883270e+02
154             	3.21896069e+02
155             	3.21908518e+02
156             	3.21918261e+02
157             	3.21929003e+02
158             	3.21934384e+02
159             	3.21940427e+02
160             	3.21945868e+02
161             	3.21954258e+02
162             	3.21961226e+02
163             	3.21975599e+02
164             	3.21989409e+02
165             	3.22000502e+02
166             	3.22009263e+02
167             	3.22014467e+02
168             	3.22017552e+02
169             	3.22023251e+02
170             	3.22032452e+02
171             	3.22041856e+02
172             	3.22042715e+02
173             	3.22044888e+02
174             	3.22044753e+02
175             	3.22049544e+02
176             	3.22055515e+02
177             	3.22062655e+02
178             	3.22071283e+02
179             	3.22080414e+02
180             	3.22086041e+02
181             	3.22093617e+02
182             	3.22101836e+02
183             	3.22105962e+02
184             	3.22108787e+02
185             	3.22114619e+02
186             	3.22122049e+02
187             	3.22125420e+02
188             	3.22131424e+02
189             	3.22138734e+02
190             	3.22148068e+02
191             	3.22159236e+02
192             	3.22172172e+02
193             	3.22185457e+02
194             	3.22198453e+02
195             	3.22207965e+02
196             	3.22214285e+02
197             	3.22222842e+02
198             	3.22227678e+02
199             	3.22234520e+02
200             	3.22241214e+02
201             	3.22242614e+02
202             	3.22246776e+02
203             	3.22249654e+02
204             	3.22253376e+02
205             	3.22257384e+02
206             	3.22259898e+02
207             	3.22262354e+02
208             	3.22265442e+02
209             	3.22270501e+02
210             	3.22274442e+02
211             	3.22275972e+02
212             	3.22276345e+02
213             	3.22275573e+02
214             	3.22275173e+02
215             	3.22275294e+02
216             	3.22276233e+02
217             	3.22278335e+02
218             	3.22281204e+02
219             	3.22284451e+02
220             	3.22288304e+02
221             	3.22292990e+02
222             	3.22298330e+02
223             	3.22303649e+02
224             	3.22308497e+02
225             	3.22313232e+02
226             	3.22318194e+02
227             	3.22322719e+02
228             	3.22326840e+02
229             	3.22331177e+02
230             	3.22335334e+02
231             	3.22339376e+02
232             	3.22342670e+02
233             	3.22346147e+02
234             	3.22350440e+02
235             	3.22355161e+02
236             	3.22354903e+02
237             	3.22356863e+02
238             	3.22360537e+02
239             	3.22361874e+02
240             	3.22363362e+02
241             	3.22365363e+02
242             	3.22368269e+02
243             	3.22371547e+02
244             	3.22375807e+02
245             	3.22379880e+02
246             	3.22382805e+02
247             	3.22384738e+02
248             	3.22386263e+02
249             	3.22387822e+02
250             	3.22389823e+02
251             	3.22392310e+02
252             	3.22395122e+02
253             	3.22397895e+02
254             	3.22400762e+02
255             	3.22403839e+02
256             	3.22406698e+02
257             	3.22409461e+02
258             	3.22412242e+02
259             	3.22415138e+02
260             	3.22417191e+02
261             	3.22420775e+02
262             	3.22420300e+02
263             	3.22421403e+02
264             	3.22423786e+02
265             	3.22427885e+02
266             	3.22431252e+02
267             	3.22434080e+02
268             	3.22436890e+02
269             	3.22439685e+02
270             	3.22442318e+02
271             	3.22444505e+02
272             	3.22446165e+02
273             	3.22447329e+02
274             	3.22448190e+02
275             	3.22448800e+02
276             	3.22448850e+02
277             	3.22449317e+02
278             	3.22449981e+02
279             	3.22450556e+02
280             	3.22450948e+02
281             	3.22450939e+02
282             	3.22452305e+02
283             	3.22450196e+02
284             	3.22449693e+02
285             	3.22450889e+02
286             	3.22453497e+02
287             	3.22456031e+02
288             	3.22457702e+02
289             	3.22459005e+02
290             	3.22460867e+02
291             	3.22462420e+02
292             	3.22464786e+02
293             	3.22467325e+02
294             	3.22469546e+02
295             	3.22471812e+02
296             	3.22474191e+02
297             	3.22476561e+02
298             	3.22478875e+02
299             	3.22481115e+02
300             	3.22483703e+02
301             	3.22486467e+02
302             	3.22489588e+02
303             	3.22492869e+02
304             	3.22496067e+02
305             	3.22499086e+02
306             	3.22502006e+02
307             	3.22504797e+02
308             	3.22507192e+02
309             	3.22509439e+02
310             	3.22511451e+02
311             	3.22513353e+02
312             	3.22514893e+02
313             	3.22515931e+02
314             	3.22517010e+02
315             	3.22518034e+02
316             	3.22518420e+02
317             	3.22518417e+02
318             	3.22518362e+02
319             	3.22518322e+02
320             	3.22518286e+02
321             	3.22518149e+02
322             	3.22517884e+02
323             	3.22517735e+02
324             	3.22517685e+02
325             	3.22517740e+02
326             	3.22518043e+02
327             	3.22518627e+02
328             	3.22519497e+02
329             	3.22520680e+02
330             	3.22522123e+02
331             	3.22523613e+02
332             	3.22525494e+02
333             	3.22527715e+02
334             	3.22530151e+02
335             	3.22532738e+02
336             	3.22535940e+02
337             	3.22538094e+02
338             	3.22539929e+02
339             	3.22541791e+02
340             	3.22543842e+02
341             	3.22546218e+02
342             	3.22548389e+02
343             	3.22550109e+02
344             	3.22551500e+02
345             	3.22552757e+02
346             	3.22553948e+02
347             	3.22555125e+02
348             	3.22556294e+02
349             	3.22557285e+02
350             	3.22558765e+02
351             	3.22560160e+02
352             	3.22561728e+02
353             	3.22563088e+02
354             	3.22564026e+02
355             	3.22564923e+02
356             	3.22565180e+02
357             	3.22565180e+02
358             	3.22565141e+02
359             	3.22565232e+02
360             	3.22565391e+02
361             	3.22565470e+02
362             	3.22565431e+02
363             	3.22565239e+02
364             	3.22564995e+02
365             	3.22564771e+02
366             	3.22564640e+02
367             	3.22564645e+02
368             	3.22564820e+02
369             	3.22565191e+02
370             	3.22565599e+02
371             	3.22566259e+02
372             	3.22567063e+02
373             	3.22568068e+02
374             	3.22569252e+02
375             	3.22570563e+02
376             	3.22571921e+02
377             	3.22573353e+02
378             	3.22574937e+02
379             	3.22576594e+02
380             	3.22578274e+02
381             	3.22579985e+02
382             	3.22581740e+02
383             	3.22583542e+02
384             	3.22585336e+02
385             	3.22587086e+02
386             	3.22588727e+02
387             	3.22590406e+02
388             	3.22592009e+02
389             	3.22593525e+02
390             	3.22595017e+02
391             	3.22596553e+02
392             	3.22598135e+02
393             	3.22599794e+02
394             	3.22601561e+02
395             	3.22603366e+02
396             	3.22605080e+02
397             	3.22606783e+02
398             	3.22608517e+02
399             	3.22610248e+02
400             	3.22611872e+02
401             	3.22613320e+02
402             	3.22614626e+02
403             	3.22615844e+02
404             	3.22616953e+02
405             	3.22617912e+02
406             	3.22618685e+02
407             	3.22619340e+02
408             	3.22619843e+02
409             	3.22620194e+02
410             	3.22620452e+02
411             	3.22620662e+02
412             	3.22620808e+02
413             	3.22620786e+02
414             	3.22620847e+02
415             	3.22620933e+02
416             	3.22620939e+02
417             	3.22620779e+02
418             	3.22620673e+02
419             	3.22620588e+02
420             	3.22620441e+02
421             	3.22620064e+02
422             	3.22619750e+02
423             	3.22619534e+02
424             	3.22619163e+02
425             	3.22619183e+02
426             	3.22618641e+02
427             	3.22617920e+02
428             	3.22617365e+02
429             	3.22616879e+02
430             	3.22616455e+02
431             	3.22616373e+02
432             	3.22616307e+02
433             	3.22615930e+02
434             	3.22615997e+02
435             	3.22616366e+02
436             	3.22616649e+02
437             	3.22616873e+02
438             	3.22617329e+02
439             	3.22618293e+02
440             	3.22619203e+02
441             	3.22620206e+02
442             	3.22621387e+02
443             	3.22622687e+02
444             	3.22623875e+02
445             	3.22624973e+02
446             	3.22625982e+02
447             	3.22626907e+02
448             	3.22627805e+02
449             	3.22628719e+02
450             	3.22629631e+02
451             	3.22630511e+02
452             	3.22631328e+02
453             	3.22632097e+02
454             	3.22632862e+02
455             	3.22633738e+02
456             	3.22634522e+02
457             	3.22635202e+02
458             	3.22635863e+02
459             	3.22636572e+02
460             	3.22637351e+02
461             	3.22638201e+02
462             	3.22639111e+02
463             	3.22640078e+02
464             	3.22641091e+02
465             	3.22641957e+02
466             	3.22642932e+02
467             	3.22643956e+02
468             	3.22644910e+02
469             	3.22645754e+02
470             	3.22646459e+02
471             	3.22647017e+02
472             	3.22647434e+02
473             	3.22647718e+02
474             	3.22647764e+02
475             	3.22647582e+02
476             	3.22647708e+02
477             	3.22647184e+02
478             	3.22646364e+02
479             	3.22645256e+02
480             	3.22644594e+02
481             	3.22644287e+02
482             	3.22643926e+02
483             	3.22643406e+02
484             	3.22642862e+02
485             	3.22642497e+02
486             	3.22642420e+02
487             	3.22642615e+02
488             	3.22643045e+02
489             	3.22643527e+02
490             	3.22643921e+02
491             	3.22644524e+02
492             	3.22645257e+02
493             	3.22646005e+02
494             	3.22646604e+02
495             	3.22647466e+02
496             	3.22648474e+02
497             	3.22649502e+02
498             	3.22650367e+02
499             	3.22651872e+02
500             	3.22652354e+02
501             	3.22652571e+02
502             	3.22653048e+02
503             	3.22653541e+02
504             	3.22654159e+02
505             	3.22654895e+02
506             	3.22655649e+02
507             	3.22655972e+02
508             	3.22656507e+02
509             	3.22657139e+02
510             	3.22657580e+02
511             	3.22657742e+02
512             	3.22657901e+02
513             	3.22658154e+02
514             	3.22658445e+02
515             	3.22658760e+02
516             	3.22658965e+02
517             	3.22659362e+02
518             	3.22659035e+02
519             	3.22658321e+02
520             	3.22657547e+02
521             	3.22656961e+02
522             	3.22656532e+02
523             	3.22655960e+02
524             	3.22655154e+02
525             	3.22654297e+02
526             	3.22653528e+02
527             	3.22652874e+02
528             	3.22652321e+02
529             	3.22651895e+02
530             	3.22651633e+02
531             	3.22651489e+02
532             	3.22651427e+02
533             	3.22651434e+02
534             	3.22651550e+02
535             	3.22651847e+02
536             	3.22652160e+02
537             	3.22652448e+02
538             	3.22652763e+02
539             	3.22653147e+02
540             	3.22653976e+02
541             	3.22654353e+02
542             	3.22654605e+02
543             	3.22655029e+02
544             	3.22655663e+02
545             	3.22656364e+02
546             	3.22656995e+02
547             	3.22657664e+02
548             	3.22658321e+02
549             	3.22658925e+02
550             	3.22659476e+02
551             	3.22659974e+02
552             	3.22660491e+02
553             	3.22661008e+02
554             	3.22661476e+02
555             	3.22661909e+02
556             	3.22662264e+02
557             	3.22662415e+02
558             	3.22662416e+02
559             	3.22662317e+02
560             	3.22662142e+02
561             	3.22661824e+02
562             	3.22661337e+02
563             	3.22660724e+02
564             	3.22660067e+02
565             	3.22659385e+02
566             	3.22658836e+02
567             	3.22658334e+02
568             	3.22657580e+02
569             	3.22657008e+02
570             	3.22656539e+02
571             	3.22656113e+02
572             	3.22655709e+02
573             	3.22655347e+02
574             	3.22655042e+02
575             	3.22654791e+02
576             	3.22654574e+02
577             	3.22654421e+02
578             	3.22654722e+02
579             	3.22654667e+02
580             	3.22654485e+02
581             	3.22654488e+02
582             	3.22654811e+02
583             	3.22655310e+02
584             	3.22655896e+02
585             	3.22656546e+02
586             	3.22657959e+02
587             	3.22655093e+02
588             	3.22653835e+02
589             	3.22654290e+02
590             	3.22655464e+02
591             	3.22656522e+02
592             	3.22657178e+02
593             	3.22657707e+02
594             	3.22658087e+02
595             	3.22658213e+02
596             	3.22658502e+02
597             	3.22658311e+02
598             	3.22657741e+02
599             	3.22657052e+02
600             	3.22656388e+02
601             	3.22655752e+02
602             	3.22655124e+02
603             	3.22654479e+02
604             	3.22653848e+02
605             	3.22653384e+02
606             	3.22652851e+02
607             	3.22652832e+02
608             	3.22653089e+02
609             	3.22653402e+02
610             	3.22653670e+02
611             	3.22653901e+02
612             	3.22654317e+02
613             	3.22654459e+02
614             	3.22654660e+02
615             	3.22654817e+02
616             	3.22654823e+02
617             	3.22655048e+02
618             	3.22655189e+02
619             	3.22655110e+02
620             	3.22654852e+02
621             	3.22654484e+02
