# Region        : cellZone pcb
# Cells         : 464
# Volume        : 8.12799706e-01
# Time          	volAverage(T)
1               	3.00009899e+02
2               	3.00029179e+02
3               	3.00056489e+02
4               	3.00090507e+02
5               	3.00129722e+02
6               	3.00174331e+02
7               	3.00224487e+02
8               	3.00280022e+02
9               	3.00340540e+02
10              	3.00406241e+02
11              	3.00476610e+02
12              	3.00551409e+02
13              	3.00630795e+02
14              	3.00713080e+02
15              	3.00797278e+02
16              	3.00885237e+02
17              	3.00976103e+02
18              	3.01069204e+02
19              	3.01165207e+02
20              	3.01264083e+02
21              	3.01365151e+02
22              	3.01469511e+02
23              	3.01575958e+02
24              	3.01682381e+02
25              	3.01789520e+02
26              	3.01898049e+02
27              	3.02008817e+02
28              	3.02121757e+02
29              	3.02236712e+02
30              	3.02355272e+02
31              	3.02476206e+02
32              	3.02598009e+02
33              	3.02720569e+02
34              	3.02845145e+02
35              	3.02969410e+02
36              	3.03092944e+02
37              	3.03215531e+02
38              	3.03336970e+02
39              	3.03456555e+02
40              	3.03574381e+02
41              	3.03690301e+02
42              	3.03805098e+02
43              	3.03919269e+02
44              	3.04035924e+02
45              	3.04150461e+02
46              	3.04266116e+02
47              	3.04383952e+02
48              	3.04501947e+02
49              	3.04620953e+02
50              	3.04741245e+02
51              	3.04860551e+02
52              	3.04977224e+02
53              	3.05095180e+02
54              	3.05214592e+02
55              	3.05329474e+02
56              	3.05443676e+02
57              	3.05558334e+02
58              	3.05674896e+02
59              	3.05787321e+02
60              	3.05897208e+02
61              	3.06005290e+02
62              	3.06116060e+02
63              	3.06226118e+02
64              	3.06332515e+02
65              	3.06434064e+02
66              	3.06536217e+02
67              	3.06636522e+02
68              	3.06735607e+02
69              	3.06834527e+02
70              	3.06934321e+02
71              	3.07035994e+02
72              	3.07138790e+02
73              	3.07238742e+02
74              	3.07338036e+02
75              	3.07433824e+02
76              	3.07527956e+02
77              	3.07618854e+02
78              	3.07708343e+02
79              	3.07790630e+02
80              	3.07869917e+02
81              	3.07947381e+02
82              	3.08024159e+02
83              	3.08100228e+02
84              	3.08175568e+02
85              	3.08252785e+02
86              	3.08333190e+02
87              	3.08412888e+02
88              	3.08491347e+02
89              	3.08568453e+02
90              	3.08640214e+02
91              	3.08708706e+02
92              	3.08776246e+02
93              	3.08846189e+02
94              	3.08915046e+02
95              	3.08983547e+02
96              	3.09054354e+02
97              	3.09123758e+02
98              	3.09187784e+02
99              	3.09252539e+02
100             	3.09313773e+02
101             	3.09377775e+02
102             	3.09439568e+02
103             	3.09500029e+02
104             	3.09556874e+02
105             	3.09616120e+02
106             	3.09676915e+02
107             	3.09737952e+02
108             	3.09797427e+02
109             	3.09853003e+02
110             	3.09905638e+02
111             	3.09950979e+02
112             	3.09993072e+02
113             	3.10032731e+02
114             	3.10072300e+02
115             	3.10112627e+02
116             	3.10153403e+02
117             	3.10194950e+02
118             	3.10239405e+02
119             	3.10286712e+02
120             	3.10336982e+02
121             	3.10383288e+02
122             	3.10426915e+02
123             	3.10470110e+02
124             	3.10512563e+02
125             	3.10551464e+02
126             	3.10586680e+02
127             	3.10619976e+02
128             	3.10652577e+02
129             	3.10686744e+02
130             	3.10720053e+02
131             	3.10752818e+02
132             	3.10786184e+02
133             	3.10821901e+02
134             	3.10853406e+02
135             	3.10885026e+02
136             	3.10914911e+02
137             	3.10943517e+02
138             	3.10970443e+02
139             	3.10998326e+02
140             	3.11031090e+02
141             	3.11064141e+02
142             	3.11095638e+02
143             	3.11126313e+02
144             	3.11158163e+02
145             	3.11187498e+02
146             	3.11211707e+02
147             	3.11234687e+02
148             	3.11255525e+02
149             	3.11274328e+02
150             	3.11291795e+02
151             	3.11309432e+02
152             	3.11328177e+02
153             	3.11346732e+02
154             	3.11366072e+02
155             	3.11386039e+02
156             	3.11408507e+02
157             	3.11428663e+02
158             	3.11447618e+02
159             	3.11467663e+02
160             	3.11486827e+02
161             	3.11506937e+02
162             	3.11526166e+02
163             	3.11544587e+02
164             	3.11562315e+02
165             	3.11580995e+02
166             	3.11600082e+02
167             	3.11617915e+02
168             	3.11633960e+02
169             	3.11648246e+02
170             	3.11660849e+02
171             	3.11673215e+02
172             	3.11685631e+02
173             	3.11697389e+02
174             	3.11709103e+02
175             	3.11720588e+02
176             	3.11732896e+02
177             	3.11745488e+02
178             	3.11758258e+02
179             	3.11770865e+02
180             	3.11783566e+02
181             	3.11795692e+02
182             	3.11807309e+02
183             	3.11819514e+02
184             	3.11831589e+02
185             	3.11842598e+02
186             	3.11852160e+02
187             	3.11861066e+02
188             	3.11870260e+02
189             	3.11879311e+02
190             	3.11887673e+02
191             	3.11895910e+02
192             	3.11903520e+02
193             	3.11910673e+02
194             	3.11917402e+02
195             	3.11924336e+02
196             	3.11931705e+02
197             	3.11938912e+02
198             	3.11945832e+02
199             	3.11953070e+02
200             	3.11960841e+02
201             	3.11968738e+02
202             	3.11976270e+02
203             	3.11983661e+02
204             	3.11990711e+02
205             	3.11997474e+02
206             	3.12003882e+02
207             	3.12010037e+02
208             	3.12016113e+02
209             	3.12021878e+02
210             	3.12027068e+02
211             	3.12031769e+02
212             	3.12036434e+02
213             	3.12041094e+02
214             	3.12045434e+02
215             	3.12049407e+02
216             	3.12053161e+02
217             	3.12056854e+02
218             	3.12060603e+02
219             	3.12064228e+02
220             	3.12067799e+02
221             	3.12071699e+02
222             	3.12075726e+02
223             	3.12080035e+02
224             	3.12084369e+02
225             	3.12088667e+02
226             	3.12092460e+02
227             	3.12095919e+02
228             	3.12099400e+02
229             	3.12102600e+02
230             	3.12105358e+02
231             	3.12107639e+02
232             	3.12109927e+02
233             	3.12112240e+02
234             	3.12114128e+02
235             	3.12115983e+02
236             	3.12117928e+02
237             	3.12120000e+02
238             	3.12121798e+02
239             	3.12123480e+02
240             	3.12125319e+02
241             	3.12126994e+02
242             	3.12128560e+02
243             	3.12130181e+02
244             	3.12132229e+02
245             	3.12134320e+02
246             	3.12136345e+02
247             	3.12138304e+02
248             	3.12140086e+02
249             	3.12141685e+02
250             	3.12143213e+02
251             	3.12144654e+02
252             	3.12145848e+02
253             	3.12146906e+02
254             	3.12148076e+02
255             	3.12149104e+02
256             	3.12149886e+02
257             	3.12150434e+02
258             	3.12150874e+02
259             	3.12151280e+02
260             	3.12151525e+02
261             	3.12151752e+02
262             	3.12152059e+02
263             	3.12152480e+02
264             	3.12152963e+02
265             	3.12153431e+02
266             	3.12153895e+02
267             	3.12154437e+02
268             	3.12154978e+02
269             	3.12155443e+02
270             	3.12155836e+02
271             	3.12156226e+02
272             	3.12156610e+02
273             	3.12156941e+02
274             	3.12157191e+02
275             	3.12157368e+02
276             	3.12157472e+02
277             	3.12157522e+02
278             	3.12157511e+02
279             	3.12157437e+02
280             	3.12157290e+02
281             	3.12157091e+02
282             	3.12156770e+02
283             	3.12156391e+02
284             	3.12156030e+02
285             	3.12155629e+02
286             	3.12155184e+02
287             	3.12154715e+02
288             	3.12154300e+02
289             	3.12153991e+02
290             	3.12153643e+02
291             	3.12153266e+02
292             	3.12152927e+02
293             	3.12152654e+02
294             	3.12152425e+02
295             	3.12152156e+02
296             	3.12151975e+02
297             	3.12151749e+02
298             	3.12151508e+02
299             	3.12151199e+02
300             	3.12150804e+02
301             	3.12150355e+02
302             	3.12149845e+02
303             	3.12149279e+02
304             	3.12148678e+02
305             	3.12148050e+02
306             	3.12147404e+02
307             	3.12146743e+02
308             	3.12146073e+02
309             	3.12145407e+02
310             	3.12144755e+02
311             	3.12144129e+02
312             	3.12143514e+02
313             	3.12142924e+02
314             	3.12142359e+02
315             	3.12141825e+02
316             	3.12141299e+02
317             	3.12140777e+02
318             	3.12140256e+02
319             	3.12139711e+02
320             	3.12139174e+02
321             	3.12138582e+02
322             	3.12137999e+02
323             	3.12137361e+02
324             	3.12136709e+02
325             	3.12136025e+02
326             	3.12135317e+02
327             	3.12134589e+02
328             	3.12133866e+02
329             	3.12133135e+02
330             	3.12132456e+02
331             	3.12131752e+02
332             	3.12131107e+02
333             	3.12130450e+02
334             	3.12129811e+02
335             	3.12129187e+02
336             	3.12128582e+02
337             	3.12127983e+02
338             	3.12127383e+02
339             	3.12126768e+02
340             	3.12126128e+02
341             	3.12125496e+02
342             	3.12124842e+02
343             	3.12124158e+02
344             	3.12123447e+02
345             	3.12122762e+02
346             	3.12122091e+02
347             	3.12121405e+02
348             	3.12120742e+02
349             	3.12120103e+02
350             	3.12119481e+02
351             	3.12118869e+02
352             	3.12118276e+02
353             	3.12117702e+02
354             	3.12117106e+02
355             	3.12116536e+02
356             	3.12115962e+02
357             	3.12115378e+02
358             	3.12114773e+02
359             	3.12114164e+02
360             	3.12113549e+02
361             	3.12112928e+02
362             	3.12112303e+02
363             	3.12111679e+02
364             	3.12111058e+02
365             	3.12110459e+02
366             	3.12109876e+02
367             	3.12109292e+02
368             	3.12108732e+02
369             	3.12108181e+02
370             	3.12107647e+02
371             	3.12107129e+02
372             	3.12106629e+02
373             	3.12106146e+02
374             	3.12105657e+02
375             	3.12105155e+02
376             	3.12104664e+02
377             	3.12104170e+02
378             	3.12103668e+02
379             	3.12103156e+02
380             	3.12102640e+02
381             	3.12102119e+02
382             	3.12101598e+02
383             	3.12101079e+02
384             	3.12100566e+02
385             	3.12100054e+02
386             	3.12099554e+02
387             	3.12099060e+02
388             	3.12098587e+02
389             	3.12098120e+02
390             	3.12097667e+02
391             	3.12097227e+02
392             	3.12096799e+02
393             	3.12096381e+02
394             	3.12095973e+02
395             	3.12095570e+02
396             	3.12095176e+02
397             	3.12094785e+02
398             	3.12094398e+02
399             	3.12094014e+02
400             	3.12093625e+02
401             	3.12093244e+02
402             	3.12092864e+02
403             	3.12092481e+02
404             	3.12092095e+02
405             	3.12091713e+02
406             	3.12091333e+02
407             	3.12090952e+02
408             	3.12090576e+02
409             	3.12090205e+02
410             	3.12089838e+02
411             	3.12089476e+02
412             	3.12089122e+02
413             	3.12088787e+02
414             	3.12088463e+02
415             	3.12088139e+02
416             	3.12087825e+02
417             	3.12087522e+02
418             	3.12087229e+02
419             	3.12086946e+02
420             	3.12086663e+02
421             	3.12086375e+02
422             	3.12086096e+02
423             	3.12085819e+02
424             	3.12085539e+02
425             	3.12085257e+02
426             	3.12084975e+02
427             	3.12084692e+02
428             	3.12084418e+02
429             	3.12084151e+02
430             	3.12083892e+02
431             	3.12083637e+02
432             	3.12083390e+02
433             	3.12083154e+02
434             	3.12082930e+02
435             	3.12082714e+02
436             	3.12082507e+02
437             	3.12082302e+02
438             	3.12082095e+02
439             	3.12081885e+02
440             	3.12081684e+02
441             	3.12081481e+02
442             	3.12081275e+02
443             	3.12081069e+02
444             	3.12080862e+02
445             	3.12080654e+02
446             	3.12080448e+02
447             	3.12080246e+02
448             	3.12080056e+02
449             	3.12079869e+02
450             	3.12079686e+02
451             	3.12079510e+02
452             	3.12079342e+02
453             	3.12079185e+02
454             	3.12079035e+02
455             	3.12078892e+02
456             	3.12078755e+02
457             	3.12078623e+02
458             	3.12078495e+02
459             	3.12078370e+02
460             	3.12078249e+02
461             	3.12078131e+02
462             	3.12078016e+02
463             	3.12077897e+02
464             	3.12077780e+02
465             	3.12077661e+02
466             	3.12077541e+02
467             	3.12077420e+02
468             	3.12077300e+02
469             	3.12077182e+02
470             	3.12077066e+02
471             	3.12076952e+02
472             	3.12076840e+02
473             	3.12076733e+02
474             	3.12076630e+02
475             	3.12076539e+02
476             	3.12076447e+02
477             	3.12076360e+02
478             	3.12076278e+02
479             	3.12076202e+02
480             	3.12076129e+02
481             	3.12076060e+02
482             	3.12075996e+02
483             	3.12075939e+02
484             	3.12075884e+02
485             	3.12075832e+02
486             	3.12075782e+02
487             	3.12075737e+02
488             	3.12075692e+02
489             	3.12075648e+02
490             	3.12075605e+02
491             	3.12075564e+02
492             	3.12075522e+02
493             	3.12075474e+02
494             	3.12075434e+02
495             	3.12075395e+02
496             	3.12075355e+02
497             	3.12075316e+02
498             	3.12075278e+02
499             	3.12075241e+02
500             	3.12075206e+02
501             	3.12075173e+02
502             	3.12075144e+02
503             	3.12075120e+02
504             	3.12075096e+02
505             	3.12075075e+02
506             	3.12075057e+02
507             	3.12075042e+02
508             	3.12075030e+02
509             	3.12075021e+02
510             	3.12075016e+02
511             	3.12075014e+02
512             	3.12075021e+02
513             	3.12075027e+02
514             	3.12075036e+02
515             	3.12075049e+02
516             	3.12075066e+02
517             	3.12075086e+02
518             	3.12075109e+02
519             	3.12075132e+02
520             	3.12075149e+02
521             	3.12075172e+02
522             	3.12075195e+02
523             	3.12075217e+02
524             	3.12075238e+02
525             	3.12075258e+02
526             	3.12075276e+02
527             	3.12075295e+02
528             	3.12075314e+02
529             	3.12075334e+02
530             	3.12075355e+02
531             	3.12075378e+02
532             	3.12075403e+02
533             	3.12075431e+02
534             	3.12075461e+02
535             	3.12075493e+02
536             	3.12075529e+02
537             	3.12075567e+02
538             	3.12075606e+02
539             	3.12075648e+02
540             	3.12075692e+02
541             	3.12075738e+02
542             	3.12075785e+02
543             	3.12075833e+02
544             	3.12075883e+02
545             	3.12075935e+02
546             	3.12075989e+02
547             	3.12076046e+02
548             	3.12076103e+02
549             	3.12076163e+02
550             	3.12076223e+02
551             	3.12076284e+02
552             	3.12076346e+02
553             	3.12076410e+02
554             	3.12076475e+02
555             	3.12076541e+02
556             	3.12076608e+02
557             	3.12076675e+02
558             	3.12076744e+02
559             	3.12076813e+02
560             	3.12076884e+02
561             	3.12076955e+02
562             	3.12077028e+02
563             	3.12077102e+02
564             	3.12077177e+02
565             	3.12077253e+02
566             	3.12077329e+02
567             	3.12077406e+02
568             	3.12077484e+02
569             	3.12077564e+02
570             	3.12077643e+02
571             	3.12077723e+02
572             	3.12077805e+02
573             	3.12077886e+02
574             	3.12077968e+02
575             	3.12078051e+02
576             	3.12078135e+02
577             	3.12078219e+02
578             	3.12078304e+02
579             	3.12078390e+02
580             	3.12078476e+02
581             	3.12078564e+02
582             	3.12078652e+02
583             	3.12078740e+02
584             	3.12078829e+02
585             	3.12078918e+02
586             	3.12079008e+02
587             	3.12079099e+02
588             	3.12079190e+02
589             	3.12079282e+02
590             	3.12079374e+02
591             	3.12079468e+02
592             	3.12079563e+02
593             	3.12079659e+02
594             	3.12079755e+02
595             	3.12079853e+02
596             	3.12079952e+02
597             	3.12080052e+02
598             	3.12080153e+02
599             	3.12080255e+02
600             	3.12080357e+02
601             	3.12080461e+02
602             	3.12080565e+02
603             	3.12080670e+02
604             	3.12080776e+02
605             	3.12080882e+02
606             	3.12080988e+02
607             	3.12081095e+02
608             	3.12081203e+02
609             	3.12081310e+02
610             	3.12081418e+02
611             	3.12081527e+02
612             	3.12081636e+02
613             	3.12081745e+02
614             	3.12081855e+02
615             	3.12081965e+02
616             	3.12082075e+02
617             	3.12082186e+02
618             	3.12082298e+02
619             	3.12082410e+02
620             	3.12082523e+02
621             	3.12082636e+02
