# Region        : cellZone component_3
# Cells         : 272
# Volume        : 5.44066983e-01
# Time          	volAverage(T)
1               	3.00223950e+02
2               	3.00448717e+02
3               	3.00659810e+02
4               	3.00859559e+02
5               	3.01056089e+02
6               	3.01249548e+02
7               	3.01441079e+02
8               	3.01631285e+02
9               	3.01819177e+02
10              	3.02005108e+02
11              	3.02187316e+02
12              	3.02367704e+02
13              	3.02545902e+02
14              	3.02721648e+02
15              	3.02894557e+02
16              	3.03062366e+02
17              	3.03231987e+02
18              	3.03400906e+02
19              	3.03570309e+02
20              	3.03737507e+02
21              	3.03900963e+02
22              	3.04058516e+02
23              	3.04212154e+02
24              	3.04362653e+02
25              	3.04513939e+02
26              	3.04664270e+02
27              	3.04817495e+02
28              	3.04969389e+02
29              	3.05118643e+02
30              	3.05266298e+02
31              	3.05413307e+02
32              	3.05555810e+02
33              	3.05693728e+02
34              	3.05828708e+02
35              	3.05961487e+02
36              	3.06091633e+02
37              	3.06218269e+02
38              	3.06340914e+02
39              	3.06457508e+02
40              	3.06565345e+02
41              	3.06673972e+02
42              	3.06786628e+02
43              	3.06902621e+02
44              	3.07023035e+02
45              	3.07141335e+02
46              	3.07258906e+02
47              	3.07377240e+02
48              	3.07496058e+02
49              	3.07616603e+02
50              	3.07738020e+02
51              	3.07853796e+02
52              	3.07974510e+02
53              	3.08090325e+02
54              	3.08203923e+02
55              	3.08310244e+02
56              	3.08410702e+02
57              	3.08511902e+02
58              	3.08609579e+02
59              	3.08700190e+02
60              	3.08783351e+02
61              	3.08867293e+02
62              	3.08950507e+02
63              	3.09033601e+02
64              	3.09120698e+02
65              	3.09209841e+02
66              	3.09300828e+02
67              	3.09390704e+02
68              	3.09476994e+02
69              	3.09562580e+02
70              	3.09645314e+02
71              	3.09727322e+02
72              	3.09807487e+02
73              	3.09883556e+02
74              	3.09961319e+02
75              	3.10037031e+02
76              	3.10107221e+02
77              	3.10172042e+02
78              	3.10236323e+02
79              	3.10302416e+02
80              	3.10369706e+02
81              	3.10435105e+02
82              	3.10499839e+02
83              	3.10563353e+02
84              	3.10626232e+02
85              	3.10688140e+02
86              	3.10749034e+02
87              	3.10808913e+02
88              	3.10867784e+02
89              	3.10925745e+02
90              	3.10982749e+02
91              	3.11038624e+02
92              	3.11093553e+02
93              	3.11147265e+02
94              	3.11199927e+02
95              	3.11252192e+02
96              	3.11303668e+02
97              	3.11354571e+02
98              	3.11405179e+02
99              	3.11455304e+02
100             	3.11505013e+02
101             	3.11554028e+02
102             	3.11602383e+02
103             	3.11650545e+02
104             	3.11698106e+02
105             	3.11744438e+02
106             	3.11790864e+02
107             	3.11836848e+02
108             	3.11881900e+02
109             	3.11926593e+02
110             	3.11970615e+02
111             	3.12013960e+02
112             	3.12056830e+02
113             	3.12099167e+02
114             	3.12140920e+02
115             	3.12182087e+02
116             	3.12222422e+02
117             	3.12261971e+02
118             	3.12301330e+02
119             	3.12340147e+02
120             	3.12378338e+02
121             	3.12415970e+02
122             	3.12453131e+02
123             	3.12489741e+02
124             	3.12526072e+02
125             	3.12562241e+02
126             	3.12598109e+02
127             	3.12634191e+02
128             	3.12669032e+02
129             	3.12703148e+02
130             	3.12737028e+02
131             	3.12770114e+02
132             	3.12802480e+02
133             	3.12834164e+02
134             	3.12865460e+02
135             	3.12896656e+02
136             	3.12927636e+02
137             	3.12958288e+02
138             	3.12988725e+02
139             	3.13019037e+02
140             	3.13049098e+02
141             	3.13078935e+02
142             	3.13107789e+02
143             	3.13136937e+02
144             	3.13165301e+02
145             	3.13193266e+02
146             	3.13220569e+02
147             	3.13247426e+02
148             	3.13273911e+02
149             	3.13300318e+02
150             	3.13326291e+02
151             	3.13352039e+02
152             	3.13377389e+02
153             	3.13402568e+02
154             	3.13427250e+02
155             	3.13451605e+02
156             	3.13475345e+02
157             	3.13498490e+02
158             	3.13520877e+02
159             	3.13543399e+02
160             	3.13565748e+02
161             	3.13587776e+02
162             	3.13609604e+02
163             	3.13631309e+02
164             	3.13653037e+02
165             	3.13674482e+02
166             	3.13695448e+02
167             	3.13716465e+02
168             	3.13737150e+02
169             	3.13757745e+02
170             	3.13778059e+02
171             	3.13797876e+02
172             	3.13817260e+02
173             	3.13836292e+02
174             	3.13854961e+02
175             	3.13873209e+02
176             	3.13891151e+02
177             	3.13909168e+02
178             	3.13927134e+02
179             	3.13944974e+02
180             	3.13962686e+02
181             	3.13980184e+02
182             	3.13997194e+02
183             	3.14014157e+02
184             	3.14030802e+02
185             	3.14047243e+02
186             	3.14063335e+02
187             	3.14079077e+02
188             	3.14094541e+02
189             	3.14109687e+02
190             	3.14124606e+02
191             	3.14139232e+02
192             	3.14153611e+02
193             	3.14167672e+02
194             	3.14181940e+02
195             	3.14196035e+02
196             	3.14209976e+02
197             	3.14224087e+02
198             	3.14238060e+02
199             	3.14251794e+02
200             	3.14265210e+02
201             	3.14278581e+02
202             	3.14291732e+02
203             	3.14304874e+02
204             	3.14317710e+02
205             	3.14330341e+02
206             	3.14342768e+02
207             	3.14355010e+02
208             	3.14367015e+02
209             	3.14378840e+02
210             	3.14390476e+02
211             	3.14401893e+02
212             	3.14413183e+02
213             	3.14424249e+02
214             	3.14435121e+02
215             	3.14445921e+02
216             	3.14456540e+02
217             	3.14467012e+02
218             	3.14477504e+02
219             	3.14488000e+02
220             	3.14498424e+02
221             	3.14508839e+02
222             	3.14519225e+02
223             	3.14529374e+02
224             	3.14539224e+02
225             	3.14549094e+02
226             	3.14558754e+02
227             	3.14568197e+02
228             	3.14577450e+02
229             	3.14586552e+02
230             	3.14595516e+02
231             	3.14604368e+02
232             	3.14613200e+02
233             	3.14621986e+02
234             	3.14630691e+02
235             	3.14637803e+02
236             	3.14645997e+02
237             	3.14656506e+02
238             	3.14669548e+02
239             	3.14684942e+02
240             	3.14702631e+02
241             	3.14722269e+02
242             	3.14743055e+02
243             	3.14765284e+02
244             	3.14788303e+02
245             	3.14812200e+02
246             	3.14836650e+02
247             	3.14862470e+02
248             	3.14889036e+02
249             	3.14917095e+02
250             	3.14945479e+02
251             	3.14975421e+02
252             	3.15005996e+02
253             	3.15036752e+02
254             	3.15067796e+02
255             	3.15099212e+02
256             	3.15130645e+02
257             	3.15162631e+02
258             	3.15194595e+02
259             	3.15227202e+02
260             	3.15259441e+02
261             	3.15291858e+02
262             	3.15324159e+02
263             	3.15356298e+02
264             	3.15388180e+02
265             	3.15419927e+02
266             	3.15451579e+02
267             	3.15483219e+02
268             	3.15514781e+02
269             	3.15546206e+02
270             	3.15577463e+02
271             	3.15608623e+02
272             	3.15639565e+02
273             	3.15670093e+02
274             	3.15700252e+02
275             	3.15729852e+02
276             	3.15759019e+02
277             	3.15787720e+02
278             	3.15815871e+02
279             	3.15843693e+02
280             	3.15871095e+02
281             	3.15898011e+02
282             	3.15924387e+02
283             	3.15950370e+02
284             	3.15975854e+02
285             	3.16001414e+02
286             	3.16026516e+02
287             	3.16051277e+02
288             	3.16075793e+02
289             	3.16099412e+02
290             	3.16123193e+02
291             	3.16146776e+02
292             	3.16170379e+02
293             	3.16193865e+02
294             	3.16217266e+02
295             	3.16240572e+02
296             	3.16263713e+02
297             	3.16286632e+02
298             	3.16309232e+02
299             	3.16331431e+02
300             	3.16353561e+02
301             	3.16375262e+02
302             	3.16396662e+02
303             	3.16417744e+02
304             	3.16438536e+02
305             	3.16459073e+02
306             	3.16479407e+02
307             	3.16499558e+02
308             	3.16519418e+02
309             	3.16538954e+02
310             	3.16556660e+02
311             	3.16575333e+02
312             	3.16593764e+02
313             	3.16612138e+02
314             	3.16630378e+02
315             	3.16648608e+02
316             	3.16666895e+02
317             	3.16685031e+02
318             	3.16702763e+02
319             	3.16720665e+02
320             	3.16738324e+02
321             	3.16755644e+02
322             	3.16772513e+02
323             	3.16789230e+02
324             	3.16805540e+02
325             	3.16822233e+02
326             	3.16838590e+02
327             	3.16854670e+02
328             	3.16870477e+02
329             	3.16885661e+02
330             	3.16900636e+02
331             	3.16915052e+02
332             	3.16929387e+02
333             	3.16943568e+02
334             	3.16957593e+02
335             	3.16971250e+02
336             	3.16984938e+02
337             	3.16998528e+02
338             	3.17011874e+02
339             	3.17025331e+02
340             	3.17038794e+02
341             	3.17052162e+02
342             	3.17065436e+02
343             	3.17078621e+02
344             	3.17091686e+02
345             	3.17104519e+02
346             	3.17117372e+02
347             	3.17130010e+02
348             	3.17142521e+02
349             	3.17154851e+02
350             	3.17166973e+02
351             	3.17178889e+02
352             	3.17190583e+02
353             	3.17202101e+02
354             	3.17213433e+02
355             	3.17224592e+02
356             	3.17235556e+02
357             	3.17246213e+02
358             	3.17256851e+02
359             	3.17267347e+02
360             	3.17277681e+02
361             	3.17287897e+02
362             	3.17298000e+02
363             	3.17308014e+02
364             	3.17317964e+02
365             	3.17327849e+02
366             	3.17337560e+02
367             	3.17347278e+02
368             	3.17356979e+02
369             	3.17366385e+02
370             	3.17375799e+02
371             	3.17385199e+02
372             	3.17394470e+02
373             	3.17403609e+02
374             	3.17412606e+02
375             	3.17421514e+02
376             	3.17430307e+02
377             	3.17438864e+02
378             	3.17447394e+02
379             	3.17455889e+02
380             	3.17464278e+02
381             	3.17472574e+02
382             	3.17480663e+02
383             	3.17488740e+02
384             	3.17496740e+02
385             	3.17504666e+02
386             	3.17512496e+02
387             	3.17520253e+02
388             	3.17527957e+02
389             	3.17535597e+02
390             	3.17543211e+02
391             	3.17550766e+02
392             	3.17558277e+02
393             	3.17565730e+02
394             	3.17573124e+02
395             	3.17580450e+02
396             	3.17587703e+02
397             	3.17594879e+02
398             	3.17601966e+02
399             	3.17608971e+02
400             	3.17615831e+02
401             	3.17622648e+02
402             	3.17629430e+02
403             	3.17636129e+02
404             	3.17642740e+02
405             	3.17649255e+02
406             	3.17655712e+02
407             	3.17662082e+02
408             	3.17668366e+02
409             	3.17674606e+02
410             	3.17680766e+02
411             	3.17686784e+02
412             	3.17692788e+02
413             	3.17698678e+02
414             	3.17704486e+02
415             	3.17710192e+02
416             	3.17715800e+02
417             	3.17721314e+02
418             	3.17726738e+02
419             	3.17732072e+02
420             	3.17737319e+02
421             	3.17742478e+02
422             	3.17747560e+02
423             	3.17752571e+02
424             	3.17757468e+02
425             	3.17762382e+02
426             	3.17767216e+02
427             	3.17771995e+02
428             	3.17776670e+02
429             	3.17781279e+02
430             	3.17785874e+02
431             	3.17790418e+02
432             	3.17794937e+02
433             	3.17799427e+02
434             	3.17803915e+02
435             	3.17808411e+02
436             	3.17812872e+02
437             	3.17817345e+02
438             	3.17821813e+02
439             	3.17826251e+02
440             	3.17830650e+02
441             	3.17835016e+02
442             	3.17839347e+02
443             	3.17843638e+02
444             	3.17847883e+02
445             	3.17852081e+02
446             	3.17856227e+02
447             	3.17860320e+02
448             	3.17864351e+02
449             	3.17868294e+02
450             	3.17872198e+02
451             	3.17876050e+02
452             	3.17879815e+02
453             	3.17883527e+02
454             	3.17887177e+02
455             	3.17890576e+02
456             	3.17894019e+02
457             	3.17897394e+02
458             	3.17900681e+02
459             	3.17903898e+02
460             	3.17907072e+02
461             	3.17910217e+02
462             	3.17913206e+02
463             	3.17916261e+02
464             	3.17919212e+02
465             	3.17922259e+02
466             	3.17925189e+02
467             	3.17928142e+02
468             	3.17931118e+02
469             	3.17934140e+02
470             	3.17937230e+02
471             	3.17940378e+02
472             	3.17943537e+02
473             	3.17946758e+02
474             	3.17949982e+02
475             	3.17953243e+02
476             	3.17956457e+02
477             	3.17959685e+02
478             	3.17962894e+02
479             	3.17966048e+02
480             	3.17969160e+02
481             	3.17972186e+02
482             	3.17975171e+02
483             	3.17978083e+02
484             	3.17980910e+02
485             	3.17983696e+02
486             	3.17986425e+02
487             	3.17989126e+02
488             	3.17991819e+02
489             	3.17994494e+02
490             	3.17997109e+02
491             	3.17999666e+02
492             	3.18002183e+02
493             	3.18004641e+02
494             	3.18007004e+02
495             	3.18009283e+02
496             	3.18011519e+02
497             	3.18013704e+02
498             	3.18015838e+02
499             	3.18017925e+02
500             	3.18020009e+02
501             	3.18022067e+02
502             	3.18024040e+02
503             	3.18026016e+02
504             	3.18027970e+02
505             	3.18029877e+02
506             	3.18031741e+02
507             	3.18033563e+02
508             	3.18035329e+02
509             	3.18037085e+02
510             	3.18038796e+02
511             	3.18040450e+02
512             	3.18042110e+02
513             	3.18043780e+02
514             	3.18045405e+02
515             	3.18046956e+02
516             	3.18048561e+02
517             	3.18050197e+02
518             	3.18051811e+02
519             	3.18053445e+02
520             	3.18055092e+02
521             	3.18056767e+02
522             	3.18058475e+02
523             	3.18060192e+02
524             	3.18061951e+02
525             	3.18063763e+02
526             	3.18065577e+02
527             	3.18067429e+02
528             	3.18069303e+02
529             	3.18071196e+02
530             	3.18073088e+02
531             	3.18074965e+02
532             	3.18076816e+02
533             	3.18078661e+02
534             	3.18080465e+02
535             	3.18082242e+02
536             	3.18083974e+02
537             	3.18085653e+02
538             	3.18087283e+02
539             	3.18088864e+02
540             	3.18090426e+02
541             	3.18091935e+02
542             	3.18093406e+02
543             	3.18094814e+02
544             	3.18096161e+02
545             	3.18097467e+02
546             	3.18098707e+02
547             	3.18099885e+02
548             	3.18101007e+02
549             	3.18102075e+02
550             	3.18103091e+02
551             	3.18104063e+02
552             	3.18105001e+02
553             	3.18105911e+02
554             	3.18106797e+02
555             	3.18107669e+02
556             	3.18108529e+02
557             	3.18109388e+02
558             	3.18110252e+02
559             	3.18111114e+02
560             	3.18111986e+02
561             	3.18112872e+02
562             	3.18113775e+02
563             	3.18114696e+02
564             	3.18115633e+02
565             	3.18116589e+02
566             	3.18117563e+02
567             	3.18118554e+02
568             	3.18119560e+02
569             	3.18120581e+02
570             	3.18121616e+02
571             	3.18122661e+02
572             	3.18123712e+02
573             	3.18124766e+02
574             	3.18125818e+02
575             	3.18126875e+02
576             	3.18127935e+02
577             	3.18129000e+02
578             	3.18130062e+02
579             	3.18131127e+02
580             	3.18132196e+02
581             	3.18133261e+02
582             	3.18134316e+02
583             	3.18135345e+02
584             	3.18136371e+02
585             	3.18137389e+02
586             	3.18138386e+02
587             	3.18139360e+02
588             	3.18140318e+02
589             	3.18141257e+02
590             	3.18142119e+02
591             	3.18143003e+02
592             	3.18143849e+02
593             	3.18144620e+02
594             	3.18145377e+02
595             	3.18146103e+02
596             	3.18146782e+02
597             	3.18147424e+02
598             	3.18147901e+02
599             	3.18148494e+02
600             	3.18149105e+02
601             	3.18149725e+02
602             	3.18150332e+02
603             	3.18150937e+02
604             	3.18151554e+02
605             	3.18152204e+02
606             	3.18152910e+02
607             	3.18153619e+02
608             	3.18154404e+02
609             	3.18155171e+02
610             	3.18155981e+02
611             	3.18156774e+02
612             	3.18157541e+02
613             	3.18158384e+02
614             	3.18159201e+02
615             	3.18160007e+02
616             	3.18160794e+02
617             	3.18161607e+02
618             	3.18162383e+02
619             	3.18163108e+02
620             	3.18163780e+02
621             	3.18164416e+02
