# Region        : cellZone component_4
# Cells         : 117
# Volume        : 2.21392045e-01
# Time          	volAverage(T)
1               	3.00432531e+02
2               	3.00858846e+02
3               	3.01262559e+02
4               	3.01651763e+02
5               	3.02032807e+02
6               	3.02407296e+02
7               	3.02776798e+02
8               	3.03141669e+02
9               	3.03502723e+02
10              	3.03860158e+02
11              	3.04206418e+02
12              	3.04557748e+02
13              	3.04905282e+02
14              	3.05248523e+02
15              	3.05588206e+02
16              	3.05922977e+02
17              	3.06254067e+02
18              	3.06581926e+02
19              	3.06907495e+02
20              	3.07231309e+02
21              	3.07551328e+02
22              	3.07866771e+02
23              	3.08176127e+02
24              	3.08479864e+02
25              	3.08779878e+02
26              	3.09072886e+02
27              	3.09358895e+02
28              	3.09642224e+02
29              	3.09921750e+02
30              	3.10198389e+02
31              	3.10472934e+02
32              	3.10745322e+02
33              	3.11015824e+02
34              	3.11282335e+02
35              	3.11545328e+02
36              	3.11805103e+02
37              	3.12059759e+02
38              	3.12308485e+02
39              	3.12549759e+02
40              	3.12783036e+02
41              	3.13009468e+02
42              	3.13231097e+02
43              	3.13450361e+02
44              	3.13665000e+02
45              	3.13875712e+02
46              	3.14081379e+02
47              	3.14285508e+02
48              	3.14487035e+02
49              	3.14687411e+02
50              	3.14886341e+02
51              	3.15082731e+02
52              	3.15277967e+02
53              	3.15472719e+02
54              	3.15666307e+02
55              	3.15856984e+02
56              	3.16046549e+02
57              	3.16235438e+02
58              	3.16421298e+02
59              	3.16604394e+02
60              	3.16786080e+02
61              	3.16968011e+02
62              	3.17149373e+02
63              	3.17328818e+02
64              	3.17504024e+02
65              	3.17677297e+02
66              	3.17847724e+02
67              	3.18014784e+02
68              	3.18179455e+02
69              	3.18341855e+02
70              	3.18502152e+02
71              	3.18660981e+02
72              	3.18817930e+02
73              	3.18973028e+02
74              	3.19125881e+02
75              	3.19276339e+02
76              	3.19423630e+02
77              	3.19568038e+02
78              	3.19710657e+02
79              	3.19852069e+02
80              	3.19991780e+02
81              	3.20131384e+02
82              	3.20271671e+02
83              	3.20410290e+02
84              	3.20547077e+02
85              	3.20676251e+02
86              	3.20809181e+02
87              	3.20938687e+02
88              	3.21070692e+02
89              	3.21201822e+02
90              	3.21333057e+02
91              	3.21462400e+02
92              	3.21590839e+02
93              	3.21717778e+02
94              	3.21843264e+02
95              	3.21965762e+02
96              	3.22086961e+02
97              	3.22206375e+02
98              	3.22324520e+02
99              	3.22432082e+02
100             	3.22539278e+02
101             	3.22642769e+02
102             	3.22744051e+02
103             	3.22845502e+02
104             	3.22946487e+02
105             	3.23049576e+02
106             	3.23153567e+02
107             	3.23257301e+02
108             	3.23360008e+02
109             	3.23462106e+02
110             	3.23562932e+02
111             	3.23661440e+02
112             	3.23758411e+02
113             	3.23853580e+02
114             	3.23947040e+02
115             	3.24040178e+02
116             	3.24130290e+02
117             	3.24218947e+02
118             	3.24306672e+02
119             	3.24392203e+02
120             	3.24477893e+02
121             	3.24564974e+02
122             	3.24653681e+02
123             	3.24740680e+02
124             	3.24826408e+02
125             	3.24913482e+02
126             	3.24999805e+02
127             	3.25083050e+02
128             	3.25162324e+02
129             	3.25239134e+02
130             	3.25315313e+02
131             	3.25389148e+02
132             	3.25461446e+02
133             	3.25533496e+02
134             	3.25604763e+02
135             	3.25673704e+02
136             	3.25739722e+02
137             	3.25805162e+02
138             	3.25870952e+02
139             	3.25936389e+02
140             	3.26001431e+02
141             	3.26066084e+02
142             	3.26128662e+02
143             	3.26190696e+02
144             	3.26252762e+02
145             	3.26313052e+02
146             	3.26373746e+02
147             	3.26433914e+02
148             	3.26493427e+02
149             	3.26549631e+02
150             	3.26606215e+02
151             	3.26662706e+02
152             	3.26719205e+02
153             	3.26776081e+02
154             	3.26832385e+02
155             	3.26888095e+02
156             	3.26942436e+02
157             	3.26996398e+02
158             	3.27049825e+02
159             	3.27101356e+02
160             	3.27151798e+02
161             	3.27200583e+02
162             	3.27249523e+02
163             	3.27297606e+02
164             	3.27344172e+02
165             	3.27390146e+02
166             	3.27437128e+02
167             	3.27482335e+02
168             	3.27528058e+02
169             	3.27573596e+02
170             	3.27616792e+02
171             	3.27659705e+02
172             	3.27702220e+02
173             	3.27742755e+02
174             	3.27783294e+02
175             	3.27823492e+02
176             	3.27864160e+02
177             	3.27904509e+02
178             	3.27944212e+02
179             	3.27983540e+02
180             	3.28022719e+02
181             	3.28060502e+02
182             	3.28097956e+02
183             	3.28134793e+02
184             	3.28171533e+02
185             	3.28207805e+02
186             	3.28243595e+02
187             	3.28278791e+02
188             	3.28313124e+02
189             	3.28346316e+02
190             	3.28379310e+02
191             	3.28411282e+02
192             	3.28443084e+02
193             	3.28472314e+02
194             	3.28501494e+02
195             	3.28530262e+02
196             	3.28558892e+02
197             	3.28587060e+02
198             	3.28614826e+02
199             	3.28642486e+02
200             	3.28668330e+02
201             	3.28694869e+02
202             	3.28720119e+02
203             	3.28745571e+02
204             	3.28771391e+02
205             	3.28795086e+02
206             	3.28818954e+02
207             	3.28842601e+02
208             	3.28866413e+02
209             	3.28889834e+02
210             	3.28913227e+02
211             	3.28935898e+02
212             	3.28956383e+02
213             	3.28977364e+02
214             	3.28998508e+02
215             	3.29018073e+02
216             	3.29038612e+02
217             	3.29059392e+02
218             	3.29078834e+02
219             	3.29099290e+02
220             	3.29120255e+02
221             	3.29139486e+02
222             	3.29159516e+02
223             	3.29179780e+02
224             	3.29198574e+02
225             	3.29218219e+02
226             	3.29237897e+02
227             	3.29255906e+02
228             	3.29274787e+02
229             	3.29293632e+02
230             	3.29310855e+02
231             	3.29329051e+02
232             	3.29347164e+02
233             	3.29363614e+02
234             	3.29380873e+02
235             	3.29398199e+02
236             	3.29413875e+02
237             	3.29430281e+02
238             	3.29446750e+02
239             	3.29461490e+02
240             	3.29476925e+02
241             	3.29492483e+02
242             	3.29508185e+02
243             	3.29523824e+02
244             	3.29537031e+02
245             	3.29550264e+02
246             	3.29563716e+02
247             	3.29577600e+02
248             	3.29591358e+02
249             	3.29603703e+02
250             	3.29616683e+02
251             	3.29630144e+02
252             	3.29641775e+02
253             	3.29653978e+02
254             	3.29666890e+02
255             	3.29677684e+02
256             	3.29689175e+02
257             	3.29700651e+02
258             	3.29712412e+02
259             	3.29722820e+02
260             	3.29734262e+02
261             	3.29746443e+02
262             	3.29757131e+02
263             	3.29767766e+02
264             	3.29778905e+02
265             	3.29790808e+02
266             	3.29801378e+02
267             	3.29812717e+02
268             	3.29824441e+02
269             	3.29836226e+02
270             	3.29846070e+02
271             	3.29855877e+02
272             	3.29865608e+02
273             	3.29875255e+02
274             	3.29885191e+02
275             	3.29895230e+02
276             	3.29905261e+02
277             	3.29915197e+02
278             	3.29925500e+02
279             	3.29935864e+02
280             	3.29946164e+02
281             	3.29956305e+02
282             	3.29966304e+02
283             	3.29976169e+02
284             	3.29985891e+02
285             	3.29995522e+02
286             	3.30005053e+02
287             	3.30014496e+02
288             	3.30023857e+02
289             	3.30033133e+02
290             	3.30042327e+02
291             	3.30051439e+02
292             	3.30060477e+02
293             	3.30069436e+02
294             	3.30078348e+02
295             	3.30087201e+02
296             	3.30095982e+02
297             	3.30104686e+02
298             	3.30113300e+02
299             	3.30121806e+02
300             	3.30130186e+02
301             	3.30138452e+02
302             	3.30146602e+02
303             	3.30154640e+02
304             	3.30162563e+02
305             	3.30170376e+02
306             	3.30178074e+02
307             	3.30185659e+02
308             	3.30193136e+02
309             	3.30200512e+02
310             	3.30207791e+02
311             	3.30214972e+02
312             	3.30222077e+02
313             	3.30229100e+02
314             	3.30236004e+02
315             	3.30242859e+02
316             	3.30249651e+02
317             	3.30256379e+02
318             	3.30263051e+02
319             	3.30269672e+02
320             	3.30276153e+02
321             	3.30282635e+02
322             	3.30289114e+02
323             	3.30295566e+02
324             	3.30301989e+02
325             	3.30308396e+02
326             	3.30314718e+02
327             	3.30320979e+02
328             	3.30327170e+02
329             	3.30333300e+02
330             	3.30339380e+02
331             	3.30345383e+02
332             	3.30351316e+02
333             	3.30357176e+02
334             	3.30362960e+02
335             	3.30368672e+02
336             	3.30374301e+02
337             	3.30379873e+02
338             	3.30385388e+02
339             	3.30390803e+02
340             	3.30396188e+02
341             	3.30401523e+02
342             	3.30406795e+02
343             	3.30412006e+02
344             	3.30417129e+02
345             	3.30422193e+02
346             	3.30427196e+02
347             	3.30432143e+02
348             	3.30437040e+02
349             	3.30441883e+02
350             	3.30446677e+02
351             	3.30451432e+02
352             	3.30456156e+02
353             	3.30460806e+02
354             	3.30465463e+02
355             	3.30470116e+02
356             	3.30474745e+02
357             	3.30479332e+02
358             	3.30483872e+02
359             	3.30488359e+02
360             	3.30492783e+02
361             	3.30497122e+02
362             	3.30501396e+02
363             	3.30505607e+02
364             	3.30509759e+02
365             	3.30513849e+02
366             	3.30517877e+02
367             	3.30521839e+02
368             	3.30525746e+02
369             	3.30529598e+02
370             	3.30533418e+02
371             	3.30537155e+02
372             	3.30540839e+02
373             	3.30544461e+02
374             	3.30548013e+02
375             	3.30551517e+02
376             	3.30554977e+02
377             	3.30558406e+02
378             	3.30561806e+02
379             	3.30565189e+02
380             	3.30568565e+02
381             	3.30571922e+02
382             	3.30575281e+02
383             	3.30578636e+02
384             	3.30581981e+02
385             	3.30585317e+02
386             	3.30588639e+02
387             	3.30591907e+02
388             	3.30595155e+02
389             	3.30598378e+02
390             	3.30601567e+02
391             	3.30604707e+02
392             	3.30607802e+02
393             	3.30610847e+02
394             	3.30613847e+02
395             	3.30616807e+02
396             	3.30619729e+02
397             	3.30622617e+02
398             	3.30625471e+02
399             	3.30628290e+02
400             	3.30631074e+02
401             	3.30633824e+02
402             	3.30636538e+02
403             	3.30639218e+02
404             	3.30641866e+02
405             	3.30644483e+02
406             	3.30647070e+02
407             	3.30649632e+02
408             	3.30652170e+02
409             	3.30654692e+02
410             	3.30657198e+02
411             	3.30659691e+02
412             	3.30662171e+02
413             	3.30664644e+02
414             	3.30667111e+02
415             	3.30669569e+02
416             	3.30672021e+02
417             	3.30674463e+02
418             	3.30676890e+02
419             	3.30679298e+02
420             	3.30681681e+02
421             	3.30684037e+02
422             	3.30686364e+02
423             	3.30688659e+02
424             	3.30690920e+02
425             	3.30693146e+02
426             	3.30695335e+02
427             	3.30697487e+02
428             	3.30699603e+02
429             	3.30701683e+02
430             	3.30703726e+02
431             	3.30705734e+02
432             	3.30707706e+02
433             	3.30709644e+02
434             	3.30711551e+02
435             	3.30713428e+02
436             	3.30715277e+02
437             	3.30717104e+02
438             	3.30718912e+02
439             	3.30720693e+02
440             	3.30722467e+02
441             	3.30724230e+02
442             	3.30725983e+02
443             	3.30727726e+02
444             	3.30729459e+02
445             	3.30731183e+02
446             	3.30732898e+02
447             	3.30734604e+02
448             	3.30736299e+02
449             	3.30737983e+02
450             	3.30739652e+02
451             	3.30741307e+02
452             	3.30742947e+02
453             	3.30744571e+02
454             	3.30746177e+02
455             	3.30747765e+02
456             	3.30749331e+02
457             	3.30750875e+02
458             	3.30752395e+02
459             	3.30753891e+02
460             	3.30755362e+02
461             	3.30756806e+02
462             	3.30758221e+02
463             	3.30759607e+02
464             	3.30760965e+02
465             	3.30762298e+02
466             	3.30763611e+02
467             	3.30764907e+02
468             	3.30766189e+02
469             	3.30767453e+02
470             	3.30768710e+02
471             	3.30769961e+02
472             	3.30771205e+02
473             	3.30772447e+02
474             	3.30773688e+02
475             	3.30774927e+02
476             	3.30776162e+02
477             	3.30777391e+02
478             	3.30778629e+02
479             	3.30779851e+02
480             	3.30781059e+02
481             	3.30782253e+02
482             	3.30783441e+02
483             	3.30784608e+02
484             	3.30785770e+02
485             	3.30786922e+02
486             	3.30788057e+02
487             	3.30789171e+02
488             	3.30790257e+02
489             	3.30791313e+02
490             	3.30792337e+02
491             	3.30793336e+02
492             	3.30794307e+02
493             	3.30795237e+02
494             	3.30796159e+02
495             	3.30797065e+02
496             	3.30797955e+02
497             	3.30798834e+02
498             	3.30799708e+02
499             	3.30800566e+02
500             	3.30801413e+02
501             	3.30802282e+02
502             	3.30803166e+02
503             	3.30804064e+02
504             	3.30804972e+02
505             	3.30805885e+02
506             	3.30806847e+02
507             	3.30807779e+02
508             	3.30808728e+02
509             	3.30809728e+02
510             	3.30810679e+02
511             	3.30811623e+02
512             	3.30812559e+02
513             	3.30813499e+02
514             	3.30814413e+02
515             	3.30815326e+02
516             	3.30816204e+02
517             	3.30817001e+02
518             	3.30817810e+02
519             	3.30818599e+02
520             	3.30819365e+02
521             	3.30820110e+02
522             	3.30820840e+02
523             	3.30821543e+02
524             	3.30822232e+02
525             	3.30822906e+02
526             	3.30823577e+02
527             	3.30824251e+02
528             	3.30824931e+02
529             	3.30825621e+02
530             	3.30826322e+02
531             	3.30827050e+02
532             	3.30827763e+02
533             	3.30828495e+02
534             	3.30829207e+02
535             	3.30829905e+02
536             	3.30830581e+02
537             	3.30831240e+02
538             	3.30831885e+02
539             	3.30832515e+02
540             	3.30833135e+02
541             	3.30833745e+02
542             	3.30834343e+02
543             	3.30834905e+02
544             	3.30835430e+02
545             	3.30835937e+02
546             	3.30836447e+02
547             	3.30836949e+02
548             	3.30837445e+02
549             	3.30837945e+02
550             	3.30838453e+02
551             	3.30838942e+02
552             	3.30839431e+02
553             	3.30839919e+02
554             	3.30840412e+02
555             	3.30840908e+02
556             	3.30841406e+02
557             	3.30841913e+02
558             	3.30842430e+02
559             	3.30842950e+02
560             	3.30843471e+02
561             	3.30843979e+02
562             	3.30844476e+02
563             	3.30844958e+02
564             	3.30845422e+02
565             	3.30845869e+02
566             	3.30846310e+02
567             	3.30846742e+02
568             	3.30847168e+02
569             	3.30847591e+02
570             	3.30848013e+02
571             	3.30848437e+02
572             	3.30848865e+02
573             	3.30849297e+02
574             	3.30849734e+02
575             	3.30850173e+02
576             	3.30850605e+02
577             	3.30851035e+02
578             	3.30851464e+02
579             	3.30851888e+02
580             	3.30852302e+02
581             	3.30852711e+02
582             	3.30853113e+02
583             	3.30853506e+02
584             	3.30853867e+02
585             	3.30854222e+02
586             	3.30854578e+02
587             	3.30854931e+02
588             	3.30855274e+02
589             	3.30855642e+02
590             	3.30855995e+02
591             	3.30856347e+02
592             	3.30856702e+02
593             	3.30857059e+02
594             	3.30857422e+02
595             	3.30857784e+02
596             	3.30858144e+02
597             	3.30858507e+02
598             	3.30858867e+02
599             	3.30859228e+02
600             	3.30859581e+02
601             	3.30859925e+02
602             	3.30860266e+02
603             	3.30860589e+02
604             	3.30860901e+02
605             	3.30861203e+02
606             	3.30861512e+02
607             	3.30861827e+02
608             	3.30862145e+02
609             	3.30862471e+02
610             	3.30862787e+02
611             	3.30863107e+02
612             	3.30863432e+02
613             	3.30863778e+02
614             	3.30864108e+02
615             	3.30864437e+02
616             	3.30864766e+02
617             	3.30865094e+02
618             	3.30865414e+02
619             	3.30865730e+02
620             	3.30866044e+02
621             	3.30866321e+02
