# Region        : cellZone component_2
# Cells         : 174
# Volume        : 3.51296674e-01
# Time          	volAverage(T)
1               	3.00596375e+02
2               	3.01184812e+02
3               	3.01721973e+02
4               	3.02227353e+02
5               	3.02719464e+02
6               	3.03202848e+02
7               	3.03679233e+02
8               	3.04152258e+02
9               	3.04619873e+02
10              	3.05080610e+02
11              	3.05533635e+02
12              	3.05980803e+02
13              	3.06415417e+02
14              	3.06847704e+02
15              	3.07271351e+02
16              	3.07690181e+02
17              	3.08099113e+02
18              	3.08499992e+02
19              	3.08898271e+02
20              	3.09290238e+02
21              	3.09670776e+02
22              	3.10039289e+02
23              	3.10396100e+02
24              	3.10738396e+02
25              	3.11069467e+02
26              	3.11401892e+02
27              	3.11733477e+02
28              	3.12064305e+02
29              	3.12394750e+02
30              	3.12694023e+02
31              	3.12965904e+02
32              	3.13203371e+02
33              	3.13417226e+02
34              	3.13635442e+02
35              	3.13864416e+02
36              	3.14108155e+02
37              	3.14348600e+02
38              	3.14589045e+02
39              	3.14827291e+02
40              	3.15072025e+02
41              	3.15306322e+02
42              	3.15536873e+02
43              	3.15773656e+02
44              	3.16022525e+02
45              	3.16241861e+02
46              	3.16429951e+02
47              	3.16620976e+02
48              	3.16830869e+02
49              	3.17040861e+02
50              	3.17244529e+02
51              	3.17443529e+02
52              	3.17640911e+02
53              	3.17835536e+02
54              	3.18030328e+02
55              	3.18222511e+02
56              	3.18409898e+02
57              	3.18595893e+02
58              	3.18791566e+02
59              	3.18994472e+02
60              	3.19198446e+02
61              	3.19405798e+02
62              	3.19609531e+02
63              	3.19806571e+02
64              	3.19991037e+02
65              	3.20172516e+02
66              	3.20347188e+02
67              	3.20507321e+02
68              	3.20658411e+02
69              	3.20798541e+02
70              	3.20941077e+02
71              	3.21080313e+02
72              	3.21224465e+02
73              	3.21366412e+02
74              	3.21517890e+02
75              	3.21666202e+02
76              	3.21804340e+02
77              	3.21939104e+02
78              	3.22066854e+02
79              	3.22180652e+02
80              	3.22285522e+02
81              	3.22385246e+02
82              	3.22484999e+02
83              	3.22581412e+02
84              	3.22674879e+02
85              	3.22763173e+02
86              	3.22851755e+02
87              	3.22943329e+02
88              	3.23034159e+02
89              	3.23129256e+02
90              	3.23233286e+02
91              	3.23340825e+02
92              	3.23441930e+02
93              	3.23537435e+02
94              	3.23628166e+02
95              	3.23713917e+02
96              	3.23792927e+02
97              	3.23867078e+02
98              	3.23941678e+02
99              	3.24012455e+02
100             	3.24083622e+02
101             	3.24154835e+02
102             	3.24227385e+02
103             	3.24301752e+02
104             	3.24378564e+02
105             	3.24453867e+02
106             	3.24532481e+02
107             	3.24610353e+02
108             	3.24676239e+02
109             	3.24739048e+02
110             	3.24799819e+02
111             	3.24854346e+02
112             	3.24904502e+02
113             	3.24952121e+02
114             	3.24997698e+02
115             	3.25042592e+02
116             	3.25086544e+02
117             	3.25132576e+02
118             	3.25180770e+02
119             	3.25231656e+02
120             	3.25278768e+02
121             	3.25329742e+02
122             	3.25382554e+02
123             	3.25433966e+02
124             	3.25481945e+02
125             	3.25520813e+02
126             	3.25560823e+02
127             	3.25600735e+02
128             	3.25638378e+02
129             	3.25674122e+02
130             	3.25708440e+02
131             	3.25742126e+02
132             	3.25776400e+02
133             	3.25808085e+02
134             	3.25840364e+02
135             	3.25873922e+02
136             	3.25901388e+02
137             	3.25929696e+02
138             	3.25958876e+02
139             	3.25989084e+02
140             	3.26019998e+02
141             	3.26052393e+02
142             	3.26083843e+02
143             	3.26107707e+02
144             	3.26132725e+02
145             	3.26157680e+02
146             	3.26180896e+02
147             	3.26202269e+02
148             	3.26222092e+02
149             	3.26240756e+02
150             	3.26259419e+02
151             	3.26279857e+02
152             	3.26297679e+02
153             	3.26317682e+02
154             	3.26339964e+02
155             	3.26364288e+02
156             	3.26390073e+02
157             	3.26411263e+02
158             	3.26433946e+02
159             	3.26456750e+02
160             	3.26477273e+02
161             	3.26495559e+02
162             	3.26511272e+02
163             	3.26526731e+02
164             	3.26540787e+02
165             	3.26556328e+02
166             	3.26569372e+02
167             	3.26582780e+02
168             	3.26597538e+02
169             	3.26612911e+02
170             	3.26630081e+02
171             	3.26648763e+02
172             	3.26663118e+02
173             	3.26680282e+02
174             	3.26693199e+02
175             	3.26707117e+02
176             	3.26722705e+02
177             	3.26738043e+02
178             	3.26751427e+02
179             	3.26762941e+02
180             	3.26773664e+02
181             	3.26784481e+02
182             	3.26795699e+02
183             	3.26808102e+02
184             	3.26821352e+02
185             	3.26833781e+02
186             	3.26846153e+02
187             	3.26858228e+02
188             	3.26869956e+02
189             	3.26884174e+02
190             	3.26894579e+02
191             	3.26904586e+02
192             	3.26915321e+02
193             	3.26926600e+02
194             	3.26935885e+02
195             	3.26942004e+02
196             	3.26951078e+02
197             	3.26959779e+02
198             	3.26966896e+02
199             	3.26972265e+02
200             	3.26976699e+02
201             	3.26981295e+02
202             	3.26987115e+02
203             	3.26994192e+02
204             	3.26999944e+02
205             	3.27006175e+02
206             	3.27013200e+02
207             	3.27020392e+02
208             	3.27027524e+02
209             	3.27034579e+02
210             	3.27040539e+02
211             	3.27045461e+02
212             	3.27050824e+02
213             	3.27056587e+02
214             	3.27062530e+02
215             	3.27067659e+02
216             	3.27068946e+02
217             	3.27072536e+02
218             	3.27076844e+02
219             	3.27080524e+02
220             	3.27083207e+02
221             	3.27085074e+02
222             	3.27088068e+02
223             	3.27093817e+02
224             	3.27095202e+02
225             	3.27097585e+02
226             	3.27102370e+02
227             	3.27109404e+02
228             	3.27117276e+02
229             	3.27125096e+02
230             	3.27132458e+02
231             	3.27139739e+02
232             	3.27140601e+02
233             	3.27144098e+02
234             	3.27149396e+02
235             	3.27153615e+02
236             	3.27156335e+02
237             	3.27158094e+02
238             	3.27159013e+02
239             	3.27160750e+02
240             	3.27162300e+02
241             	3.27164021e+02
242             	3.27168150e+02
243             	3.27171111e+02
244             	3.27172072e+02
245             	3.27174827e+02
246             	3.27178838e+02
247             	3.27182653e+02
248             	3.27184451e+02
249             	3.27186493e+02
250             	3.27189577e+02
251             	3.27193498e+02
252             	3.27195952e+02
253             	3.27199629e+02
254             	3.27202861e+02
255             	3.27206170e+02
256             	3.27209389e+02
257             	3.27213493e+02
258             	3.27212679e+02
259             	3.27214688e+02
260             	3.27217890e+02
261             	3.27220612e+02
262             	3.27221888e+02
263             	3.27222208e+02
264             	3.27222721e+02
265             	3.27223405e+02
266             	3.27223670e+02
267             	3.27223507e+02
268             	3.27223591e+02
269             	3.27225249e+02
270             	3.27226483e+02
271             	3.27228082e+02
272             	3.27230207e+02
273             	3.27232670e+02
274             	3.27235175e+02
275             	3.27237210e+02
276             	3.27238933e+02
277             	3.27240493e+02
278             	3.27241877e+02
279             	3.27243054e+02
280             	3.27243522e+02
281             	3.27244163e+02
282             	3.27245029e+02
283             	3.27246424e+02
284             	3.27248218e+02
285             	3.27249988e+02
286             	3.27251790e+02
287             	3.27253617e+02
288             	3.27254941e+02
289             	3.27256408e+02
290             	3.27257902e+02
291             	3.27258874e+02
292             	3.27259630e+02
293             	3.27260297e+02
294             	3.27260808e+02
295             	3.27261001e+02
296             	3.27261205e+02
297             	3.27261713e+02
298             	3.27262526e+02
299             	3.27262982e+02
300             	3.27263315e+02
301             	3.27263734e+02
302             	3.27264244e+02
303             	3.27264829e+02
304             	3.27265330e+02
305             	3.27265488e+02
306             	3.27265553e+02
307             	3.27265900e+02
308             	3.27266794e+02
309             	3.27266962e+02
310             	3.27266751e+02
311             	3.27266559e+02
312             	3.27266339e+02
313             	3.27266736e+02
314             	3.27266203e+02
315             	3.27265953e+02
316             	3.27265682e+02
317             	3.27265248e+02
318             	3.27265027e+02
319             	3.27264858e+02
320             	3.27264623e+02
321             	3.27264737e+02
322             	3.27264817e+02
323             	3.27264150e+02
324             	3.27263591e+02
325             	3.27263280e+02
326             	3.27263271e+02
327             	3.27263688e+02
328             	3.27264479e+02
329             	3.27265322e+02
330             	3.27265586e+02
331             	3.27263575e+02
332             	3.27262519e+02
333             	3.27261948e+02
334             	3.27261419e+02
335             	3.27260865e+02
336             	3.27260395e+02
337             	3.27259729e+02
338             	3.27258975e+02
339             	3.27258248e+02
340             	3.27257768e+02
341             	3.27257679e+02
342             	3.27258716e+02
343             	3.27259679e+02
344             	3.27260482e+02
345             	3.27261256e+02
346             	3.27262286e+02
347             	3.27263432e+02
348             	3.27263819e+02
349             	3.27262927e+02
350             	3.27263233e+02
351             	3.27263465e+02
352             	3.27263057e+02
353             	3.27262144e+02
354             	3.27262006e+02
355             	3.27262098e+02
356             	3.27261190e+02
357             	3.27260500e+02
358             	3.27260606e+02
359             	3.27261228e+02
360             	3.27262114e+02
361             	3.27263034e+02
362             	3.27263447e+02
363             	3.27264113e+02
364             	3.27263302e+02
365             	3.27262854e+02
366             	3.27262563e+02
367             	3.27262231e+02
368             	3.27261818e+02
369             	3.27261575e+02
370             	3.27261438e+02
371             	3.27261549e+02
372             	3.27261939e+02
373             	3.27261830e+02
374             	3.27261893e+02
375             	3.27261493e+02
376             	3.27261663e+02
377             	3.27262065e+02
378             	3.27262383e+02
379             	3.27262257e+02
380             	3.27261736e+02
381             	3.27261017e+02
382             	3.27260189e+02
383             	3.27259287e+02
384             	3.27258419e+02
385             	3.27257703e+02
386             	3.27257275e+02
387             	3.27257189e+02
388             	3.27257263e+02
389             	3.27257492e+02
390             	3.27257777e+02
391             	3.27257931e+02
392             	3.27258591e+02
393             	3.27258873e+02
394             	3.27259030e+02
395             	3.27259249e+02
396             	3.27259878e+02
397             	3.27260102e+02
398             	3.27260372e+02
399             	3.27260717e+02
400             	3.27261088e+02
401             	3.27261422e+02
402             	3.27261587e+02
403             	3.27261724e+02
404             	3.27261964e+02
405             	3.27262203e+02
406             	3.27262402e+02
407             	3.27262646e+02
408             	3.27262713e+02
409             	3.27262581e+02
410             	3.27262328e+02
411             	3.27261920e+02
412             	3.27260965e+02
413             	3.27260275e+02
414             	3.27259732e+02
415             	3.27259279e+02
416             	3.27258930e+02
417             	3.27258613e+02
418             	3.27258656e+02
419             	3.27258387e+02
420             	3.27257855e+02
421             	3.27257155e+02
422             	3.27256649e+02
423             	3.27256358e+02
424             	3.27256132e+02
425             	3.27255905e+02
426             	3.27255772e+02
427             	3.27255647e+02
428             	3.27255208e+02
429             	3.27254683e+02
430             	3.27254126e+02
431             	3.27253566e+02
432             	3.27252730e+02
433             	3.27251559e+02
434             	3.27250783e+02
435             	3.27250162e+02
436             	3.27249514e+02
437             	3.27248876e+02
438             	3.27248275e+02
439             	3.27247733e+02
440             	3.27247080e+02
441             	3.27246807e+02
442             	3.27246238e+02
443             	3.27245693e+02
444             	3.27245083e+02
445             	3.27244254e+02
446             	3.27243568e+02
447             	3.27243309e+02
448             	3.27243262e+02
449             	3.27243240e+02
450             	3.27243198e+02
451             	3.27242923e+02
452             	3.27242558e+02
453             	3.27242229e+02
454             	3.27242060e+02
455             	3.27241893e+02
456             	3.27241767e+02
457             	3.27241919e+02
458             	3.27242035e+02
459             	3.27241973e+02
460             	3.27241961e+02
461             	3.27241732e+02
462             	3.27241600e+02
463             	3.27241499e+02
464             	3.27241019e+02
465             	3.27240597e+02
466             	3.27240210e+02
467             	3.27239829e+02
468             	3.27239430e+02
469             	3.27238937e+02
470             	3.27238417e+02
471             	3.27237923e+02
472             	3.27237447e+02
473             	3.27236960e+02
474             	3.27236510e+02
475             	3.27236132e+02
476             	3.27235783e+02
477             	3.27235425e+02
478             	3.27235097e+02
479             	3.27234756e+02
480             	3.27234395e+02
481             	3.27234061e+02
482             	3.27233723e+02
483             	3.27233441e+02
484             	3.27233192e+02
485             	3.27232972e+02
486             	3.27232832e+02
487             	3.27232721e+02
488             	3.27232619e+02
489             	3.27232527e+02
490             	3.27232430e+02
491             	3.27232329e+02
492             	3.27232208e+02
493             	3.27232071e+02
494             	3.27231914e+02
495             	3.27231742e+02
496             	3.27231531e+02
497             	3.27231278e+02
498             	3.27231075e+02
499             	3.27230892e+02
500             	3.27230714e+02
501             	3.27230535e+02
502             	3.27230352e+02
503             	3.27230162e+02
504             	3.27229970e+02
505             	3.27229785e+02
506             	3.27229614e+02
507             	3.27229453e+02
508             	3.27229297e+02
509             	3.27229122e+02
510             	3.27228906e+02
511             	3.27228716e+02
512             	3.27228537e+02
513             	3.27228309e+02
514             	3.27228094e+02
515             	3.27227948e+02
516             	3.27227864e+02
517             	3.27227750e+02
518             	3.27227626e+02
519             	3.27227523e+02
520             	3.27227415e+02
521             	3.27227314e+02
522             	3.27227151e+02
523             	3.27226928e+02
524             	3.27226762e+02
525             	3.27226610e+02
526             	3.27226442e+02
527             	3.27226240e+02
528             	3.27225838e+02
529             	3.27225484e+02
530             	3.27225162e+02
531             	3.27224837e+02
532             	3.27224510e+02
533             	3.27224194e+02
534             	3.27223912e+02
535             	3.27223655e+02
536             	3.27223398e+02
537             	3.27223205e+02
538             	3.27222980e+02
539             	3.27223011e+02
540             	3.27222958e+02
541             	3.27222778e+02
542             	3.27222631e+02
543             	3.27222493e+02
544             	3.27222347e+02
545             	3.27222270e+02
546             	3.27222207e+02
547             	3.27221993e+02
548             	3.27221825e+02
549             	3.27221681e+02
550             	3.27221515e+02
551             	3.27221323e+02
552             	3.27221154e+02
553             	3.27221056e+02
554             	3.27220975e+02
555             	3.27220833e+02
556             	3.27220652e+02
557             	3.27220490e+02
558             	3.27220350e+02
559             	3.27220224e+02
560             	3.27220213e+02
561             	3.27220161e+02
562             	3.27220083e+02
563             	3.27219980e+02
564             	3.27219872e+02
565             	3.27219762e+02
566             	3.27219692e+02
567             	3.27219646e+02
568             	3.27219608e+02
569             	3.27219573e+02
570             	3.27219541e+02
571             	3.27219521e+02
572             	3.27219512e+02
573             	3.27219513e+02
574             	3.27219521e+02
575             	3.27219542e+02
576             	3.27219569e+02
577             	3.27219591e+02
578             	3.27219596e+02
579             	3.27219583e+02
580             	3.27219580e+02
581             	3.27219565e+02
582             	3.27219560e+02
583             	3.27219529e+02
584             	3.27219470e+02
585             	3.27219417e+02
586             	3.27219367e+02
587             	3.27219238e+02
588             	3.27219029e+02
589             	3.27218877e+02
590             	3.27218768e+02
591             	3.27218673e+02
592             	3.27218563e+02
593             	3.27218432e+02
594             	3.27218302e+02
595             	3.27218148e+02
596             	3.27217978e+02
597             	3.27217805e+02
598             	3.27217771e+02
599             	3.27217939e+02
600             	3.27218026e+02
601             	3.27218083e+02
602             	3.27218131e+02
603             	3.27218164e+02
604             	3.27217997e+02
605             	3.27217643e+02
606             	3.27217508e+02
607             	3.27217413e+02
608             	3.27217323e+02
609             	3.27217152e+02
610             	3.27216946e+02
611             	3.27216741e+02
612             	3.27216804e+02
613             	3.27216790e+02
614             	3.27216757e+02
615             	3.27216677e+02
616             	3.27216472e+02
617             	3.27216311e+02
618             	3.27216197e+02
619             	3.27216064e+02
620             	3.27215923e+02
621             	3.27215764e+02
