# Region        : cellZone component_2
# Cells         : 128
# Volume        : 2.13588013e-01
# Time          	volAverage(T)
1               	3.00581792e+02
2               	3.01158010e+02
3               	3.01702364e+02
4               	3.02230371e+02
5               	3.02751049e+02
6               	3.03266875e+02
7               	3.03779743e+02
8               	3.04290161e+02
9               	3.04798825e+02
10              	3.05303726e+02
11              	3.05803144e+02
12              	3.06296637e+02
13              	3.06787084e+02
14              	3.07274661e+02
15              	3.07760248e+02
16              	3.08243257e+02
17              	3.08726476e+02
18              	3.09211984e+02
19              	3.09699832e+02
20              	3.10185548e+02
21              	3.10653079e+02
22              	3.11105985e+02
23              	3.11550434e+02
24              	3.11991380e+02
25              	3.12434623e+02
26              	3.12882431e+02
27              	3.13333407e+02
28              	3.13784398e+02
29              	3.14233897e+02
30              	3.14680066e+02
31              	3.15121513e+02
32              	3.15556818e+02
33              	3.15983835e+02
34              	3.16401280e+02
35              	3.16811289e+02
36              	3.17214615e+02
37              	3.17616475e+02
38              	3.18017644e+02
39              	3.18428189e+02
40              	3.18830075e+02
41              	3.19232082e+02
42              	3.19632931e+02
43              	3.20015455e+02
44              	3.20391374e+02
45              	3.20762512e+02
46              	3.21130224e+02
47              	3.21490377e+02
48              	3.21843128e+02
49              	3.22194555e+02
50              	3.22541142e+02
51              	3.22886831e+02
52              	3.23230597e+02
53              	3.23570233e+02
54              	3.23907177e+02
55              	3.24236563e+02
56              	3.24557882e+02
57              	3.24873532e+02
58              	3.25183134e+02
59              	3.25488929e+02
60              	3.25795655e+02
61              	3.26097837e+02
62              	3.26398561e+02
63              	3.26698000e+02
64              	3.26993294e+02
65              	3.27295519e+02
66              	3.27602426e+02
67              	3.27896337e+02
68              	3.28184348e+02
69              	3.28469983e+02
70              	3.28754550e+02
71              	3.29033667e+02
72              	3.29311601e+02
73              	3.29578457e+02
74              	3.29841255e+02
75              	3.30110241e+02
76              	3.30381152e+02
77              	3.30649037e+02
78              	3.30909837e+02
79              	3.31164188e+02
80              	3.31424375e+02
81              	3.31678691e+02
82              	3.31917984e+02
83              	3.32148685e+02
84              	3.32375682e+02
85              	3.32597544e+02
86              	3.32816785e+02
87              	3.33030705e+02
88              	3.33243711e+02
89              	3.33453767e+02
90              	3.33659315e+02
91              	3.33863657e+02
92              	3.34065951e+02
93              	3.34270473e+02
94              	3.34476824e+02
95              	3.34686566e+02
96              	3.34898283e+02
97              	3.35110585e+02
98              	3.35324913e+02
99              	3.35537955e+02
100             	3.35749347e+02
101             	3.35959579e+02
102             	3.36168369e+02
103             	3.36373404e+02
104             	3.36575500e+02
105             	3.36774742e+02
106             	3.36970899e+02
107             	3.37164354e+02
108             	3.37356229e+02
109             	3.37544595e+02
110             	3.37731188e+02
111             	3.37918091e+02
112             	3.38106050e+02
113             	3.38295262e+02
114             	3.38476029e+02
115             	3.38659026e+02
116             	3.38842658e+02
117             	3.39026856e+02
118             	3.39210933e+02
119             	3.39394700e+02
120             	3.39570300e+02
121             	3.39748633e+02
122             	3.39918695e+02
123             	3.40089170e+02
124             	3.40259890e+02
125             	3.40430080e+02
126             	3.40597102e+02
127             	3.40759659e+02
128             	3.40919752e+02
129             	3.41079657e+02
130             	3.41239923e+02
131             	3.41400267e+02
132             	3.41552785e+02
133             	3.41707276e+02
134             	3.41859887e+02
135             	3.42011719e+02
136             	3.42159080e+02
137             	3.42304139e+02
138             	3.42446670e+02
139             	3.42585889e+02
140             	3.42721577e+02
141             	3.42855773e+02
142             	3.42987567e+02
143             	3.43118260e+02
144             	3.43249218e+02
145             	3.43379958e+02
146             	3.43507760e+02
147             	3.43632957e+02
148             	3.43756019e+02
149             	3.43872490e+02
150             	3.43988607e+02
151             	3.44102954e+02
152             	3.44209223e+02
153             	3.44315033e+02
154             	3.44420751e+02
155             	3.44526654e+02
156             	3.44633808e+02
157             	3.44742710e+02
158             	3.44848551e+02
159             	3.44958777e+02
160             	3.45071112e+02
161             	3.45183747e+02
162             	3.45293931e+02
163             	3.45395557e+02
164             	3.45500699e+02
165             	3.45606479e+02
166             	3.45711147e+02
167             	3.45813476e+02
168             	3.45915600e+02
169             	3.46021549e+02
170             	3.46115502e+02
171             	3.46210806e+02
172             	3.46306091e+02
173             	3.46396606e+02
174             	3.46485374e+02
175             	3.46567199e+02
176             	3.46653511e+02
177             	3.46742278e+02
178             	3.46831687e+02
179             	3.46921761e+02
180             	3.47014258e+02
181             	3.47106772e+02
182             	3.47197205e+02
183             	3.47287372e+02
184             	3.47376892e+02
185             	3.47463388e+02
186             	3.47545912e+02
187             	3.47627342e+02
188             	3.47701433e+02
189             	3.47773665e+02
190             	3.47844589e+02
191             	3.47913253e+02
192             	3.47985240e+02
193             	3.48056015e+02
194             	3.48123898e+02
195             	3.48191290e+02
196             	3.48262113e+02
197             	3.48334159e+02
198             	3.48405946e+02
199             	3.48474477e+02
200             	3.48541356e+02
201             	3.48608484e+02
202             	3.48674243e+02
203             	3.48734760e+02
204             	3.48789799e+02
205             	3.48845069e+02
206             	3.48900026e+02
207             	3.48952605e+02
208             	3.49006520e+02
209             	3.49062647e+02
210             	3.49119131e+02
211             	3.49177583e+02
212             	3.49237669e+02
213             	3.49299123e+02
214             	3.49361452e+02
215             	3.49423505e+02
216             	3.49482077e+02
217             	3.49540167e+02
218             	3.49596590e+02
219             	3.49649466e+02
220             	3.49701367e+02
221             	3.49750946e+02
222             	3.49800818e+02
223             	3.49851032e+02
224             	3.49901240e+02
225             	3.49951375e+02
226             	3.50000585e+02
227             	3.50044439e+02
228             	3.50090784e+02
229             	3.50138368e+02
230             	3.50185854e+02
231             	3.50233548e+02
232             	3.50285632e+02
233             	3.50332065e+02
234             	3.50378519e+02
235             	3.50426051e+02
236             	3.50473627e+02
237             	3.50520458e+02
238             	3.50565576e+02
239             	3.50605717e+02
240             	3.50646505e+02
241             	3.50682792e+02
242             	3.50720321e+02
243             	3.50756697e+02
244             	3.50793284e+02
245             	3.50830210e+02
246             	3.50867059e+02
247             	3.50904316e+02
248             	3.50940873e+02
249             	3.50977163e+02
250             	3.51015496e+02
251             	3.51052537e+02
252             	3.51093806e+02
253             	3.51130696e+02
254             	3.51166561e+02
255             	3.51202120e+02
256             	3.51234174e+02
257             	3.51268031e+02
258             	3.51302836e+02
259             	3.51335567e+02
260             	3.51367536e+02
261             	3.51401022e+02
262             	3.51432732e+02
263             	3.51465488e+02
264             	3.51495423e+02
265             	3.51523939e+02
266             	3.51551832e+02
267             	3.51578957e+02
268             	3.51605383e+02
269             	3.51631973e+02
270             	3.51657408e+02
271             	3.51681624e+02
272             	3.51703953e+02
273             	3.51724569e+02
274             	3.51745085e+02
275             	3.51765509e+02
276             	3.51785644e+02
277             	3.51805708e+02
278             	3.51826293e+02
279             	3.51847879e+02
280             	3.51872806e+02
281             	3.51894197e+02
282             	3.51915911e+02
283             	3.51938762e+02
284             	3.51962416e+02
285             	3.51985371e+02
286             	3.52009643e+02
287             	3.52034343e+02
288             	3.52058812e+02
289             	3.52082647e+02
290             	3.52104908e+02
291             	3.52125838e+02
292             	3.52145893e+02
293             	3.52165461e+02
294             	3.52183837e+02
295             	3.52202338e+02
296             	3.52219051e+02
297             	3.52235319e+02
298             	3.52251381e+02
299             	3.52267250e+02
300             	3.52281893e+02
301             	3.52297734e+02
302             	3.52314507e+02
303             	3.52331917e+02
304             	3.52349915e+02
305             	3.52368543e+02
306             	3.52385310e+02
307             	3.52403081e+02
308             	3.52421438e+02
309             	3.52440022e+02
310             	3.52458634e+02
311             	3.52477087e+02
312             	3.52495369e+02
313             	3.52513388e+02
314             	3.52531069e+02
315             	3.52548484e+02
316             	3.52564968e+02
317             	3.52580537e+02
318             	3.52595278e+02
319             	3.52609371e+02
320             	3.52623007e+02
321             	3.52636422e+02
322             	3.52649442e+02
323             	3.52660353e+02
324             	3.52672445e+02
325             	3.52685405e+02
326             	3.52698829e+02
327             	3.52712590e+02
328             	3.52726750e+02
329             	3.52741403e+02
330             	3.52756449e+02
331             	3.52771856e+02
332             	3.52787695e+02
333             	3.52803616e+02
334             	3.52819893e+02
335             	3.52836847e+02
336             	3.52854046e+02
337             	3.52871023e+02
338             	3.52887516e+02
339             	3.52903346e+02
340             	3.52918293e+02
341             	3.52932254e+02
342             	3.52945148e+02
343             	3.52956831e+02
344             	3.52967753e+02
345             	3.52977864e+02
346             	3.52983446e+02
347             	3.52990481e+02
348             	3.52997965e+02
349             	3.53005617e+02
350             	3.53013779e+02
351             	3.53022429e+02
352             	3.53031577e+02
353             	3.53040976e+02
354             	3.53049401e+02
355             	3.53058704e+02
356             	3.53069134e+02
357             	3.53078354e+02
358             	3.53087705e+02
359             	3.53093545e+02
360             	3.53102216e+02
361             	3.53112553e+02
362             	3.53123743e+02
363             	3.53135354e+02
364             	3.53143535e+02
365             	3.53153685e+02
366             	3.53165039e+02
367             	3.53178202e+02
368             	3.53190193e+02
369             	3.53201360e+02
370             	3.53212294e+02
371             	3.53222687e+02
372             	3.53232255e+02
373             	3.53241700e+02
374             	3.53248792e+02
375             	3.53254938e+02
376             	3.53260263e+02
377             	3.53264784e+02
378             	3.53268697e+02
379             	3.53270139e+02
380             	3.53272996e+02
381             	3.53277173e+02
382             	3.53281135e+02
383             	3.53286552e+02
384             	3.53292673e+02
385             	3.53299418e+02
386             	3.53306780e+02
387             	3.53314763e+02
388             	3.53323712e+02
389             	3.53332921e+02
390             	3.53341413e+02
391             	3.53349243e+02
392             	3.53356843e+02
393             	3.53363268e+02
394             	3.53368488e+02
395             	3.53372833e+02
396             	3.53376367e+02
397             	3.53377834e+02
398             	3.53380033e+02
399             	3.53380770e+02
400             	3.53382647e+02
401             	3.53385750e+02
402             	3.53389590e+02
403             	3.53393919e+02
404             	3.53398246e+02
405             	3.53403045e+02
406             	3.53408442e+02
407             	3.53414498e+02
408             	3.53421302e+02
409             	3.53428880e+02
410             	3.53436572e+02
411             	3.53444928e+02
412             	3.53453720e+02
413             	3.53462716e+02
414             	3.53471665e+02
415             	3.53480352e+02
416             	3.53488607e+02
417             	3.53496283e+02
418             	3.53503237e+02
419             	3.53509481e+02
420             	3.53515419e+02
421             	3.53520579e+02
422             	3.53524978e+02
423             	3.53527275e+02
424             	3.53529747e+02
425             	3.53532310e+02
426             	3.53534907e+02
427             	3.53537622e+02
428             	3.53539885e+02
429             	3.53542262e+02
430             	3.53544912e+02
431             	3.53548025e+02
432             	3.53551904e+02
433             	3.53556793e+02
434             	3.53563126e+02
435             	3.53569972e+02
436             	3.53577674e+02
437             	3.53586221e+02
438             	3.53595411e+02
439             	3.53605024e+02
440             	3.53614838e+02
441             	3.53624715e+02
442             	3.53634466e+02
443             	3.53643931e+02
444             	3.53652999e+02
445             	3.53661625e+02
446             	3.53669788e+02
447             	3.53677487e+02
448             	3.53684726e+02
449             	3.53691521e+02
450             	3.53697859e+02
451             	3.53703722e+02
452             	3.53709073e+02
453             	3.53713916e+02
454             	3.53718309e+02
455             	3.53722362e+02
456             	3.53726224e+02
457             	3.53730033e+02
458             	3.53733932e+02
459             	3.53737701e+02
460             	3.53741829e+02
461             	3.53746313e+02
462             	3.53751193e+02
463             	3.53756280e+02
464             	3.53761731e+02
465             	3.53767408e+02
466             	3.53773196e+02
467             	3.53779038e+02
468             	3.53784957e+02
469             	3.53791001e+02
470             	3.53797200e+02
471             	3.53803562e+02
472             	3.53810088e+02
473             	3.53816751e+02
474             	3.53823540e+02
475             	3.53830395e+02
476             	3.53837239e+02
477             	3.53843985e+02
478             	3.53850559e+02
479             	3.53856893e+02
480             	3.53862904e+02
481             	3.53868512e+02
482             	3.53873658e+02
483             	3.53878273e+02
484             	3.53882290e+02
485             	3.53885688e+02
486             	3.53888496e+02
487             	3.53890764e+02
488             	3.53892525e+02
489             	3.53893818e+02
490             	3.53894669e+02
491             	3.53895038e+02
492             	3.53894938e+02
493             	3.53894427e+02
494             	3.53893598e+02
495             	3.53892546e+02
496             	3.53891359e+02
497             	3.53890145e+02
498             	3.53888972e+02
499             	3.53887910e+02
500             	3.53887039e+02
501             	3.53886439e+02
502             	3.53886186e+02
503             	3.53886350e+02
504             	3.53886985e+02
505             	3.53888101e+02
506             	3.53889690e+02
507             	3.53891728e+02
508             	3.53894184e+02
509             	3.53897029e+02
510             	3.53900239e+02
511             	3.53903792e+02
512             	3.53907666e+02
513             	3.53911836e+02
514             	3.53916253e+02
515             	3.53920865e+02
516             	3.53925627e+02
517             	3.53930507e+02
518             	3.53935459e+02
519             	3.53940439e+02
520             	3.53945392e+02
521             	3.53950244e+02
522             	3.53954913e+02
523             	3.53959317e+02
524             	3.53963385e+02
525             	3.53967069e+02
526             	3.53970327e+02
527             	3.53973130e+02
528             	3.53975454e+02
529             	3.53977301e+02
530             	3.53978658e+02
531             	3.53979537e+02
532             	3.53979951e+02
533             	3.53979874e+02
534             	3.53979563e+02
535             	3.53979032e+02
536             	3.53978341e+02
537             	3.53977598e+02
538             	3.53976837e+02
539             	3.53976088e+02
540             	3.53975407e+02
541             	3.53974895e+02
542             	3.53974670e+02
543             	3.53974891e+02
544             	3.53975657e+02
545             	3.53977033e+02
546             	3.53979034e+02
547             	3.53981646e+02
548             	3.53984836e+02
549             	3.53988561e+02
550             	3.53992759e+02
551             	3.53997340e+02
552             	3.54002246e+02
553             	3.54007388e+02
554             	3.54012693e+02
555             	3.54018070e+02
556             	3.54023413e+02
557             	3.54028613e+02
558             	3.54033558e+02
559             	3.54038156e+02
560             	3.54042333e+02
561             	3.54046029e+02
562             	3.54049218e+02
563             	3.54051908e+02
564             	3.54054102e+02
565             	3.54055818e+02
566             	3.54057068e+02
567             	3.54057870e+02
568             	3.54058248e+02
569             	3.54058247e+02
570             	3.54057919e+02
571             	3.54057324e+02
572             	3.54056437e+02
573             	3.54055465e+02
574             	3.54054493e+02
575             	3.54053592e+02
576             	3.54052854e+02
577             	3.54052385e+02
578             	3.54052307e+02
579             	3.54052714e+02
580             	3.54053657e+02
581             	3.54055175e+02
582             	3.54057293e+02
583             	3.54060039e+02
584             	3.54063427e+02
585             	3.54067453e+02
586             	3.54072106e+02
587             	3.54077349e+02
588             	3.54083129e+02
589             	3.54089322e+02
590             	3.54095820e+02
591             	3.54102552e+02
592             	3.54109462e+02
593             	3.54116485e+02
594             	3.54123543e+02
595             	3.54130554e+02
596             	3.54137426e+02
597             	3.54144072e+02
598             	3.54150419e+02
599             	3.54156406e+02
600             	3.54161986e+02
601             	3.54167126e+02
602             	3.54171797e+02
603             	3.54175988e+02
604             	3.54179708e+02
605             	3.54182954e+02
606             	3.54185739e+02
607             	3.54188064e+02
608             	3.54189784e+02
609             	3.54191230e+02
610             	3.54192434e+02
611             	3.54193443e+02
612             	3.54194338e+02
613             	3.54195208e+02
614             	3.54196139e+02
615             	3.54197199e+02
616             	3.54198446e+02
617             	3.54199956e+02
618             	3.54201811e+02
619             	3.54204090e+02
620             	3.54206851e+02
621             	3.54210129e+02
