# Region        : cellZone component_1
# Cells         : 27
# Volume        : 3.22053000e-02
# Time          	volAverage(T)
1               	3.04975644e+02
2               	3.09749346e+02
3               	3.13875319e+02
4               	3.17642273e+02
5               	3.21231211e+02
6               	3.24667186e+02
7               	3.27974756e+02
8               	3.31106316e+02
9               	3.34129236e+02
10              	3.37039742e+02
11              	3.39897500e+02
12              	3.42668665e+02
13              	3.45278032e+02
14              	3.47663550e+02
15              	3.50124544e+02
16              	3.52612511e+02
17              	3.55059428e+02
18              	3.57399077e+02
19              	3.59750248e+02
20              	3.62011446e+02
21              	3.64303544e+02
22              	3.66619829e+02
23              	3.68838251e+02
24              	3.71044259e+02
25              	3.73144009e+02
26              	3.75143649e+02
27              	3.77138639e+02
28              	3.78958260e+02
29              	3.80657108e+02
30              	3.82264464e+02
31              	3.83646011e+02
32              	3.84919715e+02
33              	3.86153490e+02
34              	3.87331294e+02
35              	3.88480490e+02
36              	3.89642964e+02
37              	3.90794154e+02
38              	3.92003394e+02
39              	3.93124644e+02
40              	3.94197549e+02
41              	3.95232230e+02
42              	3.96061235e+02
43              	3.96384806e+02
44              	3.96736259e+02
45              	3.97184906e+02
46              	3.97867435e+02
47              	3.98474624e+02
48              	3.99066945e+02
49              	3.99605952e+02
50              	4.00058093e+02
51              	4.00506224e+02
52              	4.00890198e+02
53              	4.01183687e+02
54              	4.01310368e+02
55              	4.01410614e+02
56              	4.01500751e+02
57              	4.01645057e+02
58              	4.01720531e+02
59              	4.02061907e+02
60              	4.02450660e+02
61              	4.02852387e+02
62              	4.03383170e+02
63              	4.03928160e+02
64              	4.04785517e+02
65              	4.05576980e+02
66              	4.06334271e+02
67              	4.06854479e+02
68              	4.07577399e+02
69              	4.08252235e+02
70              	4.08952432e+02
71              	4.09628861e+02
72              	4.10243412e+02
73              	4.10650555e+02
74              	4.10905322e+02
75              	4.11113202e+02
76              	4.11257910e+02
77              	4.11430656e+02
78              	4.11554886e+02
79              	4.11499564e+02
80              	4.11423100e+02
81              	4.11279002e+02
82              	4.11218541e+02
83              	4.11205792e+02
84              	4.11259351e+02
85              	4.11359133e+02
86              	4.11439883e+02
87              	4.11643653e+02
88              	4.11835374e+02
89              	4.12100605e+02
90              	4.12439162e+02
91              	4.12718717e+02
92              	4.13108453e+02
93              	4.13587345e+02
94              	4.14017289e+02
95              	4.14319303e+02
96              	4.14664948e+02
97              	4.15066490e+02
98              	4.15419440e+02
99              	4.15723617e+02
100             	4.16013926e+02
101             	4.16238451e+02
102             	4.16465873e+02
103             	4.16661752e+02
104             	4.16822347e+02
105             	4.16967103e+02
106             	4.17132338e+02
107             	4.17251998e+02
108             	4.17392591e+02
109             	4.17541888e+02
110             	4.17688888e+02
111             	4.17702654e+02
112             	4.17749981e+02
113             	4.17875813e+02
114             	4.17936650e+02
115             	4.18028997e+02
116             	4.18193671e+02
117             	4.18248067e+02
118             	4.18377601e+02
119             	4.18588717e+02
120             	4.18829818e+02
121             	4.19042716e+02
122             	4.19256994e+02
123             	4.19485336e+02
124             	4.19702863e+02
125             	4.19848652e+02
126             	4.19995701e+02
127             	4.20151442e+02
128             	4.20267486e+02
129             	4.20406647e+02
130             	4.20657828e+02
131             	4.20827958e+02
132             	4.21047306e+02
133             	4.21304190e+02
134             	4.21551269e+02
135             	4.21785079e+02
136             	4.22046896e+02
137             	4.22227088e+02
138             	4.22358979e+02
139             	4.22445473e+02
140             	4.22482005e+02
141             	4.22476113e+02
142             	4.22442920e+02
143             	4.22431083e+02
144             	4.22361773e+02
145             	4.22321784e+02
146             	4.22335484e+02
147             	4.22296795e+02
148             	4.22263030e+02
149             	4.22390673e+02
150             	4.22426886e+02
151             	4.22539766e+02
152             	4.22613936e+02
153             	4.22738413e+02
154             	4.22916112e+02
155             	4.23018687e+02
156             	4.23128914e+02
157             	4.23241734e+02
158             	4.23375730e+02
159             	4.23519185e+02
160             	4.23651849e+02
161             	4.23759162e+02
162             	4.23852208e+02
163             	4.23923861e+02
164             	4.24062653e+02
165             	4.24218881e+02
166             	4.24349701e+02
167             	4.24511766e+02
168             	4.24698779e+02
169             	4.24874701e+02
170             	4.25045206e+02
171             	4.25199238e+02
172             	4.25332283e+02
173             	4.25434018e+02
174             	4.25516110e+02
175             	4.25567918e+02
176             	4.25582132e+02
177             	4.25584341e+02
178             	4.25552891e+02
179             	4.25450598e+02
180             	4.25343177e+02
181             	4.25273489e+02
182             	4.25136816e+02
183             	4.25069914e+02
184             	4.25055949e+02
185             	4.24967038e+02
186             	4.24952084e+02
187             	4.24902630e+02
188             	4.24929512e+02
189             	4.24918492e+02
190             	4.24972315e+02
191             	4.24983327e+02
192             	4.25051691e+02
193             	4.25081358e+02
194             	4.25153590e+02
195             	4.25257594e+02
196             	4.25385586e+02
197             	4.25482290e+02
198             	4.25567507e+02
199             	4.25628567e+02
200             	4.25707485e+02
201             	4.25783357e+02
202             	4.25854232e+02
203             	4.25914678e+02
204             	4.25933821e+02
205             	4.25977437e+02
206             	4.26022504e+02
207             	4.26048654e+02
208             	4.26058507e+02
209             	4.26074178e+02
210             	4.26107755e+02
211             	4.26154015e+02
212             	4.26166668e+02
213             	4.26171479e+02
214             	4.26177299e+02
215             	4.26178654e+02
216             	4.26166522e+02
217             	4.26135856e+02
218             	4.26102195e+02
219             	4.26034292e+02
220             	4.25920347e+02
221             	4.25882658e+02
222             	4.25788470e+02
223             	4.25751192e+02
224             	4.25685504e+02
225             	4.25655465e+02
226             	4.25666800e+02
227             	4.25687408e+02
228             	4.25648047e+02
229             	4.25612410e+02
230             	4.25608730e+02
231             	4.25610171e+02
232             	4.25624419e+02
233             	4.25559407e+02
234             	4.25534817e+02
235             	4.25589433e+02
236             	4.25548243e+02
237             	4.25583265e+02
238             	4.25578575e+02
239             	4.25631723e+02
240             	4.25717542e+02
241             	4.25721133e+02
242             	4.25752001e+02
243             	4.25808261e+02
244             	4.25876376e+02
245             	4.25926783e+02
246             	4.25960926e+02
247             	4.25986558e+02
248             	4.26011583e+02
249             	4.26043660e+02
250             	4.26060603e+02
251             	4.26103611e+02
252             	4.26156905e+02
253             	4.26202998e+02
254             	4.26240776e+02
255             	4.26273269e+02
256             	4.26308660e+02
257             	4.26359474e+02
258             	4.26324350e+02
259             	4.26320263e+02
260             	4.26387395e+02
261             	4.26431475e+02
262             	4.26452752e+02
263             	4.26474676e+02
264             	4.26496280e+02
265             	4.26513667e+02
266             	4.26521648e+02
267             	4.26533062e+02
268             	4.26546347e+02
269             	4.26541258e+02
270             	4.26466526e+02
271             	4.26353905e+02
272             	4.26279511e+02
273             	4.26173323e+02
274             	4.26177162e+02
275             	4.26107264e+02
276             	4.26114885e+02
277             	4.26070318e+02
278             	4.26086021e+02
279             	4.26110500e+02
280             	4.26133997e+02
281             	4.26185315e+02
282             	4.26271475e+02
283             	4.26359126e+02
284             	4.26426494e+02
285             	4.26474920e+02
286             	4.26513840e+02
287             	4.26509662e+02
288             	4.26577496e+02
289             	4.26542844e+02
290             	4.26551598e+02
291             	4.26601084e+02
292             	4.26576319e+02
293             	4.26599761e+02
294             	4.26656394e+02
295             	4.26732355e+02
296             	4.26785204e+02
297             	4.26816394e+02
298             	4.26781427e+02
299             	4.26712170e+02
300             	4.26623301e+02
301             	4.26584825e+02
302             	4.26480477e+02
303             	4.26415341e+02
304             	4.26305631e+02
305             	4.26298774e+02
306             	4.26279873e+02
307             	4.26288390e+02
308             	4.26250397e+02
309             	4.26262669e+02
310             	4.26303477e+02
311             	4.26377771e+02
312             	4.26359482e+02
313             	4.26385981e+02
314             	4.26476836e+02
315             	4.26455713e+02
316             	4.26482853e+02
317             	4.26465745e+02
318             	4.26495596e+02
319             	4.26483919e+02
320             	4.26541476e+02
321             	4.26629422e+02
322             	4.26710527e+02
323             	4.26780344e+02
324             	4.26840896e+02
325             	4.26897516e+02
326             	4.26941380e+02
327             	4.26975291e+02
328             	4.27002753e+02
329             	4.26937568e+02
330             	4.26946376e+02
331             	4.26906997e+02
332             	4.26913756e+02
333             	4.26881642e+02
334             	4.26902974e+02
335             	4.26957230e+02
336             	4.27024937e+02
337             	4.27078642e+02
338             	4.27118903e+02
339             	4.27121641e+02
340             	4.27111079e+02
341             	4.27095814e+02
342             	4.27046600e+02
343             	4.27051866e+02
344             	4.27052438e+02
345             	4.26947776e+02
346             	4.26900380e+02
347             	4.26919376e+02
348             	4.26835936e+02
349             	4.26808956e+02
350             	4.26843399e+02
351             	4.26836631e+02
352             	4.26845989e+02
353             	4.26876406e+02
354             	4.26920958e+02
355             	4.26961427e+02
356             	4.26982128e+02
357             	4.26993880e+02
358             	4.27014296e+02
359             	4.26948966e+02
360             	4.26922376e+02
361             	4.26939210e+02
362             	4.26867568e+02
363             	4.26842955e+02
364             	4.26788847e+02
365             	4.26797469e+02
366             	4.26847091e+02
367             	4.26808227e+02
368             	4.26816535e+02
369             	4.26866974e+02
370             	4.26854745e+02
371             	4.26878335e+02
372             	4.26922299e+02
373             	4.26981458e+02
374             	4.27057747e+02
375             	4.27026383e+02
376             	4.27028123e+02
377             	4.27089018e+02
378             	4.27090458e+02
379             	4.27094990e+02
380             	4.27106685e+02
381             	4.27134687e+02
382             	4.27168890e+02
383             	4.27167376e+02
384             	4.27163071e+02
385             	4.27089305e+02
386             	4.27054255e+02
387             	4.27049143e+02
388             	4.26966294e+02
389             	4.26928780e+02
390             	4.26945019e+02
391             	4.26878247e+02
392             	4.26860294e+02
393             	4.26895186e+02
394             	4.26846975e+02
395             	4.26844992e+02
396             	4.26887499e+02
397             	4.26846160e+02
398             	4.26851909e+02
399             	4.26914113e+02
400             	4.26878410e+02
401             	4.26886022e+02
402             	4.26954582e+02
403             	4.27017173e+02
404             	4.27074744e+02
405             	4.27133154e+02
406             	4.27190926e+02
407             	4.27247275e+02
408             	4.27299171e+02
409             	4.27248790e+02
410             	4.27233825e+02
411             	4.27245724e+02
412             	4.27194071e+02
413             	4.27187960e+02
414             	4.27216023e+02
415             	4.27241668e+02
416             	4.27247193e+02
417             	4.27241389e+02
418             	4.27160055e+02
419             	4.27127547e+02
420             	4.27140397e+02
421             	4.27076138e+02
422             	4.27078037e+02
423             	4.27065085e+02
424             	4.27065391e+02
425             	4.27100141e+02
426             	4.27115036e+02
427             	4.27055813e+02
428             	4.27045636e+02
429             	4.27078690e+02
430             	4.27015574e+02
431             	4.27007178e+02
432             	4.27052089e+02
433             	4.27005715e+02
434             	4.26982239e+02
435             	4.26997677e+02
436             	4.26946722e+02
437             	4.26954571e+02
438             	4.27024612e+02
439             	4.26993572e+02
440             	4.27004767e+02
441             	4.27052264e+02
442             	4.27012949e+02
443             	4.27036036e+02
444             	4.27044971e+02
445             	4.27067189e+02
446             	4.27142496e+02
447             	4.27179775e+02
448             	4.27223744e+02
449             	4.27260020e+02
450             	4.27265788e+02
451             	4.27241451e+02
452             	4.27203643e+02
453             	4.27119501e+02
454             	4.27069712e+02
455             	4.26990751e+02
456             	4.26974152e+02
457             	4.26907987e+02
458             	4.26903273e+02
459             	4.26879155e+02
460             	4.26927693e+02
461             	4.26944359e+02
462             	4.26955039e+02
463             	4.26976472e+02
464             	4.26984149e+02
465             	4.26981267e+02
466             	4.26908745e+02
467             	4.26881176e+02
468             	4.26812804e+02
469             	4.26809002e+02
470             	4.26763968e+02
471             	4.26777952e+02
472             	4.26751708e+02
473             	4.26789911e+02
474             	4.26881826e+02
475             	4.26891243e+02
476             	4.26955740e+02
477             	4.27000787e+02
478             	4.27036558e+02
479             	4.27072416e+02
480             	4.27109556e+02
481             	4.27149593e+02
482             	4.27185028e+02
483             	4.27200254e+02
484             	4.27202662e+02
485             	4.27207499e+02
486             	4.27125032e+02
487             	4.27084392e+02
488             	4.27102486e+02
489             	4.27027895e+02
490             	4.27001631e+02
491             	4.27013837e+02
492             	4.26953358e+02
493             	4.26929974e+02
494             	4.26942963e+02
495             	4.26990446e+02
496             	4.26938325e+02
497             	4.26933104e+02
498             	4.26959465e+02
499             	4.26983243e+02
500             	4.27017381e+02
501             	4.26970280e+02
502             	4.26965395e+02
503             	4.26992707e+02
504             	4.26947922e+02
505             	4.26938845e+02
506             	4.26976236e+02
507             	4.26927423e+02
508             	4.26913026e+02
509             	4.26945239e+02
510             	4.26903618e+02
511             	4.26899384e+02
512             	4.26923240e+02
513             	4.26953357e+02
514             	4.26904622e+02
515             	4.26898434e+02
516             	4.26928120e+02
517             	4.26879892e+02
518             	4.26875827e+02
519             	4.26924837e+02
520             	4.26894961e+02
521             	4.26918161e+02
522             	4.26947498e+02
523             	4.26982447e+02
524             	4.27026992e+02
525             	4.27077099e+02
526             	4.27122754e+02
527             	4.27134899e+02
528             	4.27118041e+02
529             	4.27131296e+02
530             	4.27056364e+02
531             	4.27031722e+02
532             	4.27066056e+02
533             	4.27001422e+02
534             	4.27001727e+02
535             	4.27037092e+02
536             	4.27005845e+02
537             	4.27020471e+02
538             	4.27059617e+02
539             	4.27107916e+02
540             	4.27154459e+02
541             	4.27194813e+02
542             	4.27230903e+02
543             	4.27263283e+02
544             	4.27190610e+02
545             	4.27154157e+02
546             	4.27154925e+02
547             	4.27084001e+02
548             	4.27055254e+02
549             	4.27059530e+02
550             	4.26994805e+02
551             	4.26982141e+02
552             	4.27022364e+02
553             	4.26974234e+02
554             	4.26980486e+02
555             	4.27009581e+02
556             	4.27065447e+02
557             	4.27029503e+02
558             	4.27029414e+02
559             	4.27061172e+02
560             	4.27117414e+02
561             	4.27074418e+02
562             	4.27062007e+02
563             	4.27080468e+02
564             	4.27034696e+02
565             	4.27021391e+02
566             	4.27041393e+02
567             	4.26989100e+02
568             	4.26975792e+02
569             	4.27000414e+02
570             	4.26951983e+02
571             	4.26943469e+02
572             	4.26973601e+02
573             	4.26927748e+02
574             	4.26925815e+02
575             	4.26966777e+02
576             	4.26930063e+02
577             	4.26932308e+02
578             	4.26974051e+02
579             	4.26939337e+02
580             	4.26942375e+02
581             	4.26983773e+02
582             	4.26948142e+02
583             	4.26951753e+02
584             	4.26983088e+02
585             	4.26943127e+02
586             	4.26941220e+02
587             	4.26973582e+02
588             	4.26931016e+02
589             	4.26925796e+02
590             	4.26958508e+02
591             	4.26911344e+02
592             	4.26907066e+02
593             	4.26948559e+02
594             	4.26912912e+02
595             	4.26913325e+02
596             	4.26939406e+02
597             	4.26985196e+02
598             	4.26944766e+02
599             	4.26928501e+02
600             	4.26942926e+02
601             	4.26891646e+02
602             	4.26882144e+02
603             	4.26912613e+02
604             	4.26857599e+02
605             	4.26844140e+02
606             	4.26880209e+02
607             	4.26847300e+02
608             	4.26842380e+02
609             	4.26862322e+02
610             	4.26917545e+02
611             	4.26867489e+02
612             	4.26863236e+02
613             	4.26904026e+02
614             	4.26862472e+02
615             	4.26867891e+02
616             	4.26894813e+02
617             	4.26950366e+02
618             	4.26907564e+02
619             	4.26900893e+02
620             	4.26928374e+02
621             	4.26986130e+02
