# Region        : cellZone component_3
# Cells         : 134
# Volume        : 2.55757373e-01
# Time          	volAverage(T)
1               	3.00563678e+02
2               	3.01119505e+02
3               	3.01642988e+02
4               	3.02142717e+02
5               	3.02627772e+02
6               	3.03100723e+02
7               	3.03562821e+02
8               	3.04015927e+02
9               	3.04463118e+02
10              	3.04903807e+02
11              	3.05335017e+02
12              	3.05758809e+02
13              	3.06174285e+02
14              	3.06582459e+02
15              	3.06975106e+02
16              	3.07351318e+02
17              	3.07712440e+02
18              	3.08068409e+02
19              	3.08421204e+02
20              	3.08771050e+02
21              	3.09111675e+02
22              	3.09441939e+02
23              	3.09760121e+02
24              	3.10069740e+02
25              	3.10372725e+02
26              	3.10690530e+02
27              	3.11017446e+02
28              	3.11315723e+02
29              	3.11583032e+02
30              	3.11827450e+02
31              	3.12034050e+02
32              	3.12219921e+02
33              	3.12393288e+02
34              	3.12567724e+02
35              	3.12761567e+02
36              	3.12960551e+02
37              	3.13152843e+02
38              	3.13339332e+02
39              	3.13523803e+02
40              	3.13703267e+02
41              	3.13878635e+02
42              	3.14060709e+02
43              	3.14247372e+02
44              	3.14428280e+02
45              	3.14600540e+02
46              	3.14744422e+02
47              	3.14866258e+02
48              	3.14982718e+02
49              	3.15103094e+02
50              	3.15240182e+02
51              	3.15380011e+02
52              	3.15518587e+02
53              	3.15654390e+02
54              	3.15787788e+02
55              	3.15913175e+02
56              	3.16041049e+02
57              	3.16180213e+02
58              	3.16323738e+02
59              	3.16474278e+02
60              	3.16644438e+02
61              	3.16787063e+02
62              	3.16877582e+02
63              	3.16951666e+02
64              	3.17048331e+02
65              	3.17161147e+02
66              	3.17273153e+02
67              	3.17379871e+02
68              	3.17475859e+02
69              	3.17577215e+02
70              	3.17680573e+02
71              	3.17789508e+02
72              	3.17906385e+02
73              	3.18052791e+02
74              	3.18179086e+02
75              	3.18256666e+02
76              	3.18305905e+02
77              	3.18366022e+02
78              	3.18449977e+02
79              	3.18535733e+02
80              	3.18620552e+02
81              	3.18701409e+02
82              	3.18779436e+02
83              	3.18855113e+02
84              	3.18928779e+02
85              	3.18998545e+02
86              	3.19066496e+02
87              	3.19136825e+02
88              	3.19208032e+02
89              	3.19280957e+02
90              	3.19352709e+02
91              	3.19418944e+02
92              	3.19480927e+02
93              	3.19544240e+02
94              	3.19604264e+02
95              	3.19661288e+02
96              	3.19715730e+02
97              	3.19768959e+02
98              	3.19820484e+02
99              	3.19871796e+02
100             	3.19929328e+02
101             	3.19990495e+02
102             	3.20054211e+02
103             	3.20111239e+02
104             	3.20166110e+02
105             	3.20220507e+02
106             	3.20271497e+02
107             	3.20319973e+02
108             	3.20368077e+02
109             	3.20410702e+02
110             	3.20449189e+02
111             	3.20486029e+02
112             	3.20521079e+02
113             	3.20556349e+02
114             	3.20591163e+02
115             	3.20625315e+02
116             	3.20658983e+02
117             	3.20692655e+02
118             	3.20728729e+02
119             	3.20774392e+02
120             	3.20818196e+02
121             	3.20858339e+02
122             	3.20902046e+02
123             	3.20941903e+02
124             	3.20979167e+02
125             	3.21013930e+02
126             	3.21045533e+02
127             	3.21074376e+02
128             	3.21099224e+02
129             	3.21122056e+02
130             	3.21143126e+02
131             	3.21164499e+02
132             	3.21186033e+02
133             	3.21208244e+02
134             	3.21232485e+02
135             	3.21257864e+02
136             	3.21283521e+02
137             	3.21307958e+02
138             	3.21331263e+02
139             	3.21354338e+02
140             	3.21376590e+02
141             	3.21396155e+02
142             	3.21414483e+02
143             	3.21430820e+02
144             	3.21445582e+02
145             	3.21459549e+02
146             	3.21473394e+02
147             	3.21487345e+02
148             	3.21500845e+02
149             	3.21515134e+02
150             	3.21529548e+02
151             	3.21545921e+02
152             	3.21564985e+02
153             	3.21582697e+02
154             	3.21598952e+02
155             	3.21616050e+02
156             	3.21632504e+02
157             	3.21647536e+02
158             	3.21661193e+02
159             	3.21672843e+02
160             	3.21683779e+02
161             	3.21694282e+02
162             	3.21704737e+02
163             	3.21715423e+02
164             	3.21726133e+02
165             	3.21739145e+02
166             	3.21752013e+02
167             	3.21764559e+02
168             	3.21776631e+02
169             	3.21788752e+02
170             	3.21799573e+02
171             	3.21809305e+02
172             	3.21818194e+02
173             	3.21827674e+02
174             	3.21836579e+02
175             	3.21845947e+02
176             	3.21856629e+02
177             	3.21868906e+02
178             	3.21880648e+02
179             	3.21891808e+02
180             	3.21902190e+02
181             	3.21912457e+02
182             	3.21921943e+02
183             	3.21930212e+02
184             	3.21937667e+02
185             	3.21944718e+02
186             	3.21951970e+02
187             	3.21958944e+02
188             	3.21966561e+02
189             	3.21974550e+02
190             	3.21983484e+02
191             	3.21992060e+02
192             	3.22001521e+02
193             	3.22009843e+02
194             	3.22018050e+02
195             	3.22025887e+02
196             	3.22033138e+02
197             	3.22039620e+02
198             	3.22045285e+02
199             	3.22050493e+02
200             	3.22056096e+02
201             	3.22061568e+02
202             	3.22067268e+02
203             	3.22073376e+02
204             	3.22079412e+02
205             	3.22085791e+02
206             	3.22092069e+02
207             	3.22098231e+02
208             	3.22104258e+02
209             	3.22110046e+02
210             	3.22115442e+02
211             	3.22120213e+02
212             	3.22124378e+02
213             	3.22128585e+02
214             	3.22132758e+02
215             	3.22136970e+02
216             	3.22141368e+02
217             	3.22146171e+02
218             	3.22151374e+02
219             	3.22156694e+02
220             	3.22161628e+02
221             	3.22166318e+02
222             	3.22170723e+02
223             	3.22174778e+02
224             	3.22178448e+02
225             	3.22181783e+02
226             	3.22184922e+02
227             	3.22188316e+02
228             	3.22191565e+02
229             	3.22194901e+02
230             	3.22198388e+02
231             	3.22202084e+02
232             	3.22206039e+02
233             	3.22210123e+02
234             	3.22214175e+02
235             	3.22218255e+02
236             	3.22222295e+02
237             	3.22226287e+02
238             	3.22230119e+02
239             	3.22233729e+02
240             	3.22237080e+02
241             	3.22240154e+02
242             	3.22242934e+02
243             	3.22245397e+02
244             	3.22247551e+02
245             	3.22249588e+02
246             	3.22251857e+02
247             	3.22254207e+02
248             	3.22256779e+02
249             	3.22259609e+02
250             	3.22262736e+02
251             	3.22266188e+02
252             	3.22269935e+02
253             	3.22273573e+02
254             	3.22276757e+02
255             	3.22279694e+02
256             	3.22282323e+02
257             	3.22284617e+02
258             	3.22286771e+02
259             	3.22288974e+02
260             	3.22291229e+02
261             	3.22293583e+02
262             	3.22296104e+02
263             	3.22298858e+02
264             	3.22301847e+02
265             	3.22305056e+02
266             	3.22308124e+02
267             	3.22310808e+02
268             	3.22313290e+02
269             	3.22315512e+02
270             	3.22317448e+02
271             	3.22319271e+02
272             	3.22321273e+02
273             	3.22323268e+02
274             	3.22325366e+02
275             	3.22327650e+02
276             	3.22330161e+02
277             	3.22332786e+02
278             	3.22335556e+02
279             	3.22338069e+02
280             	3.22340435e+02
281             	3.22342619e+02
282             	3.22344559e+02
283             	3.22346232e+02
284             	3.22347718e+02
285             	3.22349302e+02
286             	3.22350874e+02
287             	3.22352529e+02
288             	3.22354346e+02
289             	3.22356347e+02
290             	3.22358529e+02
291             	3.22360705e+02
292             	3.22362950e+02
293             	3.22364967e+02
294             	3.22366836e+02
295             	3.22368510e+02
296             	3.22369953e+02
297             	3.22371175e+02
298             	3.22372313e+02
299             	3.22373605e+02
300             	3.22374909e+02
301             	3.22376325e+02
302             	3.22377905e+02
303             	3.22379681e+02
304             	3.22381573e+02
305             	3.22383472e+02
306             	3.22385431e+02
307             	3.22387205e+02
308             	3.22388875e+02
309             	3.22390381e+02
310             	3.22391694e+02
311             	3.22392808e+02
312             	3.22393900e+02
313             	3.22395102e+02
314             	3.22396283e+02
315             	3.22397541e+02
316             	3.22398918e+02
317             	3.22400422e+02
318             	3.22401962e+02
319             	3.22403596e+02
320             	3.22405171e+02
321             	3.22406586e+02
322             	3.22407909e+02
323             	3.22409107e+02
324             	3.22410162e+02
325             	3.22411174e+02
326             	3.22412216e+02
327             	3.22413266e+02
328             	3.22414338e+02
329             	3.22415478e+02
330             	3.22416714e+02
331             	3.22418050e+02
332             	3.22419406e+02
333             	3.22420838e+02
334             	3.22422205e+02
335             	3.22423570e+02
336             	3.22424893e+02
337             	3.22426140e+02
338             	3.22427300e+02
339             	3.22428361e+02
340             	3.22429316e+02
341             	3.22430158e+02
342             	3.22430940e+02
343             	3.22431714e+02
344             	3.22432553e+02
345             	3.22433401e+02
346             	3.22434318e+02
347             	3.22435321e+02
348             	3.22436440e+02
349             	3.22437676e+02
350             	3.22438931e+02
351             	3.22440062e+02
352             	3.22441132e+02
353             	3.22442142e+02
354             	3.22443032e+02
355             	3.22443893e+02
356             	3.22444724e+02
357             	3.22445568e+02
358             	3.22446429e+02
359             	3.22447336e+02
360             	3.22448349e+02
361             	3.22449365e+02
362             	3.22450400e+02
363             	3.22451332e+02
364             	3.22452189e+02
365             	3.22452967e+02
366             	3.22453652e+02
367             	3.22454297e+02
368             	3.22455010e+02
369             	3.22455730e+02
370             	3.22456491e+02
371             	3.22457341e+02
372             	3.22458282e+02
373             	3.22459287e+02
374             	3.22460332e+02
375             	3.22461323e+02
376             	3.22462228e+02
377             	3.22463058e+02
378             	3.22463795e+02
379             	3.22464443e+02
380             	3.22465026e+02
381             	3.22465590e+02
382             	3.22466206e+02
383             	3.22466872e+02
384             	3.22467603e+02
385             	3.22468406e+02
386             	3.22469255e+02
387             	3.22470112e+02
388             	3.22470957e+02
389             	3.22471707e+02
390             	3.22472402e+02
391             	3.22473018e+02
392             	3.22473554e+02
393             	3.22474038e+02
394             	3.22474574e+02
395             	3.22475147e+02
396             	3.22475779e+02
397             	3.22476489e+02
398             	3.22477283e+02
399             	3.22478121e+02
400             	3.22478977e+02
401             	3.22479714e+02
402             	3.22480381e+02
403             	3.22480970e+02
404             	3.22481487e+02
405             	3.22481971e+02
406             	3.22482465e+02
407             	3.22482997e+02
408             	3.22483534e+02
409             	3.22484125e+02
410             	3.22484782e+02
411             	3.22485487e+02
412             	3.22486213e+02
413             	3.22486889e+02
414             	3.22487541e+02
415             	3.22488156e+02
416             	3.22488711e+02
417             	3.22489191e+02
418             	3.22489588e+02
419             	3.22489950e+02
420             	3.22490363e+02
421             	3.22490772e+02
422             	3.22491215e+02
423             	3.22491716e+02
424             	3.22492282e+02
425             	3.22492892e+02
426             	3.22493533e+02
427             	3.22494143e+02
428             	3.22494678e+02
429             	3.22495174e+02
430             	3.22495619e+02
431             	3.22496005e+02
432             	3.22496338e+02
433             	3.22496712e+02
434             	3.22497136e+02
435             	3.22497586e+02
436             	3.22498105e+02
437             	3.22498685e+02
438             	3.22499278e+02
439             	3.22499914e+02
440             	3.22500516e+02
441             	3.22501042e+02
442             	3.22501522e+02
443             	3.22501943e+02
444             	3.22502288e+02
445             	3.22502583e+02
446             	3.22502884e+02
447             	3.22503241e+02
448             	3.22503618e+02
449             	3.22504046e+02
450             	3.22504592e+02
451             	3.22505194e+02
452             	3.22505835e+02
453             	3.22506419e+02
454             	3.22506925e+02
455             	3.22507376e+02
456             	3.22507743e+02
457             	3.22508023e+02
458             	3.22508276e+02
459             	3.22508560e+02
460             	3.22508895e+02
461             	3.22509269e+02
462             	3.22509720e+02
463             	3.22510257e+02
464             	3.22510798e+02
465             	3.22511344e+02
466             	3.22511838e+02
467             	3.22512308e+02
468             	3.22512729e+02
469             	3.22513079e+02
470             	3.22513341e+02
471             	3.22513531e+02
472             	3.22513739e+02
473             	3.22513934e+02
474             	3.22514121e+02
475             	3.22514322e+02
476             	3.22514559e+02
477             	3.22514847e+02
478             	3.22515226e+02
479             	3.22515653e+02
480             	3.22516071e+02
481             	3.22516495e+02
482             	3.22516919e+02
483             	3.22517332e+02
484             	3.22517716e+02
485             	3.22518056e+02
486             	3.22518345e+02
487             	3.22518576e+02
488             	3.22518771e+02
489             	3.22518950e+02
490             	3.22519143e+02
491             	3.22519342e+02
492             	3.22519568e+02
493             	3.22519834e+02
494             	3.22520152e+02
495             	3.22520505e+02
496             	3.22520864e+02
497             	3.22521189e+02
498             	3.22521489e+02
499             	3.22521759e+02
500             	3.22521985e+02
501             	3.22522187e+02
502             	3.22522380e+02
503             	3.22522566e+02
504             	3.22522752e+02
505             	3.22522951e+02
506             	3.22523177e+02
507             	3.22523438e+02
508             	3.22523743e+02
509             	3.22524058e+02
510             	3.22524352e+02
511             	3.22524642e+02
512             	3.22524921e+02
513             	3.22525179e+02
514             	3.22525408e+02
515             	3.22525611e+02
516             	3.22525810e+02
517             	3.22525992e+02
518             	3.22526166e+02
519             	3.22526341e+02
520             	3.22526539e+02
521             	3.22526761e+02
522             	3.22526998e+02
523             	3.22527261e+02
524             	3.22527540e+02
525             	3.22527828e+02
526             	3.22528093e+02
527             	3.22528321e+02
528             	3.22528523e+02
529             	3.22528694e+02
530             	3.22528835e+02
531             	3.22528974e+02
532             	3.22529119e+02
533             	3.22529263e+02
534             	3.22529421e+02
535             	3.22529602e+02
536             	3.22529810e+02
537             	3.22530043e+02
538             	3.22530297e+02
539             	3.22530537e+02
540             	3.22530774e+02
541             	3.22531006e+02
542             	3.22531222e+02
543             	3.22531418e+02
544             	3.22531588e+02
545             	3.22531731e+02
546             	3.22531868e+02
547             	3.22532001e+02
548             	3.22532126e+02
549             	3.22532252e+02
550             	3.22532390e+02
551             	3.22532554e+02
552             	3.22532763e+02
553             	3.22532995e+02
554             	3.22533229e+02
555             	3.22533448e+02
556             	3.22533644e+02
557             	3.22533823e+02
558             	3.22533974e+02
559             	3.22534105e+02
560             	3.22534228e+02
561             	3.22534361e+02
562             	3.22534494e+02
563             	3.22534642e+02
564             	3.22534813e+02
565             	3.22535002e+02
566             	3.22535200e+02
567             	3.22535398e+02
568             	3.22535578e+02
569             	3.22535743e+02
570             	3.22535892e+02
571             	3.22536015e+02
572             	3.22536111e+02
573             	3.22536203e+02
574             	3.22536309e+02
575             	3.22536417e+02
576             	3.22536536e+02
577             	3.22536671e+02
578             	3.22536837e+02
579             	3.22537026e+02
580             	3.22537215e+02
581             	3.22537388e+02
582             	3.22537538e+02
583             	3.22537674e+02
584             	3.22537792e+02
585             	3.22537890e+02
586             	3.22537993e+02
587             	3.22538100e+02
588             	3.22538214e+02
589             	3.22538339e+02
590             	3.22538480e+02
591             	3.22538641e+02
592             	3.22538815e+02
593             	3.22538989e+02
594             	3.22539136e+02
595             	3.22539267e+02
596             	3.22539378e+02
597             	3.22539468e+02
598             	3.22539551e+02
599             	3.22539641e+02
600             	3.22539733e+02
601             	3.22539834e+02
602             	3.22539947e+02
603             	3.22540077e+02
604             	3.22540221e+02
605             	3.22540380e+02
606             	3.22540526e+02
607             	3.22540654e+02
608             	3.22540774e+02
609             	3.22540880e+02
610             	3.22540963e+02
611             	3.22541028e+02
612             	3.22541094e+02
613             	3.22541173e+02
614             	3.22541258e+02
615             	3.22541357e+02
616             	3.22541480e+02
617             	3.22541620e+02
618             	3.22541774e+02
619             	3.22541917e+02
620             	3.22542046e+02
621             	3.22542167e+02
