# Region        : cellZone component_1
# Cells         : 128
# Volume        : 2.50941491e-01
# Time          	volAverage(T)
1               	3.00213550e+02
2               	3.00425060e+02
3               	3.00623705e+02
4               	3.00813754e+02
5               	3.01000152e+02
6               	3.01183704e+02
7               	3.01364465e+02
8               	3.01543370e+02
9               	3.01722150e+02
10              	3.01899308e+02
11              	3.02070486e+02
12              	3.02233013e+02
13              	3.02388765e+02
14              	3.02544117e+02
15              	3.02695188e+02
16              	3.02843665e+02
17              	3.02981252e+02
18              	3.03122079e+02
19              	3.03266443e+02
20              	3.03414019e+02
21              	3.03560100e+02
22              	3.03699661e+02
23              	3.03828377e+02
24              	3.03961163e+02
25              	3.04098140e+02
26              	3.04236861e+02
27              	3.04373405e+02
28              	3.04507793e+02
29              	3.04631658e+02
30              	3.04754358e+02
31              	3.04875497e+02
32              	3.04990553e+02
33              	3.05108843e+02
34              	3.05222565e+02
35              	3.05333281e+02
36              	3.05441755e+02
37              	3.05552509e+02
38              	3.05658547e+02
39              	3.05764038e+02
40              	3.05868964e+02
41              	3.05966910e+02
42              	3.06059074e+02
43              	3.06150362e+02
44              	3.06239131e+02
45              	3.06330232e+02
46              	3.06425020e+02
47              	3.06518724e+02
48              	3.06610465e+02
49              	3.06700401e+02
50              	3.06790070e+02
51              	3.06881067e+02
52              	3.06970190e+02
53              	3.07061622e+02
54              	3.07153378e+02
55              	3.07244535e+02
56              	3.07336058e+02
57              	3.07421109e+02
58              	3.07502342e+02
59              	3.07581551e+02
60              	3.07658010e+02
61              	3.07733406e+02
62              	3.07813510e+02
63              	3.07886831e+02
64              	3.07947593e+02
65              	3.08007118e+02
66              	3.08065240e+02
67              	3.08126048e+02
68              	3.08191914e+02
69              	3.08254114e+02
70              	3.08313505e+02
71              	3.08369347e+02
72              	3.08427711e+02
73              	3.08486372e+02
74              	3.08545244e+02
75              	3.08606412e+02
76              	3.08669233e+02
77              	3.08732335e+02
78              	3.08797830e+02
79              	3.08863793e+02
80              	3.08930696e+02
81              	3.08997726e+02
82              	3.09063085e+02
83              	3.09123658e+02
84              	3.09181762e+02
85              	3.09241145e+02
86              	3.09299955e+02
87              	3.09358442e+02
88              	3.09415884e+02
89              	3.09469943e+02
90              	3.09527477e+02
91              	3.09581260e+02
92              	3.09632260e+02
93              	3.09681647e+02
94              	3.09730296e+02
95              	3.09778941e+02
96              	3.09828335e+02
97              	3.09876557e+02
98              	3.09925890e+02
99              	3.09974774e+02
100             	3.10023837e+02
101             	3.10071698e+02
102             	3.10120605e+02
103             	3.10171040e+02
104             	3.10216712e+02
105             	3.10259702e+02
106             	3.10303538e+02
107             	3.10345631e+02
108             	3.10386126e+02
109             	3.10424889e+02
110             	3.10461673e+02
111             	3.10498103e+02
112             	3.10536145e+02
113             	3.10572748e+02
114             	3.10611813e+02
115             	3.10647012e+02
116             	3.10686735e+02
117             	3.10728101e+02
118             	3.10770597e+02
119             	3.10813848e+02
120             	3.10857615e+02
121             	3.10899186e+02
122             	3.10937688e+02
123             	3.10974924e+02
124             	3.11009211e+02
125             	3.11041727e+02
126             	3.11075357e+02
127             	3.11107551e+02
128             	3.11141254e+02
129             	3.11173112e+02
130             	3.11205490e+02
131             	3.11238377e+02
132             	3.11270196e+02
133             	3.11300495e+02
134             	3.11330274e+02
135             	3.11360304e+02
136             	3.11392280e+02
137             	3.11420770e+02
138             	3.11448162e+02
139             	3.11477536e+02
140             	3.11507535e+02
141             	3.11536909e+02
142             	3.11564598e+02
143             	3.11590433e+02
144             	3.11616537e+02
145             	3.11643158e+02
146             	3.11669636e+02
147             	3.11695736e+02
148             	3.11719426e+02
149             	3.11745792e+02
150             	3.11774047e+02
151             	3.11802291e+02
152             	3.11830798e+02
153             	3.11855597e+02
154             	3.11882143e+02
155             	3.11909537e+02
156             	3.11933540e+02
157             	3.11956409e+02
158             	3.11978086e+02
159             	3.11996308e+02
160             	3.12012644e+02
161             	3.12028859e+02
162             	3.12044685e+02
163             	3.12060831e+02
164             	3.12077042e+02
165             	3.12094158e+02
166             	3.12112954e+02
167             	3.12134625e+02
168             	3.12158987e+02
169             	3.12185351e+02
170             	3.12212219e+02
171             	3.12237278e+02
172             	3.12260895e+02
173             	3.12283998e+02
174             	3.12305972e+02
175             	3.12326042e+02
176             	3.12344173e+02
177             	3.12362224e+02
178             	3.12379295e+02
179             	3.12395583e+02
180             	3.12411237e+02
181             	3.12427478e+02
182             	3.12444605e+02
183             	3.12462840e+02
184             	3.12483240e+02
185             	3.12503469e+02
186             	3.12522949e+02
187             	3.12543725e+02
188             	3.12562956e+02
189             	3.12581759e+02
190             	3.12598608e+02
191             	3.12617021e+02
192             	3.12636091e+02
193             	3.12655197e+02
194             	3.12665388e+02
195             	3.12679280e+02
196             	3.12692729e+02
197             	3.12704406e+02
198             	3.12713977e+02
199             	3.12718550e+02
200             	3.12722561e+02
201             	3.12727236e+02
202             	3.12733496e+02
203             	3.12740374e+02
204             	3.12746757e+02
205             	3.12753283e+02
206             	3.12759078e+02
207             	3.12769235e+02
208             	3.12777191e+02
209             	3.12788103e+02
210             	3.12799043e+02
211             	3.12811282e+02
212             	3.12824985e+02
213             	3.12838595e+02
214             	3.12852269e+02
215             	3.12864397e+02
216             	3.12875312e+02
217             	3.12884613e+02
218             	3.12896632e+02
219             	3.12908976e+02
220             	3.12921077e+02
221             	3.12935473e+02
222             	3.12949346e+02
223             	3.12964181e+02
224             	3.12978191e+02
225             	3.12991436e+02
226             	3.13004031e+02
227             	3.13015701e+02
228             	3.13026086e+02
229             	3.13034936e+02
230             	3.13043212e+02
231             	3.13051042e+02
232             	3.13058871e+02
233             	3.13067910e+02
234             	3.13079113e+02
235             	3.13090657e+02
236             	3.13102677e+02
237             	3.13116732e+02
238             	3.13132538e+02
239             	3.13148809e+02
240             	3.13161549e+02
241             	3.13175222e+02
242             	3.13188142e+02
243             	3.13200949e+02
244             	3.13212613e+02
245             	3.13223937e+02
246             	3.13234457e+02
247             	3.13243354e+02
248             	3.13252905e+02
249             	3.13262933e+02
250             	3.13272842e+02
251             	3.13282863e+02
252             	3.13293416e+02
253             	3.13303943e+02
254             	3.13315056e+02
255             	3.13326491e+02
256             	3.13338357e+02
257             	3.13350506e+02
258             	3.13362921e+02
259             	3.13375639e+02
260             	3.13384633e+02
261             	3.13395332e+02
262             	3.13407095e+02
263             	3.13418262e+02
264             	3.13429647e+02
265             	3.13442237e+02
266             	3.13454363e+02
267             	3.13466306e+02
268             	3.13478087e+02
269             	3.13489012e+02
270             	3.13499796e+02
271             	3.13510113e+02
272             	3.13521022e+02
273             	3.13528619e+02
274             	3.13536160e+02
275             	3.13543831e+02
276             	3.13551735e+02
277             	3.13559822e+02
278             	3.13568153e+02
279             	3.13576763e+02
280             	3.13585533e+02
281             	3.13594438e+02
282             	3.13603617e+02
283             	3.13613041e+02
284             	3.13622760e+02
285             	3.13632869e+02
286             	3.13641831e+02
287             	3.13650810e+02
288             	3.13657986e+02
289             	3.13666601e+02
290             	3.13675882e+02
291             	3.13684559e+02
292             	3.13693535e+02
293             	3.13702742e+02
294             	3.13712636e+02
295             	3.13721370e+02
296             	3.13731159e+02
297             	3.13741169e+02
298             	3.13750187e+02
299             	3.13758414e+02
300             	3.13765935e+02
301             	3.13774020e+02
302             	3.13781073e+02
303             	3.13788522e+02
304             	3.13795982e+02
305             	3.13803195e+02
306             	3.13810126e+02
307             	3.13816359e+02
308             	3.13822061e+02
309             	3.13827946e+02
310             	3.13833398e+02
311             	3.13839476e+02
312             	3.13845959e+02
313             	3.13852294e+02
314             	3.13857933e+02
315             	3.13863885e+02
316             	3.13870067e+02
317             	3.13876420e+02
318             	3.13882876e+02
319             	3.13889305e+02
320             	3.13895618e+02
321             	3.13901607e+02
322             	3.13907214e+02
323             	3.13912367e+02
324             	3.13917390e+02
325             	3.13922402e+02
326             	3.13927433e+02
327             	3.13931344e+02
328             	3.13935786e+02
329             	3.13940272e+02
330             	3.13944463e+02
331             	3.13948226e+02
332             	3.13953115e+02
333             	3.13958175e+02
334             	3.13963117e+02
335             	3.13967949e+02
336             	3.13972696e+02
337             	3.13977390e+02
338             	3.13982116e+02
339             	3.13987079e+02
340             	3.13991379e+02
341             	3.13995802e+02
342             	3.14000390e+02
343             	3.14005101e+02
344             	3.14010049e+02
345             	3.14014873e+02
346             	3.14019515e+02
347             	3.14024605e+02
348             	3.14029883e+02
349             	3.14035372e+02
350             	3.14040383e+02
351             	3.14045309e+02
352             	3.14050189e+02
353             	3.14055008e+02
354             	3.14059731e+02
355             	3.14064156e+02
356             	3.14067800e+02
357             	3.14071149e+02
358             	3.14075272e+02
359             	3.14079193e+02
360             	3.14082895e+02
361             	3.14086197e+02
362             	3.14089661e+02
363             	3.14092780e+02
364             	3.14095873e+02
365             	3.14099073e+02
366             	3.14102097e+02
367             	3.14105629e+02
368             	3.14107927e+02
369             	3.14109981e+02
370             	3.14112326e+02
371             	3.14114940e+02
372             	3.14117768e+02
373             	3.14120745e+02
374             	3.14123873e+02
375             	3.14126930e+02
376             	3.14129746e+02
377             	3.14132294e+02
378             	3.14134700e+02
379             	3.14137199e+02
380             	3.14139680e+02
381             	3.14142221e+02
382             	3.14144702e+02
383             	3.14147091e+02
384             	3.14148790e+02
385             	3.14150805e+02
386             	3.14153101e+02
387             	3.14155158e+02
388             	3.14157145e+02
389             	3.14159568e+02
390             	3.14162332e+02
391             	3.14164987e+02
392             	3.14167662e+02
393             	3.14170004e+02
394             	3.14172805e+02
395             	3.14174645e+02
396             	3.14176730e+02
397             	3.14178563e+02
398             	3.14180740e+02
399             	3.14182687e+02
400             	3.14184655e+02
401             	3.14186471e+02
402             	3.14188478e+02
403             	3.14190420e+02
404             	3.14192797e+02
405             	3.14195249e+02
406             	3.14197254e+02
407             	3.14199457e+02
408             	3.14200962e+02
409             	3.14202762e+02
410             	3.14204366e+02
411             	3.14206012e+02
412             	3.14207690e+02
413             	3.14209156e+02
414             	3.14210761e+02
415             	3.14212909e+02
416             	3.14214786e+02
417             	3.14216475e+02
418             	3.14218199e+02
419             	3.14220072e+02
420             	3.14222067e+02
421             	3.14223897e+02
422             	3.14226019e+02
423             	3.14228080e+02
424             	3.14229945e+02
425             	3.14231343e+02
426             	3.14232950e+02
427             	3.14234281e+02
428             	3.14235446e+02
429             	3.14236662e+02
430             	3.14237807e+02
431             	3.14238864e+02
432             	3.14240024e+02
433             	3.14241693e+02
434             	3.14243025e+02
435             	3.14244301e+02
436             	3.14245652e+02
437             	3.14247146e+02
438             	3.14248637e+02
439             	3.14249839e+02
440             	3.14251074e+02
441             	3.14252023e+02
442             	3.14252671e+02
443             	3.14252894e+02
444             	3.14253790e+02
445             	3.14254804e+02
446             	3.14255788e+02
447             	3.14256785e+02
448             	3.14257653e+02
449             	3.14258945e+02
450             	3.14260042e+02
451             	3.14260721e+02
452             	3.14261506e+02
453             	3.14262464e+02
454             	3.14263532e+02
455             	3.14264634e+02
456             	3.14265597e+02
457             	3.14266768e+02
458             	3.14267935e+02
459             	3.14268993e+02
460             	3.14270000e+02
461             	3.14271013e+02
462             	3.14271657e+02
463             	3.14272403e+02
464             	3.14273199e+02
465             	3.14273976e+02
466             	3.14274630e+02
467             	3.14275099e+02
468             	3.14275648e+02
469             	3.14276318e+02
470             	3.14277080e+02
471             	3.14277843e+02
472             	3.14278633e+02
473             	3.14279573e+02
474             	3.14280636e+02
475             	3.14281545e+02
476             	3.14282239e+02
477             	3.14282937e+02
478             	3.14283733e+02
479             	3.14284498e+02
480             	3.14284894e+02
481             	3.14284956e+02
482             	3.14285612e+02
483             	3.14286393e+02
484             	3.14287059e+02
485             	3.14287679e+02
486             	3.14288365e+02
487             	3.14289191e+02
488             	3.14289589e+02
489             	3.14290106e+02
490             	3.14290543e+02
491             	3.14291104e+02
492             	3.14291839e+02
493             	3.14292569e+02
494             	3.14293353e+02
495             	3.14294125e+02
496             	3.14294878e+02
497             	3.14295700e+02
498             	3.14296662e+02
499             	3.14297461e+02
500             	3.14298180e+02
501             	3.14298646e+02
502             	3.14299000e+02
503             	3.14299363e+02
504             	3.14299547e+02
505             	3.14300089e+02
506             	3.14300636e+02
507             	3.14301109e+02
508             	3.14301574e+02
509             	3.14302021e+02
510             	3.14302420e+02
511             	3.14302895e+02
512             	3.14303350e+02
513             	3.14303842e+02
514             	3.14304257e+02
515             	3.14304606e+02
516             	3.14304907e+02
517             	3.14305177e+02
518             	3.14305968e+02
519             	3.14306438e+02
520             	3.14306880e+02
521             	3.14307373e+02
522             	3.14308001e+02
523             	3.14308615e+02
524             	3.14308937e+02
525             	3.14309061e+02
526             	3.14309435e+02
527             	3.14309903e+02
528             	3.14310294e+02
529             	3.14310605e+02
530             	3.14310894e+02
531             	3.14311213e+02
532             	3.14311527e+02
533             	3.14311866e+02
534             	3.14312196e+02
535             	3.14312558e+02
536             	3.14312984e+02
537             	3.14313618e+02
538             	3.14314031e+02
539             	3.14314405e+02
540             	3.14314791e+02
541             	3.14315208e+02
542             	3.14315776e+02
543             	3.14316205e+02
544             	3.14316611e+02
545             	3.14317003e+02
546             	3.14317384e+02
547             	3.14317552e+02
548             	3.14317755e+02
549             	3.14318082e+02
550             	3.14318376e+02
551             	3.14318588e+02
552             	3.14318800e+02
553             	3.14319008e+02
554             	3.14319220e+02
555             	3.14319260e+02
556             	3.14319496e+02
557             	3.14319802e+02
558             	3.14320162e+02
559             	3.14320666e+02
560             	3.14320968e+02
561             	3.14321231e+02
562             	3.14321462e+02
563             	3.14321775e+02
564             	3.14322146e+02
565             	3.14322506e+02
566             	3.14322852e+02
567             	3.14323221e+02
568             	3.14323657e+02
569             	3.14324056e+02
570             	3.14324364e+02
571             	3.14324628e+02
572             	3.14324869e+02
573             	3.14325103e+02
574             	3.14325049e+02
575             	3.14325235e+02
576             	3.14325466e+02
577             	3.14325654e+02
578             	3.14325811e+02
579             	3.14325934e+02
580             	3.14326038e+02
581             	3.14326187e+02
582             	3.14326497e+02
583             	3.14326640e+02
584             	3.14326801e+02
585             	3.14326975e+02
586             	3.14327180e+02
587             	3.14327429e+02
588             	3.14327723e+02
589             	3.14327924e+02
590             	3.14328125e+02
591             	3.14328105e+02
592             	3.14328261e+02
593             	3.14328441e+02
594             	3.14328597e+02
595             	3.14328725e+02
596             	3.14328842e+02
597             	3.14328966e+02
598             	3.14329058e+02
599             	3.14329150e+02
600             	3.14329269e+02
601             	3.14329408e+02
602             	3.14329582e+02
603             	3.14329755e+02
604             	3.14329943e+02
605             	3.14330099e+02
606             	3.14330223e+02
607             	3.14330428e+02
608             	3.14330633e+02
609             	3.14330816e+02
610             	3.14331007e+02
611             	3.14331180e+02
612             	3.14331301e+02
613             	3.14331336e+02
614             	3.14331388e+02
615             	3.14331421e+02
616             	3.14331465e+02
617             	3.14331323e+02
618             	3.14331402e+02
619             	3.14331544e+02
620             	3.14331667e+02
621             	3.14331760e+02
