# Region        : cellZone component_4
# Cells         : 35
# Volume        : 5.95649291e-02
# Time          	volAverage(T)
1               	3.10530983e+02
2               	3.20339723e+02
3               	3.24929845e+02
4               	3.26868469e+02
5               	3.30608385e+02
6               	3.36316849e+02
7               	3.41564414e+02
8               	3.45155573e+02
9               	3.48022442e+02
10              	3.51146432e+02
11              	3.54502391e+02
12              	3.57533298e+02
13              	3.59533048e+02
14              	3.61126863e+02
15              	3.62833470e+02
16              	3.64941007e+02
17              	3.67431671e+02
18              	3.70119301e+02
19              	3.72670523e+02
20              	3.74657102e+02
21              	3.76469025e+02
22              	3.78378847e+02
23              	3.80386192e+02
24              	3.82314990e+02
25              	3.84018115e+02
26              	3.85669507e+02
27              	3.87029483e+02
28              	3.88037556e+02
29              	3.89266718e+02
30              	3.90662237e+02
31              	3.92038571e+02
32              	3.93462629e+02
33              	3.94793012e+02
34              	3.96207935e+02
35              	3.97536626e+02
36              	3.98304797e+02
37              	3.98226806e+02
38              	3.97537279e+02
39              	3.97328795e+02
40              	3.96844939e+02
41              	3.97197201e+02
42              	3.97851547e+02
43              	3.98675186e+02
44              	3.99351167e+02
45              	4.00010780e+02
46              	4.00406504e+02
47              	4.00838902e+02
48              	4.01131392e+02
49              	4.01101503e+02
50              	4.00995737e+02
51              	4.01315784e+02
52              	4.01589397e+02
53              	4.02376355e+02
54              	4.02895080e+02
55              	4.03572810e+02
56              	4.04189129e+02
57              	4.04931544e+02
58              	4.05290839e+02
59              	4.05657073e+02
60              	4.05993729e+02
61              	4.06430488e+02
62              	4.06965716e+02
63              	4.07316156e+02
64              	4.07765845e+02
65              	4.08343847e+02
66              	4.08899420e+02
67              	4.09302891e+02
68              	4.09758877e+02
69              	4.09520991e+02
70              	4.09490702e+02
71              	4.09461375e+02
72              	4.09576190e+02
73              	4.09438152e+02
74              	4.08943540e+02
75              	4.09082973e+02
76              	4.09201047e+02
77              	4.09114463e+02
78              	4.09031501e+02
79              	4.09063891e+02
80              	4.09240287e+02
81              	4.09344892e+02
82              	4.09446853e+02
83              	4.09482043e+02
84              	4.09872416e+02
85              	4.10351593e+02
86              	4.10625319e+02
87              	4.10816028e+02
88              	4.11038825e+02
89              	4.11035048e+02
90              	4.10668360e+02
91              	4.10568842e+02
92              	4.10336764e+02
93              	4.10341512e+02
94              	4.10574011e+02
95              	4.10340754e+02
96              	4.10309069e+02
97              	4.10505162e+02
98              	4.10898015e+02
99              	4.10855956e+02
100             	4.10964941e+02
101             	4.11048829e+02
102             	4.11109572e+02
103             	4.11228070e+02
104             	4.11271870e+02
105             	4.11269143e+02
106             	4.10835070e+02
107             	4.10659418e+02
108             	4.10355594e+02
109             	4.10263859e+02
110             	4.10304905e+02
111             	4.10319733e+02
112             	4.10172645e+02
113             	4.10030502e+02
114             	4.09907998e+02
115             	4.09761081e+02
116             	4.09580957e+02
117             	4.09498448e+02
118             	4.09529820e+02
119             	4.09609260e+02
120             	4.09733069e+02
121             	4.09381305e+02
122             	4.09272669e+02
123             	4.09439960e+02
124             	4.09656481e+02
125             	4.09341107e+02
126             	4.09194518e+02
127             	4.09238448e+02
128             	4.09325986e+02
129             	4.09097643e+02
130             	4.09087262e+02
131             	4.09207849e+02
132             	4.08980777e+02
133             	4.08923354e+02
134             	4.09044177e+02
135             	4.08827999e+02
136             	4.08750757e+02
137             	4.08811483e+02
138             	4.08979711e+02
139             	4.09023685e+02
140             	4.08598964e+02
141             	4.08431377e+02
142             	4.08489895e+02
143             	4.08607320e+02
144             	4.08269203e+02
145             	4.08085923e+02
146             	4.08030976e+02
147             	4.08075321e+02
148             	4.08124663e+02
149             	4.08103884e+02
150             	4.08024739e+02
151             	4.07942112e+02
152             	4.07887315e+02
153             	4.07867363e+02
154             	4.07871799e+02
155             	4.07899888e+02
156             	4.07949754e+02
157             	4.07534439e+02
158             	4.07370343e+02
159             	4.07473795e+02
160             	4.07311607e+02
161             	4.07283980e+02
162             	4.07370779e+02
163             	4.07453027e+02
164             	4.07568502e+02
165             	4.07702218e+02
166             	4.07330831e+02
167             	4.07152371e+02
168             	4.07208718e+02
169             	4.07387146e+02
170             	4.07454006e+02
171             	4.07049526e+02
172             	4.06873977e+02
173             	4.06915582e+02
174             	4.07004910e+02
175             	4.07061309e+02
176             	4.07100263e+02
177             	4.07129052e+02
178             	4.07145507e+02
179             	4.07158828e+02
180             	4.07173973e+02
181             	4.07220210e+02
182             	4.06808296e+02
183             	4.06677453e+02
184             	4.06749221e+02
185             	4.06862264e+02
186             	4.06959698e+02
187             	4.07054102e+02
188             	4.07107081e+02
189             	4.07099560e+02
190             	4.07013493e+02
191             	4.06966438e+02
192             	4.06946559e+02
193             	4.06920571e+02
194             	4.06868097e+02
195             	4.06849830e+02
196             	4.06823875e+02
197             	4.06831397e+02
198             	4.06414686e+02
199             	4.06240173e+02
200             	4.06296914e+02
201             	4.06392624e+02
202             	4.06478515e+02
203             	4.06137425e+02
204             	4.05999322e+02
205             	4.06076887e+02
206             	4.06219641e+02
207             	4.06301004e+02
208             	4.06330351e+02
209             	4.06347372e+02
210             	4.06370192e+02
211             	4.06333381e+02
212             	4.06277491e+02
213             	4.06247100e+02
214             	4.06225956e+02
215             	4.06239910e+02
216             	4.06291963e+02
217             	4.06308703e+02
218             	4.06300652e+02
219             	4.06288478e+02
220             	4.05885630e+02
221             	4.05734642e+02
222             	4.05813574e+02
223             	4.05944314e+02
224             	4.06040521e+02
225             	4.06063651e+02
226             	4.06071167e+02
227             	4.06079786e+02
228             	4.06085547e+02
229             	4.06084794e+02
230             	4.06081606e+02
231             	4.06080509e+02
232             	4.06099166e+02
233             	4.06132053e+02
234             	4.06181783e+02
235             	4.06145086e+02
236             	4.06120960e+02
237             	4.06091009e+02
238             	4.06079778e+02
239             	4.06053073e+02
240             	4.06038232e+02
241             	4.06027840e+02
242             	4.06012309e+02
243             	4.06025330e+02
244             	4.06020438e+02
245             	4.06005773e+02
246             	4.06006124e+02
247             	4.06012562e+02
248             	4.06053373e+02
249             	4.06044707e+02
250             	4.06011869e+02
251             	4.05986902e+02
252             	4.05972762e+02
253             	4.05962681e+02
254             	4.05957598e+02
255             	4.05922282e+02
256             	4.05904288e+02
257             	4.05902931e+02
258             	4.05902981e+02
259             	4.05897174e+02
260             	4.05887146e+02
261             	4.05873300e+02
262             	4.05867904e+02
263             	4.05866024e+02
264             	4.05861568e+02
265             	4.05854428e+02
266             	4.05848063e+02
267             	4.05847054e+02
268             	4.05838177e+02
269             	4.05833045e+02
270             	4.05831377e+02
271             	4.05827841e+02
272             	4.05815436e+02
273             	4.05805828e+02
274             	4.05799090e+02
275             	4.05794799e+02
276             	4.05790813e+02
277             	4.05786322e+02
278             	4.05778995e+02
279             	4.05771380e+02
280             	4.05767276e+02
281             	4.05764692e+02
282             	4.05769825e+02
283             	4.05769223e+02
284             	4.05765953e+02
285             	4.05760029e+02
286             	4.05753983e+02
287             	4.05743080e+02
288             	4.05727509e+02
289             	4.05719621e+02
290             	4.05715715e+02
291             	4.05711170e+02
292             	4.05706367e+02
293             	4.05705896e+02
294             	4.05704831e+02
295             	4.05700497e+02
296             	4.05696008e+02
297             	4.05690772e+02
298             	4.05686738e+02
299             	4.05683704e+02
300             	4.05686061e+02
301             	4.05687806e+02
302             	4.05685048e+02
303             	4.05682788e+02
304             	4.05680905e+02
305             	4.05678927e+02
306             	4.05676897e+02
307             	4.05675148e+02
308             	4.05673675e+02
309             	4.05672352e+02
310             	4.05671097e+02
311             	4.05669872e+02
312             	4.05668724e+02
313             	4.05667691e+02
314             	4.05666771e+02
315             	4.05665863e+02
316             	4.05664999e+02
317             	4.05664262e+02
318             	4.05663610e+02
319             	4.05663025e+02
320             	4.05662485e+02
321             	4.05661968e+02
322             	4.05661458e+02
323             	4.05661015e+02
324             	4.05660608e+02
325             	4.05660220e+02
326             	4.05659873e+02
327             	4.05659566e+02
328             	4.05659306e+02
329             	4.05659089e+02
330             	4.05658896e+02
331             	4.05658707e+02
332             	4.05658550e+02
333             	4.05658353e+02
334             	4.05658113e+02
335             	4.05657864e+02
336             	4.05657646e+02
337             	4.05657480e+02
338             	4.05657322e+02
339             	4.05657198e+02
340             	4.05657090e+02
341             	4.05656982e+02
342             	4.05654185e+02
343             	4.05652105e+02
344             	4.05648528e+02
345             	4.05646371e+02
346             	4.05644060e+02
347             	4.05640228e+02
348             	4.05636501e+02
349             	4.05633630e+02
350             	4.05631328e+02
351             	4.05629149e+02
352             	4.05627216e+02
353             	4.05625183e+02
354             	4.05622613e+02
355             	4.05621029e+02
356             	4.05618870e+02
357             	4.05617555e+02
358             	4.05616593e+02
359             	4.05614692e+02
360             	4.05612914e+02
361             	4.05610982e+02
362             	4.05609601e+02
363             	4.05608444e+02
364             	4.05607166e+02
365             	4.05606057e+02
366             	4.05604775e+02
367             	4.05603452e+02
368             	4.05602960e+02
369             	4.05604226e+02
370             	4.05603446e+02
371             	4.05600752e+02
372             	4.05598323e+02
373             	4.05597259e+02
374             	4.05596682e+02
375             	4.05595872e+02
376             	4.05594809e+02
377             	4.05595226e+02
378             	4.05595168e+02
379             	4.05593968e+02
380             	4.05589959e+02
381             	4.05588482e+02
382             	4.05588555e+02
383             	4.05588128e+02
384             	4.05584401e+02
385             	4.05582375e+02
386             	4.05581733e+02
387             	4.05581227e+02
388             	4.05581625e+02
389             	4.05581745e+02
390             	4.05581013e+02
391             	4.05580191e+02
392             	4.05579212e+02
393             	4.05578913e+02
394             	4.05578482e+02
395             	4.05577762e+02
396             	4.05576919e+02
397             	4.05576028e+02
398             	4.05575090e+02
399             	4.05574108e+02
400             	4.05573364e+02
401             	4.05572526e+02
402             	4.05570804e+02
403             	4.05570089e+02
404             	4.05569818e+02
405             	4.05568910e+02
406             	4.05567168e+02
407             	4.05566260e+02
408             	4.05566044e+02
409             	4.05565699e+02
410             	4.05565059e+02
411             	4.05564329e+02
412             	4.05563897e+02
413             	4.05563959e+02
414             	4.05563050e+02
415             	4.05561613e+02
416             	4.05560090e+02
417             	4.05560865e+02
418             	4.05560643e+02
419             	4.05559705e+02
420             	4.05558846e+02
421             	4.05558333e+02
422             	4.05558033e+02
423             	4.05557839e+02
424             	4.05556838e+02
425             	4.05556042e+02
426             	4.05554245e+02
427             	4.05551422e+02
428             	4.05550701e+02
429             	4.05550888e+02
430             	4.05550886e+02
431             	4.05551043e+02
432             	4.05552431e+02
433             	4.05553404e+02
434             	4.05552951e+02
435             	4.05552366e+02
436             	4.05551593e+02
437             	4.05551103e+02
438             	4.05550221e+02
439             	4.05549055e+02
440             	4.05547992e+02
441             	4.05547051e+02
442             	4.05546025e+02
443             	4.05545459e+02
444             	4.05545634e+02
445             	4.05545785e+02
446             	4.05545739e+02
447             	4.05545574e+02
448             	4.05545237e+02
449             	4.05546454e+02
450             	4.05547513e+02
451             	4.05546937e+02
452             	4.05545667e+02
453             	4.05543709e+02
454             	4.05542808e+02
455             	4.05540292e+02
456             	4.05539383e+02
457             	4.05539528e+02
458             	4.05539575e+02
459             	4.05539253e+02
460             	4.05538850e+02
461             	4.05538601e+02
462             	4.05538545e+02
463             	4.05538814e+02
464             	4.05539810e+02
465             	4.05540976e+02
466             	4.05540886e+02
467             	4.05540238e+02
468             	4.05539713e+02
469             	4.05538770e+02
470             	4.05537694e+02
471             	4.05538161e+02
472             	4.05538594e+02
473             	4.05538539e+02
474             	4.05538914e+02
475             	4.05538951e+02
476             	4.05538823e+02
477             	4.05538825e+02
478             	4.05538915e+02
479             	4.05538978e+02
480             	4.05538961e+02
481             	4.05538660e+02
482             	4.05538134e+02
483             	4.05537544e+02
484             	4.05536903e+02
485             	4.05536130e+02
486             	4.05535556e+02
487             	4.05535214e+02
488             	4.05534809e+02
489             	4.05533000e+02
490             	4.05532485e+02
491             	4.05533018e+02
492             	4.05533361e+02
493             	4.05532946e+02
494             	4.05533199e+02
495             	4.05533826e+02
496             	4.05536441e+02
497             	4.05536944e+02
498             	4.05537145e+02
499             	4.05536747e+02
500             	4.05536270e+02
501             	4.05535995e+02
502             	4.05535334e+02
503             	4.05534990e+02
504             	4.05534796e+02
505             	4.05533901e+02
506             	4.05533091e+02
507             	4.05530870e+02
508             	4.05529058e+02
509             	4.05529311e+02
510             	4.05530351e+02
511             	4.05530893e+02
512             	4.05531367e+02
513             	4.05531878e+02
514             	4.05532424e+02
515             	4.05535436e+02
516             	4.05536167e+02
517             	4.05535316e+02
518             	4.05534477e+02
519             	4.05534616e+02
520             	4.05534470e+02
521             	4.05534271e+02
522             	4.05534028e+02
523             	4.05533793e+02
524             	4.05533612e+02
525             	4.05533547e+02
526             	4.05533781e+02
527             	4.05532349e+02
528             	4.05531922e+02
529             	4.05532303e+02
530             	4.05532588e+02
531             	4.05532424e+02
532             	4.05532031e+02
533             	4.05531508e+02
534             	4.05531206e+02
535             	4.05531178e+02
536             	4.05531513e+02
537             	4.05532972e+02
538             	4.05534073e+02
539             	4.05533944e+02
540             	4.05533664e+02
541             	4.05533190e+02
542             	4.05532156e+02
543             	4.05531167e+02
544             	4.05530717e+02
545             	4.05530637e+02
546             	4.05530713e+02
547             	4.05530713e+02
548             	4.05530909e+02
549             	4.05531200e+02
550             	4.05531588e+02
551             	4.05531832e+02
552             	4.05532366e+02
553             	4.05532927e+02
554             	4.05533274e+02
555             	4.05533477e+02
556             	4.05533933e+02
557             	4.05534311e+02
558             	4.05534552e+02
559             	4.05534851e+02
560             	4.05534959e+02
561             	4.05534898e+02
562             	4.05534605e+02
563             	4.05534373e+02
564             	4.05535052e+02
565             	4.05535376e+02
566             	4.05535261e+02
567             	4.05535090e+02
568             	4.05535019e+02
569             	4.05535224e+02
570             	4.05535230e+02
571             	4.05534938e+02
572             	4.05534487e+02
573             	4.05533102e+02
574             	4.05532560e+02
575             	4.05532623e+02
576             	4.05531803e+02
577             	4.05531487e+02
578             	4.05531682e+02
579             	4.05532229e+02
580             	4.05533087e+02
581             	4.05533645e+02
582             	4.05533673e+02
583             	4.05533591e+02
584             	4.05533614e+02
585             	4.05533724e+02
586             	4.05533733e+02
587             	4.05533660e+02
588             	4.05533350e+02
589             	4.05533748e+02
590             	4.05534097e+02
591             	4.05534298e+02
592             	4.05535255e+02
593             	4.05535653e+02
594             	4.05535555e+02
595             	4.05535498e+02
596             	4.05535586e+02
597             	4.05535689e+02
598             	4.05535786e+02
599             	4.05535288e+02
600             	4.05534874e+02
601             	4.05535595e+02
602             	4.05536142e+02
603             	4.05536419e+02
604             	4.05537251e+02
605             	4.05537938e+02
606             	4.05537936e+02
607             	4.05537641e+02
608             	4.05537319e+02
609             	4.05536985e+02
610             	4.05536713e+02
611             	4.05536574e+02
612             	4.05536233e+02
613             	4.05536051e+02
614             	4.05536023e+02
615             	4.05536061e+02
616             	4.05536528e+02
617             	4.05535830e+02
618             	4.05535425e+02
619             	4.05535407e+02
620             	4.05535338e+02
621             	4.05535042e+02
