# Region        : cellZone component_2
# Cells         : 134
# Volume        : 2.38360037e-01
# Time          	volAverage(T)
1               	3.00169818e+02
2               	3.00337583e+02
3               	3.00496797e+02
4               	3.00650781e+02
5               	3.00801780e+02
6               	3.00950515e+02
7               	3.01097486e+02
8               	3.01243480e+02
9               	3.01388707e+02
10              	3.01533403e+02
11              	3.01677723e+02
12              	3.01820974e+02
13              	3.01963132e+02
14              	3.02103185e+02
15              	3.02242203e+02
16              	3.02379619e+02
17              	3.02515122e+02
18              	3.02650441e+02
19              	3.02782790e+02
20              	3.02911788e+02
21              	3.03040960e+02
22              	3.03168445e+02
23              	3.03293256e+02
24              	3.03416500e+02
25              	3.03534771e+02
26              	3.03652431e+02
27              	3.03767520e+02
28              	3.03880220e+02
29              	3.03990358e+02
30              	3.04099308e+02
31              	3.04208308e+02
32              	3.04313872e+02
33              	3.04414335e+02
34              	3.04508313e+02
35              	3.04597935e+02
36              	3.04688096e+02
37              	3.04783956e+02
38              	3.04878002e+02
39              	3.04969723e+02
40              	3.05058739e+02
41              	3.05148004e+02
42              	3.05238067e+02
43              	3.05328017e+02
44              	3.05421844e+02
45              	3.05517744e+02
46              	3.05611592e+02
47              	3.05703927e+02
48              	3.05795196e+02
49              	3.05884320e+02
50              	3.05969942e+02
51              	3.06052834e+02
52              	3.06131447e+02
53              	3.06210506e+02
54              	3.06288430e+02
55              	3.06364906e+02
56              	3.06441163e+02
57              	3.06515899e+02
58              	3.06589706e+02
59              	3.06663704e+02
60              	3.06738684e+02
61              	3.06816008e+02
62              	3.06892235e+02
63              	3.06962207e+02
64              	3.07028227e+02
65              	3.07092018e+02
66              	3.07152648e+02
67              	3.07216324e+02
68              	3.07281114e+02
69              	3.07347786e+02
70              	3.07411570e+02
71              	3.07473552e+02
72              	3.07532834e+02
73              	3.07594667e+02
74              	3.07658940e+02
75              	3.07724522e+02
76              	3.07791073e+02
77              	3.07856472e+02
78              	3.07920761e+02
79              	3.07984730e+02
80              	3.08046976e+02
81              	3.08107558e+02
82              	3.08165801e+02
83              	3.08220859e+02
84              	3.08273138e+02
85              	3.08323355e+02
86              	3.08371317e+02
87              	3.08418920e+02
88              	3.08465845e+02
89              	3.08513206e+02
90              	3.08561015e+02
91              	3.08610551e+02
92              	3.08660933e+02
93              	3.08711765e+02
94              	3.08761776e+02
95              	3.08809923e+02
96              	3.08854783e+02
97              	3.08897834e+02
98              	3.08938523e+02
99              	3.08977053e+02
100             	3.09012635e+02
101             	3.09047072e+02
102             	3.09082153e+02
103             	3.09119629e+02
104             	3.09158443e+02
105             	3.09198840e+02
106             	3.09241026e+02
107             	3.09284180e+02
108             	3.09327166e+02
109             	3.09369680e+02
110             	3.09410746e+02
111             	3.09450280e+02
112             	3.09488456e+02
113             	3.09525055e+02
114             	3.09560594e+02
115             	3.09595322e+02
116             	3.09628537e+02
117             	3.09661194e+02
118             	3.09692702e+02
119             	3.09722517e+02
120             	3.09750359e+02
121             	3.09776980e+02
122             	3.09803394e+02
123             	3.09829762e+02
124             	3.09856137e+02
125             	3.09882608e+02
126             	3.09909414e+02
127             	3.09936538e+02
128             	3.09963493e+02
129             	3.09989396e+02
130             	3.10014254e+02
131             	3.10038422e+02
132             	3.10061478e+02
133             	3.10083144e+02
134             	3.10103808e+02
135             	3.10123877e+02
136             	3.10143896e+02
137             	3.10164239e+02
138             	3.10185192e+02
139             	3.10207357e+02
140             	3.10231239e+02
141             	3.10255005e+02
142             	3.10278013e+02
143             	3.10301178e+02
144             	3.10324210e+02
145             	3.10346422e+02
146             	3.10367171e+02
147             	3.10386910e+02
148             	3.10406018e+02
149             	3.10424423e+02
150             	3.10442616e+02
151             	3.10461290e+02
152             	3.10480160e+02
153             	3.10499136e+02
154             	3.10516405e+02
155             	3.10534080e+02
156             	3.10551335e+02
157             	3.10568239e+02
158             	3.10584094e+02
159             	3.10599791e+02
160             	3.10615578e+02
161             	3.10630530e+02
162             	3.10646834e+02
163             	3.10663608e+02
164             	3.10681107e+02
165             	3.10698990e+02
166             	3.10714514e+02
167             	3.10729095e+02
168             	3.10742729e+02
169             	3.10756285e+02
170             	3.10768797e+02
171             	3.10780669e+02
172             	3.10791953e+02
173             	3.10803369e+02
174             	3.10814783e+02
175             	3.10825824e+02
176             	3.10836998e+02
177             	3.10849053e+02
178             	3.10861234e+02
179             	3.10873840e+02
180             	3.10885062e+02
181             	3.10895664e+02
182             	3.10905541e+02
183             	3.10914659e+02
184             	3.10923473e+02
185             	3.10932435e+02
186             	3.10941834e+02
187             	3.10951651e+02
188             	3.10962405e+02
189             	3.10974140e+02
190             	3.10985459e+02
191             	3.10997336e+02
192             	3.11010031e+02
193             	3.11023039e+02
194             	3.11036020e+02
195             	3.11048196e+02
196             	3.11059105e+02
197             	3.11070162e+02
198             	3.11080253e+02
199             	3.11089913e+02
200             	3.11099188e+02
201             	3.11107753e+02
202             	3.11115933e+02
203             	3.11124465e+02
204             	3.11133077e+02
205             	3.11141130e+02
206             	3.11149090e+02
207             	3.11156792e+02
208             	3.11164599e+02
209             	3.11172087e+02
210             	3.11179072e+02
211             	3.11185532e+02
212             	3.11191870e+02
213             	3.11197886e+02
214             	3.11203525e+02
215             	3.11208742e+02
216             	3.11214056e+02
217             	3.11219780e+02
218             	3.11225671e+02
219             	3.11231690e+02
220             	3.11238013e+02
221             	3.11244670e+02
222             	3.11251747e+02
223             	3.11259228e+02
224             	3.11265929e+02
225             	3.11272572e+02
226             	3.11279677e+02
227             	3.11286593e+02
228             	3.11293722e+02
229             	3.11300459e+02
230             	3.11307039e+02
231             	3.11313283e+02
232             	3.11319228e+02
233             	3.11324897e+02
234             	3.11330193e+02
235             	3.11335536e+02
236             	3.11340806e+02
237             	3.11345936e+02
238             	3.11351170e+02
239             	3.11356456e+02
240             	3.11361800e+02
241             	3.11367095e+02
242             	3.11372049e+02
243             	3.11376487e+02
244             	3.11380659e+02
245             	3.11384588e+02
246             	3.11388285e+02
247             	3.11391720e+02
248             	3.11394980e+02
249             	3.11398361e+02
250             	3.11401879e+02
251             	3.11405440e+02
252             	3.11409195e+02
253             	3.11412980e+02
254             	3.11416843e+02
255             	3.11420568e+02
256             	3.11424549e+02
257             	3.11428499e+02
258             	3.11432445e+02
259             	3.11436344e+02
260             	3.11439864e+02
261             	3.11443378e+02
262             	3.11446742e+02
263             	3.11450039e+02
264             	3.11453475e+02
265             	3.11456991e+02
266             	3.11460228e+02
267             	3.11463644e+02
268             	3.11467239e+02
269             	3.11470697e+02
270             	3.11474050e+02
271             	3.11477228e+02
272             	3.11480275e+02
273             	3.11483208e+02
274             	3.11485971e+02
275             	3.11488457e+02
276             	3.11490722e+02
277             	3.11492906e+02
278             	3.11495038e+02
279             	3.11497144e+02
280             	3.11499209e+02
281             	3.11501261e+02
282             	3.11503414e+02
283             	3.11505592e+02
284             	3.11507783e+02
285             	3.11509942e+02
286             	3.11512065e+02
287             	3.11514146e+02
288             	3.11516173e+02
289             	3.11518189e+02
290             	3.11520136e+02
291             	3.11522126e+02
292             	3.11524277e+02
293             	3.11526399e+02
294             	3.11528518e+02
295             	3.11530773e+02
296             	3.11533157e+02
297             	3.11535641e+02
298             	3.11538192e+02
299             	3.11540778e+02
300             	3.11543426e+02
301             	3.11546000e+02
302             	3.11548662e+02
303             	3.11551310e+02
304             	3.11553905e+02
305             	3.11556426e+02
306             	3.11558851e+02
307             	3.11561162e+02
308             	3.11563368e+02
309             	3.11565435e+02
310             	3.11567399e+02
311             	3.11569270e+02
312             	3.11571106e+02
313             	3.11572983e+02
314             	3.11574622e+02
315             	3.11576026e+02
316             	3.11577515e+02
317             	3.11578978e+02
318             	3.11580360e+02
319             	3.11581676e+02
320             	3.11582943e+02
321             	3.11584157e+02
322             	3.11585289e+02
323             	3.11586239e+02
324             	3.11587248e+02
325             	3.11588237e+02
326             	3.11589248e+02
327             	3.11590293e+02
328             	3.11591402e+02
329             	3.11592600e+02
330             	3.11593901e+02
331             	3.11595318e+02
332             	3.11596836e+02
333             	3.11598470e+02
334             	3.11600198e+02
335             	3.11601994e+02
336             	3.11604072e+02
337             	3.11606022e+02
338             	3.11607975e+02
339             	3.11609884e+02
340             	3.11611701e+02
341             	3.11613573e+02
342             	3.11615386e+02
343             	3.11617088e+02
344             	3.11618679e+02
345             	3.11620174e+02
346             	3.11621592e+02
347             	3.11622940e+02
348             	3.11624221e+02
349             	3.11625376e+02
350             	3.11626528e+02
351             	3.11627573e+02
352             	3.11628578e+02
353             	3.11629519e+02
354             	3.11630382e+02
355             	3.11631225e+02
356             	3.11632012e+02
357             	3.11632757e+02
358             	3.11633454e+02
359             	3.11634114e+02
360             	3.11634741e+02
361             	3.11635336e+02
362             	3.11635901e+02
363             	3.11636444e+02
364             	3.11636974e+02
365             	3.11637504e+02
366             	3.11638043e+02
367             	3.11638598e+02
368             	3.11639186e+02
369             	3.11639822e+02
370             	3.11640497e+02
371             	3.11641249e+02
372             	3.11642055e+02
373             	3.11642956e+02
374             	3.11643906e+02
375             	3.11644926e+02
376             	3.11646012e+02
377             	3.11647151e+02
378             	3.11648342e+02
379             	3.11649578e+02
380             	3.11650846e+02
381             	3.11652132e+02
382             	3.11653420e+02
383             	3.11654696e+02
384             	3.11655945e+02
385             	3.11657151e+02
386             	3.11658165e+02
387             	3.11659232e+02
388             	3.11660250e+02
389             	3.11661190e+02
390             	3.11662064e+02
391             	3.11662902e+02
392             	3.11663730e+02
393             	3.11664571e+02
394             	3.11665455e+02
395             	3.11666317e+02
396             	3.11667184e+02
397             	3.11668075e+02
398             	3.11668984e+02
399             	3.11669888e+02
400             	3.11670779e+02
401             	3.11671650e+02
402             	3.11672505e+02
403             	3.11673355e+02
404             	3.11674208e+02
405             	3.11675005e+02
406             	3.11675763e+02
407             	3.11676439e+02
408             	3.11677105e+02
409             	3.11677730e+02
410             	3.11678297e+02
411             	3.11678810e+02
412             	3.11679277e+02
413             	3.11679676e+02
414             	3.11680072e+02
415             	3.11680446e+02
416             	3.11680797e+02
417             	3.11681133e+02
418             	3.11681443e+02
419             	3.11681737e+02
420             	3.11682015e+02
421             	3.11682372e+02
422             	3.11682641e+02
423             	3.11682852e+02
424             	3.11683064e+02
425             	3.11683320e+02
426             	3.11683541e+02
427             	3.11683742e+02
428             	3.11683946e+02
429             	3.11684192e+02
430             	3.11684452e+02
431             	3.11684713e+02
432             	3.11684921e+02
433             	3.11685018e+02
434             	3.11685233e+02
435             	3.11685463e+02
436             	3.11685680e+02
437             	3.11685895e+02
438             	3.11686143e+02
439             	3.11686575e+02
440             	3.11686974e+02
441             	3.11687436e+02
442             	3.11687991e+02
443             	3.11688608e+02
444             	3.11689205e+02
445             	3.11689837e+02
446             	3.11690463e+02
447             	3.11691053e+02
448             	3.11691617e+02
449             	3.11692168e+02
450             	3.11692721e+02
451             	3.11693302e+02
452             	3.11693861e+02
453             	3.11694423e+02
454             	3.11694995e+02
455             	3.11695528e+02
456             	3.11696101e+02
457             	3.11696681e+02
458             	3.11697253e+02
459             	3.11697822e+02
460             	3.11698363e+02
461             	3.11698890e+02
462             	3.11699429e+02
463             	3.11699970e+02
464             	3.11700515e+02
465             	3.11701181e+02
466             	3.11701774e+02
467             	3.11702378e+02
468             	3.11703009e+02
469             	3.11703645e+02
470             	3.11704253e+02
471             	3.11704810e+02
472             	3.11705305e+02
473             	3.11705733e+02
474             	3.11706087e+02
475             	3.11706358e+02
476             	3.11706480e+02
477             	3.11706556e+02
478             	3.11706569e+02
479             	3.11706535e+02
480             	3.11706472e+02
481             	3.11706370e+02
482             	3.11706266e+02
483             	3.11706181e+02
484             	3.11706128e+02
485             	3.11706114e+02
486             	3.11706147e+02
487             	3.11706232e+02
488             	3.11706304e+02
489             	3.11706468e+02
490             	3.11706686e+02
491             	3.11706912e+02
492             	3.11707152e+02
493             	3.11707414e+02
494             	3.11707720e+02
495             	3.11708023e+02
496             	3.11708339e+02
497             	3.11708661e+02
498             	3.11708986e+02
499             	3.11709536e+02
500             	3.11709967e+02
501             	3.11710399e+02
502             	3.11710876e+02
503             	3.11711360e+02
504             	3.11711796e+02
505             	3.11712201e+02
506             	3.11712639e+02
507             	3.11712960e+02
508             	3.11713290e+02
509             	3.11713595e+02
510             	3.11713916e+02
511             	3.11714191e+02
512             	3.11714461e+02
513             	3.11714744e+02
514             	3.11715032e+02
515             	3.11715398e+02
516             	3.11715688e+02
517             	3.11715976e+02
518             	3.11716250e+02
519             	3.11716473e+02
520             	3.11716614e+02
521             	3.11716679e+02
522             	3.11716718e+02
523             	3.11716674e+02
524             	3.11716540e+02
525             	3.11716329e+02
526             	3.11716074e+02
527             	3.11715815e+02
528             	3.11715557e+02
529             	3.11715327e+02
530             	3.11715129e+02
531             	3.11714996e+02
532             	3.11714948e+02
533             	3.11714992e+02
534             	3.11715104e+02
535             	3.11715282e+02
536             	3.11715498e+02
537             	3.11715734e+02
538             	3.11716022e+02
539             	3.11716312e+02
540             	3.11716563e+02
541             	3.11716817e+02
542             	3.11717053e+02
543             	3.11717268e+02
544             	3.11717465e+02
545             	3.11717655e+02
546             	3.11717856e+02
547             	3.11718030e+02
548             	3.11718214e+02
549             	3.11718421e+02
550             	3.11718654e+02
551             	3.11718924e+02
552             	3.11719195e+02
553             	3.11719480e+02
554             	3.11719788e+02
555             	3.11720083e+02
556             	3.11720338e+02
557             	3.11720570e+02
558             	3.11720758e+02
559             	3.11720888e+02
560             	3.11720956e+02
561             	3.11720953e+02
562             	3.11720895e+02
563             	3.11720790e+02
564             	3.11720650e+02
565             	3.11720360e+02
566             	3.11720107e+02
567             	3.11719835e+02
568             	3.11719603e+02
569             	3.11719297e+02
570             	3.11718988e+02
571             	3.11718713e+02
572             	3.11718476e+02
573             	3.11718270e+02
574             	3.11718091e+02
575             	3.11717934e+02
576             	3.11717800e+02
577             	3.11717692e+02
578             	3.11717722e+02
579             	3.11717713e+02
580             	3.11717745e+02
581             	3.11717867e+02
582             	3.11718073e+02
583             	3.11718319e+02
584             	3.11718557e+02
585             	3.11718769e+02
586             	3.11719038e+02
587             	3.11719298e+02
588             	3.11719487e+02
589             	3.11719620e+02
590             	3.11719750e+02
591             	3.11719872e+02
592             	3.11719923e+02
593             	3.11719923e+02
594             	3.11719896e+02
595             	3.11719814e+02
596             	3.11719740e+02
597             	3.11719579e+02
598             	3.11719376e+02
599             	3.11719149e+02
600             	3.11718914e+02
601             	3.11718713e+02
602             	3.11718536e+02
603             	3.11718389e+02
604             	3.11718282e+02
605             	3.11718204e+02
606             	3.11718042e+02
607             	3.11717969e+02
608             	3.11717910e+02
609             	3.11717819e+02
610             	3.11717704e+02
611             	3.11717585e+02
612             	3.11717514e+02
613             	3.11717419e+02
614             	3.11717316e+02
615             	3.11717271e+02
616             	3.11717270e+02
617             	3.11717217e+02
618             	3.11717147e+02
619             	3.11717066e+02
620             	3.11716961e+02
621             	3.11716825e+02
