# Region        : cellZone component_2
# Cells         : 72
# Volume        : 1.06664420e-01
# Time          	volAverage(T)
1               	3.04917161e+02
2               	3.09751079e+02
3               	3.14003506e+02
4               	3.17900630e+02
5               	3.21637382e+02
6               	3.25253937e+02
7               	3.28783506e+02
8               	3.32238304e+02
9               	3.35622938e+02
10              	3.38919206e+02
11              	3.42123321e+02
12              	3.45299985e+02
13              	3.48456281e+02
14              	3.51478448e+02
15              	3.54202327e+02
16              	3.56554808e+02
17              	3.58566955e+02
18              	3.60408571e+02
19              	3.62456939e+02
20              	3.64766601e+02
21              	3.67172001e+02
22              	3.69653661e+02
23              	3.72167825e+02
24              	3.74612700e+02
25              	3.77045711e+02
26              	3.79292873e+02
27              	3.81294015e+02
28              	3.83066348e+02
29              	3.84836799e+02
30              	3.86616597e+02
31              	3.88398974e+02
32              	3.90052226e+02
33              	3.91651013e+02
34              	3.93239653e+02
35              	3.94697087e+02
36              	3.96086677e+02
37              	3.97528592e+02
38              	3.98387548e+02
39              	3.98487735e+02
40              	3.98155053e+02
41              	3.98164487e+02
42              	3.98566059e+02
43              	3.99037042e+02
44              	3.99570721e+02
45              	4.00216576e+02
46              	4.00931009e+02
47              	4.01626004e+02
48              	4.02514499e+02
49              	4.03446288e+02
50              	4.04426724e+02
51              	4.05287333e+02
52              	4.06261838e+02
53              	4.06813985e+02
54              	4.07012333e+02
55              	4.07051892e+02
56              	4.07129603e+02
57              	4.07152873e+02
58              	4.07294540e+02
59              	4.07667809e+02
60              	4.08094198e+02
61              	4.08532038e+02
62              	4.08969201e+02
63              	4.09381762e+02
64              	4.09796083e+02
65              	4.10245003e+02
66              	4.10819434e+02
67              	4.11497466e+02
68              	4.12160038e+02
69              	4.12781035e+02
70              	4.13371707e+02
71              	4.13806456e+02
72              	4.14162960e+02
73              	4.14370213e+02
74              	4.14583730e+02
75              	4.14723066e+02
76              	4.14876109e+02
77              	4.15063562e+02
78              	4.15216781e+02
79              	4.15371499e+02
80              	4.15603347e+02
81              	4.15871038e+02
82              	4.15923939e+02
83              	4.15884130e+02
84              	4.15873529e+02
85              	4.15853725e+02
86              	4.15870282e+02
87              	4.15856539e+02
88              	4.15905896e+02
89              	4.15991926e+02
90              	4.16276938e+02
91              	4.16740310e+02
92              	4.17317968e+02
93              	4.17995743e+02
94              	4.18700002e+02
95              	4.19346495e+02
96              	4.19879496e+02
97              	4.20330514e+02
98              	4.20833674e+02
99              	4.21286655e+02
100             	4.21594690e+02
101             	4.21716509e+02
102             	4.21714192e+02
103             	4.21676722e+02
104             	4.21751014e+02
105             	4.21876850e+02
106             	4.22083402e+02
107             	4.21997398e+02
108             	4.21769571e+02
109             	4.21371506e+02
110             	4.21032377e+02
111             	4.20839980e+02
112             	4.20736303e+02
113             	4.20692613e+02
114             	4.20746312e+02
115             	4.20887009e+02
116             	4.21120599e+02
117             	4.21351107e+02
118             	4.21464424e+02
119             	4.21594074e+02
120             	4.21710335e+02
121             	4.21958725e+02
122             	4.22305018e+02
123             	4.22695413e+02
124             	4.23097171e+02
125             	4.23506710e+02
126             	4.23927912e+02
127             	4.24352035e+02
128             	4.24752806e+02
129             	4.25088920e+02
130             	4.25336659e+02
131             	4.25488236e+02
132             	4.25630720e+02
133             	4.25787781e+02
134             	4.25952405e+02
135             	4.26089211e+02
136             	4.26215173e+02
137             	4.26344579e+02
138             	4.26505304e+02
139             	4.26661408e+02
140             	4.26822676e+02
141             	4.26959836e+02
142             	4.27062138e+02
143             	4.27068629e+02
144             	4.27120289e+02
145             	4.27158622e+02
146             	4.27222860e+02
147             	4.27313419e+02
148             	4.27440766e+02
149             	4.27615960e+02
150             	4.27802967e+02
151             	4.27987919e+02
152             	4.28180530e+02
153             	4.28397148e+02
154             	4.28576014e+02
155             	4.28760322e+02
156             	4.29006285e+02
157             	4.29273480e+02
158             	4.29558789e+02
159             	4.29869119e+02
160             	4.30176414e+02
161             	4.30496863e+02
162             	4.30816369e+02
163             	4.31145171e+02
164             	4.31420272e+02
165             	4.31656225e+02
166             	4.31858769e+02
167             	4.32070192e+02
168             	4.32272911e+02
169             	4.32472203e+02
170             	4.32666391e+02
171             	4.32850692e+02
172             	4.33025877e+02
173             	4.33190025e+02
174             	4.33361947e+02
175             	4.33489346e+02
176             	4.33632465e+02
177             	4.33748457e+02
178             	4.33867645e+02
179             	4.33972950e+02
180             	4.34026377e+02
181             	4.34051918e+02
182             	4.34076095e+02
183             	4.34133600e+02
184             	4.34149278e+02
185             	4.34196051e+02
186             	4.34272613e+02
187             	4.34381378e+02
188             	4.34481020e+02
189             	4.34585837e+02
190             	4.34714386e+02
191             	4.34849520e+02
192             	4.34997869e+02
193             	4.35157132e+02
194             	4.35305071e+02
195             	4.35474387e+02
196             	4.35633497e+02
197             	4.35810448e+02
198             	4.35982136e+02
199             	4.36153978e+02
200             	4.36333087e+02
201             	4.36468968e+02
202             	4.36576978e+02
203             	4.36681164e+02
204             	4.36782392e+02
205             	4.36867026e+02
206             	4.36927984e+02
207             	4.36976158e+02
208             	4.37020308e+02
209             	4.37061045e+02
210             	4.37084243e+02
211             	4.37125713e+02
212             	4.37142765e+02
213             	4.37192657e+02
214             	4.37251112e+02
215             	4.37303467e+02
216             	4.37359713e+02
217             	4.37424849e+02
218             	4.37501647e+02
219             	4.37590250e+02
220             	4.37703103e+02
221             	4.37822717e+02
222             	4.37941114e+02
223             	4.38089540e+02
224             	4.38264812e+02
225             	4.38376731e+02
226             	4.38453877e+02
227             	4.38523701e+02
228             	4.38548389e+02
229             	4.38567982e+02
230             	4.38591481e+02
231             	4.38587347e+02
232             	4.38601748e+02
233             	4.38622506e+02
234             	4.38643100e+02
235             	4.38669304e+02
236             	4.38714400e+02
237             	4.38788377e+02
238             	4.38893769e+02
239             	4.39042204e+02
240             	4.39189184e+02
241             	4.39282821e+02
242             	4.39390952e+02
243             	4.39502100e+02
244             	4.39603750e+02
245             	4.39633907e+02
246             	4.39673295e+02
247             	4.39703907e+02
248             	4.39601420e+02
249             	4.39540376e+02
250             	4.39524817e+02
251             	4.39482312e+02
252             	4.39460687e+02
253             	4.39462019e+02
254             	4.39486917e+02
255             	4.39538252e+02
256             	4.39603149e+02
257             	4.39678859e+02
258             	4.39792873e+02
259             	4.39926543e+02
260             	4.40020735e+02
261             	4.40126177e+02
262             	4.40205514e+02
263             	4.40260811e+02
264             	4.40307904e+02
265             	4.40341565e+02
266             	4.40349185e+02
267             	4.40293149e+02
268             	4.40142166e+02
269             	4.40058721e+02
270             	4.40004825e+02
271             	4.39916961e+02
272             	4.39879887e+02
273             	4.39895805e+02
274             	4.39954453e+02
275             	4.40029236e+02
276             	4.40136836e+02
277             	4.40269470e+02
278             	4.40393404e+02
279             	4.40504303e+02
280             	4.40597278e+02
281             	4.40704830e+02
282             	4.40808646e+02
283             	4.40884200e+02
284             	4.40841676e+02
285             	4.40837534e+02
286             	4.40855163e+02
287             	4.40853807e+02
288             	4.40839813e+02
289             	4.40787332e+02
290             	4.40726905e+02
291             	4.40669417e+02
292             	4.40631084e+02
293             	4.40605668e+02
294             	4.40588617e+02
295             	4.40583792e+02
296             	4.40597226e+02
297             	4.40577316e+02
298             	4.40610561e+02
299             	4.40683684e+02
300             	4.40783850e+02
301             	4.40908198e+02
302             	4.41002864e+02
303             	4.41071818e+02
304             	4.41131353e+02
305             	4.41176700e+02
306             	4.41204075e+02
307             	4.41214289e+02
308             	4.41192479e+02
309             	4.41136383e+02
310             	4.41058389e+02
311             	4.40974936e+02
312             	4.40889184e+02
313             	4.40790167e+02
314             	4.40699180e+02
315             	4.40618605e+02
316             	4.40526541e+02
317             	4.40452912e+02
318             	4.40389880e+02
319             	4.40352786e+02
320             	4.40331313e+02
321             	4.40304806e+02
322             	4.40288854e+02
323             	4.40286420e+02
324             	4.40293484e+02
325             	4.40303859e+02
326             	4.40338848e+02
327             	4.40387147e+02
328             	4.40433506e+02
329             	4.40481334e+02
330             	4.40551002e+02
331             	4.40593749e+02
332             	4.40651144e+02
333             	4.40704715e+02
334             	4.40737372e+02
335             	4.40761446e+02
336             	4.40777802e+02
337             	4.40779052e+02
338             	4.40763420e+02
339             	4.40735964e+02
340             	4.40696762e+02
341             	4.40647648e+02
342             	4.40593640e+02
343             	4.40529381e+02
344             	4.40477906e+02
345             	4.40430921e+02
346             	4.40391684e+02
347             	4.40362146e+02
348             	4.40341440e+02
349             	4.40329962e+02
350             	4.40325498e+02
351             	4.40322547e+02
352             	4.40337134e+02
353             	4.40355472e+02
354             	4.40390625e+02
355             	4.40432358e+02
356             	4.40480451e+02
357             	4.40538345e+02
358             	4.40594423e+02
359             	4.40659918e+02
360             	4.40716191e+02
361             	4.40772326e+02
362             	4.40822236e+02
363             	4.40864553e+02
364             	4.40901448e+02
365             	4.40929599e+02
366             	4.40948098e+02
367             	4.40958817e+02
368             	4.40968008e+02
369             	4.40974029e+02
370             	4.40978555e+02
371             	4.40981826e+02
372             	4.41004290e+02
373             	4.41004301e+02
374             	4.40995543e+02
375             	4.40986384e+02
376             	4.40980144e+02
377             	4.40976100e+02
378             	4.40950210e+02
379             	4.40934949e+02
380             	4.40926818e+02
381             	4.40918675e+02
382             	4.40907098e+02
383             	4.40907163e+02
384             	4.40911073e+02
385             	4.40917933e+02
386             	4.40928903e+02
387             	4.40951015e+02
388             	4.40969604e+02
389             	4.40990493e+02
390             	4.41015488e+02
391             	4.41042794e+02
392             	4.41065421e+02
393             	4.41095758e+02
394             	4.41126559e+02
395             	4.41154665e+02
396             	4.41183705e+02
397             	4.41211319e+02
398             	4.41239691e+02
399             	4.41268399e+02
400             	4.41296493e+02
401             	4.41325625e+02
402             	4.41353001e+02
403             	4.41382219e+02
404             	4.41408162e+02
405             	4.41430915e+02
406             	4.41450697e+02
407             	4.41466927e+02
408             	4.41481500e+02
409             	4.41493190e+02
410             	4.41502758e+02
411             	4.41508565e+02
412             	4.41514300e+02
413             	4.41521732e+02
414             	4.41529120e+02
415             	4.41536561e+02
416             	4.41542366e+02
417             	4.41552264e+02
418             	4.41556769e+02
419             	4.41559905e+02
420             	4.41559089e+02
421             	4.41555389e+02
422             	4.41552865e+02
423             	4.41541460e+02
424             	4.41542219e+02
425             	4.41547720e+02
426             	4.41555152e+02
427             	4.41564041e+02
428             	4.41578476e+02
429             	4.41590610e+02
430             	4.41602327e+02
431             	4.41613850e+02
432             	4.41626840e+02
433             	4.41642976e+02
434             	4.41658588e+02
435             	4.41673731e+02
436             	4.41688618e+02
437             	4.41702865e+02
438             	4.41712967e+02
439             	4.41727773e+02
440             	4.41743944e+02
441             	4.41758652e+02
442             	4.41772422e+02
443             	4.41785658e+02
444             	4.41799522e+02
445             	4.41812822e+02
446             	4.41830976e+02
447             	4.41836877e+02
448             	4.41838858e+02
449             	4.41838689e+02
450             	4.41839381e+02
451             	4.41843216e+02
452             	4.41845561e+02
453             	4.41845428e+02
454             	4.41845773e+02
455             	4.41847773e+02
456             	4.41848328e+02
457             	4.41849333e+02
458             	4.41851350e+02
459             	4.41854475e+02
460             	4.41855104e+02
461             	4.41857074e+02
462             	4.41859812e+02
463             	4.41860613e+02
464             	4.41861626e+02
465             	4.41869249e+02
466             	4.41879496e+02
467             	4.41891456e+02
468             	4.41903648e+02
469             	4.41917761e+02
470             	4.41931886e+02
471             	4.41945447e+02
472             	4.41959757e+02
473             	4.41973283e+02
474             	4.41985244e+02
475             	4.41997642e+02
476             	4.42008976e+02
477             	4.42018557e+02
478             	4.42027198e+02
479             	4.42035139e+02
480             	4.42041855e+02
481             	4.42047316e+02
482             	4.42052423e+02
483             	4.42055131e+02
484             	4.42057009e+02
485             	4.42059491e+02
486             	4.42062773e+02
487             	4.42062736e+02
488             	4.42061870e+02
489             	4.42062415e+02
490             	4.42063177e+02
491             	4.42062241e+02
492             	4.42061824e+02
493             	4.42062069e+02
494             	4.42062041e+02
495             	4.42061462e+02
496             	4.42061003e+02
497             	4.42061687e+02
498             	4.42061665e+02
499             	4.42061544e+02
500             	4.42062719e+02
501             	4.42065716e+02
502             	4.42069704e+02
503             	4.42075118e+02
504             	4.42080502e+02
505             	4.42086948e+02
506             	4.42093305e+02
507             	4.42098186e+02
508             	4.42102801e+02
509             	4.42106089e+02
510             	4.42111373e+02
511             	4.42117306e+02
512             	4.42122418e+02
513             	4.42127088e+02
514             	4.42131845e+02
515             	4.42137411e+02
516             	4.42142920e+02
517             	4.42148272e+02
518             	4.42153436e+02
519             	4.42158480e+02
520             	4.42162450e+02
521             	4.42166130e+02
522             	4.42171813e+02
523             	4.42174863e+02
524             	4.42176962e+02
525             	4.42178980e+02
526             	4.42180746e+02
527             	4.42181782e+02
528             	4.42181675e+02
529             	4.42180821e+02
530             	4.42180215e+02
531             	4.42179115e+02
532             	4.42177992e+02
533             	4.42177018e+02
534             	4.42175795e+02
535             	4.42175098e+02
536             	4.42174929e+02
537             	4.42174693e+02
538             	4.42174675e+02
539             	4.42175385e+02
540             	4.42177045e+02
541             	4.42178973e+02
542             	4.42181482e+02
543             	4.42184079e+02
544             	4.42186940e+02
545             	4.42189887e+02
546             	4.42194522e+02
547             	4.42197523e+02
548             	4.42199637e+02
549             	4.42201213e+02
550             	4.42203129e+02
551             	4.42204243e+02
552             	4.42204337e+02
553             	4.42203999e+02
554             	4.42203164e+02
555             	4.42201661e+02
556             	4.42199187e+02
557             	4.42198067e+02
558             	4.42197428e+02
559             	4.42196858e+02
560             	4.42196323e+02
561             	4.42196377e+02
562             	4.42195964e+02
563             	4.42196632e+02
564             	4.42198214e+02
565             	4.42200034e+02
566             	4.42202085e+02
567             	4.42204461e+02
568             	4.42207920e+02
569             	4.42210886e+02
570             	4.42213576e+02
571             	4.42217262e+02
572             	4.42219845e+02
573             	4.42221766e+02
574             	4.42223336e+02
575             	4.42224432e+02
576             	4.42224968e+02
577             	4.42224888e+02
578             	4.42224197e+02
579             	4.42222522e+02
580             	4.42221163e+02
581             	4.42219890e+02
582             	4.42218592e+02
583             	4.42217447e+02
584             	4.42216654e+02
585             	4.42216218e+02
586             	4.42216075e+02
587             	4.42215722e+02
588             	4.42215611e+02
589             	4.42215387e+02
590             	4.42215702e+02
591             	4.42216227e+02
592             	4.42216206e+02
593             	4.42215930e+02
594             	4.42217027e+02
595             	4.42218520e+02
596             	4.42220073e+02
597             	4.42221898e+02
598             	4.42223760e+02
599             	4.42225823e+02
600             	4.42228094e+02
601             	4.42230851e+02
602             	4.42233271e+02
603             	4.42235559e+02
604             	4.42237767e+02
605             	4.42239927e+02
606             	4.42242140e+02
607             	4.42244171e+02
608             	4.42245646e+02
609             	4.42246774e+02
610             	4.42247735e+02
611             	4.42248456e+02
612             	4.42249035e+02
613             	4.42249442e+02
614             	4.42249453e+02
615             	4.42249291e+02
616             	4.42249036e+02
617             	4.42248825e+02
618             	4.42248477e+02
619             	4.42248069e+02
620             	4.42247614e+02
621             	4.42247168e+02
