# Region        : cellZone component_1
# Cells         : 300
# Volume        : 5.53224961e-01
# Time          	volAverage(T)
1               	3.00984078e+02
2               	3.01952775e+02
3               	3.02844174e+02
4               	3.03686765e+02
5               	3.04507605e+02
6               	3.05314641e+02
7               	3.06109380e+02
8               	3.06894188e+02
9               	3.07670804e+02
10              	3.08438764e+02
11              	3.09201097e+02
12              	3.09954312e+02
13              	3.10701167e+02
14              	3.11441673e+02
15              	3.12178603e+02
16              	3.12892005e+02
17              	3.13576042e+02
18              	3.14233427e+02
19              	3.14866620e+02
20              	3.15502825e+02
21              	3.16150138e+02
22              	3.16786608e+02
23              	3.17403927e+02
24              	3.18001372e+02
25              	3.18583019e+02
26              	3.19153297e+02
27              	3.19715834e+02
28              	3.20264643e+02
29              	3.20802530e+02
30              	3.21334707e+02
31              	3.21873869e+02
32              	3.22394333e+02
33              	3.22901411e+02
34              	3.23407959e+02
35              	3.23921072e+02
36              	3.24436690e+02
37              	3.24953572e+02
38              	3.25471142e+02
39              	3.25981662e+02
40              	3.26484394e+02
41              	3.26985611e+02
42              	3.27486604e+02
43              	3.27981793e+02
44              	3.28468541e+02
45              	3.28948573e+02
46              	3.29419521e+02
47              	3.29879289e+02
48              	3.30327306e+02
49              	3.30767860e+02
50              	3.31200341e+02
51              	3.31626812e+02
52              	3.32045385e+02
53              	3.32456388e+02
54              	3.32855104e+02
55              	3.33244383e+02
56              	3.33631116e+02
57              	3.34010817e+02
58              	3.34388391e+02
59              	3.34767636e+02
60              	3.35159636e+02
61              	3.35553213e+02
62              	3.35950078e+02
63              	3.36345089e+02
64              	3.36731076e+02
65              	3.37101896e+02
66              	3.37452706e+02
67              	3.37786682e+02
68              	3.38105969e+02
69              	3.38413662e+02
70              	3.38712156e+02
71              	3.39004072e+02
72              	3.39285734e+02
73              	3.39574705e+02
74              	3.39866971e+02
75              	3.40168706e+02
76              	3.40478608e+02
77              	3.40797349e+02
78              	3.41118521e+02
79              	3.41424280e+02
80              	3.41714504e+02
81              	3.41992132e+02
82              	3.42257309e+02
83              	3.42499232e+02
84              	3.42714225e+02
85              	3.42912439e+02
86              	3.43099040e+02
87              	3.43278828e+02
88              	3.43462288e+02
89              	3.43656864e+02
90              	3.43864215e+02
91              	3.44090971e+02
92              	3.44322879e+02
93              	3.44561860e+02
94              	3.44798262e+02
95              	3.45027832e+02
96              	3.45248303e+02
97              	3.45459815e+02
98              	3.45665188e+02
99              	3.45862245e+02
100             	3.46050950e+02
101             	3.46227442e+02
102             	3.46393589e+02
103             	3.46551472e+02
104             	3.46702849e+02
105             	3.46845898e+02
106             	3.46982785e+02
107             	3.47117888e+02
108             	3.47249645e+02
109             	3.47379499e+02
110             	3.47511172e+02
111             	3.47650534e+02
112             	3.47797053e+02
113             	3.47956619e+02
114             	3.48124497e+02
115             	3.48297401e+02
116             	3.48475247e+02
117             	3.48648416e+02
118             	3.48813617e+02
119             	3.48968894e+02
120             	3.49110581e+02
121             	3.49239538e+02
122             	3.49360394e+02
123             	3.49473416e+02
124             	3.49581139e+02
125             	3.49685606e+02
126             	3.49788471e+02
127             	3.49892050e+02
128             	3.49995784e+02
129             	3.50105732e+02
130             	3.50222066e+02
131             	3.50344653e+02
132             	3.50471026e+02
133             	3.50601248e+02
134             	3.50730290e+02
135             	3.50862376e+02
136             	3.50995000e+02
137             	3.51124531e+02
138             	3.51248006e+02
139             	3.51363004e+02
140             	3.51470452e+02
141             	3.51569667e+02
142             	3.51660081e+02
143             	3.51743394e+02
144             	3.51820478e+02
145             	3.51899235e+02
146             	3.51980906e+02
147             	3.52067762e+02
148             	3.52160552e+02
149             	3.52259116e+02
150             	3.52362774e+02
151             	3.52469630e+02
152             	3.52578493e+02
153             	3.52686304e+02
154             	3.52792843e+02
155             	3.52897593e+02
156             	3.53000183e+02
157             	3.53099775e+02
158             	3.53196687e+02
159             	3.53290832e+02
160             	3.53381979e+02
161             	3.53468769e+02
162             	3.53551593e+02
163             	3.53631732e+02
164             	3.53709157e+02
165             	3.53784656e+02
166             	3.53859832e+02
167             	3.53937363e+02
168             	3.54017552e+02
169             	3.54101840e+02
170             	3.54187615e+02
171             	3.54277905e+02
172             	3.54369017e+02
173             	3.54457890e+02
174             	3.54546548e+02
175             	3.54632863e+02
176             	3.54716620e+02
177             	3.54797248e+02
178             	3.54875605e+02
179             	3.54951089e+02
180             	3.55023956e+02
181             	3.55094549e+02
182             	3.55164099e+02
183             	3.55234093e+02
184             	3.55305086e+02
185             	3.55378194e+02
186             	3.55452643e+02
187             	3.55527516e+02
188             	3.55599325e+02
189             	3.55668290e+02
190             	3.55734610e+02
191             	3.55799004e+02
192             	3.55861625e+02
193             	3.55922475e+02
194             	3.55982267e+02
195             	3.56042265e+02
196             	3.56102161e+02
197             	3.56162034e+02
198             	3.56221613e+02
199             	3.56284229e+02
200             	3.56347288e+02
201             	3.56412929e+02
202             	3.56477451e+02
203             	3.56542129e+02
204             	3.56606546e+02
205             	3.56669241e+02
206             	3.56730046e+02
207             	3.56789837e+02
208             	3.56848154e+02
209             	3.56905583e+02
210             	3.56961929e+02
211             	3.57017870e+02
212             	3.57072146e+02
213             	3.57125519e+02
214             	3.57178573e+02
215             	3.57231897e+02
216             	3.57284786e+02
217             	3.57337552e+02
218             	3.57390890e+02
219             	3.57444806e+02
220             	3.57499510e+02
221             	3.57553480e+02
222             	3.57608139e+02
223             	3.57661999e+02
224             	3.57715033e+02
225             	3.57766450e+02
226             	3.57817205e+02
227             	3.57866180e+02
228             	3.57913321e+02
229             	3.57958932e+02
230             	3.58003939e+02
231             	3.58049210e+02
232             	3.58094810e+02
233             	3.58140822e+02
234             	3.58187984e+02
235             	3.58235715e+02
236             	3.58283676e+02
237             	3.58331515e+02
238             	3.58378638e+02
239             	3.58423071e+02
240             	3.58466547e+02
241             	3.58509797e+02
242             	3.58553178e+02
243             	3.58596461e+02
244             	3.58638402e+02
245             	3.58679478e+02
246             	3.58720191e+02
247             	3.58760022e+02
248             	3.58798715e+02
249             	3.58836696e+02
250             	3.58874468e+02
251             	3.58910936e+02
252             	3.58946235e+02
253             	3.58980464e+02
254             	3.59014604e+02
255             	3.59049484e+02
256             	3.59084574e+02
257             	3.59119482e+02
258             	3.59153896e+02
259             	3.59187314e+02
260             	3.59219520e+02
261             	3.59250510e+02
262             	3.59280654e+02
263             	3.59309906e+02
264             	3.59338847e+02
265             	3.59367963e+02
266             	3.59396917e+02
267             	3.59425899e+02
268             	3.59455219e+02
269             	3.59484807e+02
270             	3.59514564e+02
271             	3.59544115e+02
272             	3.59573444e+02
273             	3.59602456e+02
274             	3.59631494e+02
275             	3.59660680e+02
276             	3.59690167e+02
277             	3.59720077e+02
278             	3.59750466e+02
279             	3.59781636e+02
280             	3.59813532e+02
281             	3.59846172e+02
282             	3.59879311e+02
283             	3.59912996e+02
284             	3.59947218e+02
285             	3.59981870e+02
286             	3.60016828e+02
287             	3.60051854e+02
288             	3.60086722e+02
289             	3.60121085e+02
290             	3.60154937e+02
291             	3.60188151e+02
292             	3.60220637e+02
293             	3.60252217e+02
294             	3.60282847e+02
295             	3.60312463e+02
296             	3.60341019e+02
297             	3.60368361e+02
298             	3.60394816e+02
299             	3.60420404e+02
300             	3.60445074e+02
301             	3.60468960e+02
302             	3.60492245e+02
303             	3.60515016e+02
304             	3.60536984e+02
305             	3.60558322e+02
306             	3.60578940e+02
307             	3.60599045e+02
308             	3.60618679e+02
309             	3.60637910e+02
310             	3.60656902e+02
311             	3.60675608e+02
312             	3.60694483e+02
313             	3.60713452e+02
314             	3.60732671e+02
315             	3.60752373e+02
316             	3.60772657e+02
317             	3.60793347e+02
318             	3.60814356e+02
319             	3.60835379e+02
320             	3.60856320e+02
321             	3.60877084e+02
322             	3.60897495e+02
323             	3.60917680e+02
324             	3.60937756e+02
325             	3.60957778e+02
326             	3.60977653e+02
327             	3.60997506e+02
328             	3.61017434e+02
329             	3.61037507e+02
330             	3.61057615e+02
331             	3.61077191e+02
332             	3.61096797e+02
333             	3.61116435e+02
334             	3.61135909e+02
335             	3.61155073e+02
336             	3.61173895e+02
337             	3.61192445e+02
338             	3.61210799e+02
339             	3.61228996e+02
340             	3.61246963e+02
341             	3.61265154e+02
342             	3.61283462e+02
343             	3.61301886e+02
344             	3.61319357e+02
345             	3.61335837e+02
346             	3.61352155e+02
347             	3.61368499e+02
348             	3.61384721e+02
349             	3.61400692e+02
350             	3.61416489e+02
351             	3.61432183e+02
352             	3.61447543e+02
353             	3.61463010e+02
354             	3.61478402e+02
355             	3.61493592e+02
356             	3.61508501e+02
357             	3.61523390e+02
358             	3.61538163e+02
359             	3.61552680e+02
360             	3.61566913e+02
361             	3.61580741e+02
362             	3.61594156e+02
363             	3.61607165e+02
364             	3.61619856e+02
365             	3.61632259e+02
366             	3.61644029e+02
367             	3.61655242e+02
368             	3.61666180e+02
369             	3.61677079e+02
370             	3.61687976e+02
371             	3.61698913e+02
372             	3.61709887e+02
373             	3.61721032e+02
374             	3.61732483e+02
375             	3.61744230e+02
376             	3.61756223e+02
377             	3.61768531e+02
378             	3.61781068e+02
379             	3.61793694e+02
380             	3.61806266e+02
381             	3.61818857e+02
382             	3.61831342e+02
383             	3.61843621e+02
384             	3.61855764e+02
385             	3.61867743e+02
386             	3.61879500e+02
387             	3.61891063e+02
388             	3.61902498e+02
389             	3.61913888e+02
390             	3.61925296e+02
391             	3.61936674e+02
392             	3.61948089e+02
393             	3.61959452e+02
394             	3.61970807e+02
395             	3.61982162e+02
396             	3.61993482e+02
397             	3.62004737e+02
398             	3.62015878e+02
399             	3.62026851e+02
400             	3.62037702e+02
401             	3.62048647e+02
402             	3.62059525e+02
403             	3.62070437e+02
404             	3.62081505e+02
405             	3.62092762e+02
406             	3.62104226e+02
407             	3.62115901e+02
408             	3.62127768e+02
409             	3.62139775e+02
410             	3.62151845e+02
411             	3.62163912e+02
412             	3.62175924e+02
413             	3.62187742e+02
414             	3.62199069e+02
415             	3.62209737e+02
416             	3.62219721e+02
417             	3.62230094e+02
418             	3.62239718e+02
419             	3.62248412e+02
420             	3.62256366e+02
421             	3.62263731e+02
422             	3.62270707e+02
423             	3.62277226e+02
424             	3.62283439e+02
425             	3.62289465e+02
426             	3.62295374e+02
427             	3.62301638e+02
428             	3.62307878e+02
429             	3.62314192e+02
430             	3.62319903e+02
431             	3.62325535e+02
432             	3.62331058e+02
433             	3.62336223e+02
434             	3.62341044e+02
435             	3.62345642e+02
436             	3.62350269e+02
437             	3.62354936e+02
438             	3.62359434e+02
439             	3.62364209e+02
440             	3.62369791e+02
441             	3.62375618e+02
442             	3.62381911e+02
443             	3.62388840e+02
444             	3.62396261e+02
445             	3.62404287e+02
446             	3.62412935e+02
447             	3.62422025e+02
448             	3.62431520e+02
449             	3.62441398e+02
450             	3.62450636e+02
451             	3.62460078e+02
452             	3.62469374e+02
453             	3.62478397e+02
454             	3.62487322e+02
455             	3.62495939e+02
456             	3.62504221e+02
457             	3.62512349e+02
458             	3.62520399e+02
459             	3.62528308e+02
460             	3.62535933e+02
461             	3.62543746e+02
462             	3.62551600e+02
463             	3.62559386e+02
464             	3.62566893e+02
465             	3.62573912e+02
466             	3.62580616e+02
467             	3.62586907e+02
468             	3.62592789e+02
469             	3.62598364e+02
470             	3.62603906e+02
471             	3.62609297e+02
472             	3.62615936e+02
473             	3.62622654e+02
474             	3.62629948e+02
475             	3.62637661e+02
476             	3.62645174e+02
477             	3.62653191e+02
478             	3.62660985e+02
479             	3.62668255e+02
480             	3.62674914e+02
481             	3.62680567e+02
482             	3.62685050e+02
483             	3.62688667e+02
484             	3.62691562e+02
485             	3.62693677e+02
486             	3.62695072e+02
487             	3.62695793e+02
488             	3.62696615e+02
489             	3.62697519e+02
490             	3.62699136e+02
491             	3.62701298e+02
492             	3.62704836e+02
493             	3.62708202e+02
494             	3.62712124e+02
495             	3.62716951e+02
496             	3.62722509e+02
497             	3.62728392e+02
498             	3.62734506e+02
499             	3.62740891e+02
500             	3.62747433e+02
501             	3.62754420e+02
502             	3.62761945e+02
503             	3.62769072e+02
504             	3.62775397e+02
505             	3.62781328e+02
506             	3.62787059e+02
507             	3.62792317e+02
508             	3.62796214e+02
509             	3.62799481e+02
510             	3.62802173e+02
511             	3.62804213e+02
512             	3.62806767e+02
513             	3.62810392e+02
514             	3.62813143e+02
515             	3.62816601e+02
516             	3.62821254e+02
517             	3.62826853e+02
518             	3.62833777e+02
519             	3.62840532e+02
520             	3.62848101e+02
521             	3.62855170e+02
522             	3.62862723e+02
523             	3.62869812e+02
524             	3.62876326e+02
525             	3.62882057e+02
526             	3.62886209e+02
527             	3.62889144e+02
528             	3.62890585e+02
529             	3.62890384e+02
530             	3.62888717e+02
531             	3.62887038e+02
532             	3.62886385e+02
533             	3.62885567e+02
534             	3.62886482e+02
535             	3.62888529e+02
536             	3.62892324e+02
537             	3.62896353e+02
538             	3.62902345e+02
539             	3.62909783e+02
540             	3.62914764e+02
541             	3.62919657e+02
542             	3.62922987e+02
543             	3.62925683e+02
544             	3.62926536e+02
545             	3.62924985e+02
546             	3.62921567e+02
547             	3.62916477e+02
548             	3.62911062e+02
549             	3.62907236e+02
550             	3.62904526e+02
551             	3.62903154e+02
552             	3.62903061e+02
553             	3.62905806e+02
554             	3.62910669e+02
555             	3.62916780e+02
556             	3.62922763e+02
557             	3.62929067e+02
558             	3.62935572e+02
559             	3.62941533e+02
560             	3.62946961e+02
561             	3.62952346e+02
562             	3.62957626e+02
563             	3.62962188e+02
564             	3.62966278e+02
565             	3.62969713e+02
566             	3.62972619e+02
567             	3.62975337e+02
568             	3.62978052e+02
569             	3.62980928e+02
570             	3.62984022e+02
571             	3.62987609e+02
572             	3.62991867e+02
573             	3.62996958e+02
574             	3.63002473e+02
575             	3.63007097e+02
576             	3.63011890e+02
577             	3.63016620e+02
578             	3.63021000e+02
579             	3.63024936e+02
580             	3.63028621e+02
581             	3.63031777e+02
582             	3.63034933e+02
583             	3.63037819e+02
584             	3.63040550e+02
585             	3.63043218e+02
586             	3.63045931e+02
587             	3.63048789e+02
588             	3.63051940e+02
589             	3.63055229e+02
590             	3.63058375e+02
591             	3.63061306e+02
592             	3.63064096e+02
593             	3.63066707e+02
594             	3.63068947e+02
595             	3.63071182e+02
596             	3.63073160e+02
597             	3.63075358e+02
598             	3.63077361e+02
599             	3.63079304e+02
600             	3.63081320e+02
601             	3.63083410e+02
602             	3.63085807e+02
603             	3.63088305e+02
604             	3.63090443e+02
605             	3.63092220e+02
606             	3.63093717e+02
607             	3.63095033e+02
608             	3.63096366e+02
609             	3.63097484e+02
610             	3.63098352e+02
611             	3.63099006e+02
612             	3.63099512e+02
613             	3.63100287e+02
614             	3.63101043e+02
615             	3.63101764e+02
616             	3.63102580e+02
617             	3.63104436e+02
618             	3.63106898e+02
619             	3.63110012e+02
620             	3.63114028e+02
621             	3.63118819e+02
