# Region        : cellZone component_4
# Cells         : 159
# Volume        : 2.87600597e-01
# Time          	volAverage(T)
1               	3.00163266e+02
2               	3.00325061e+02
3               	3.00478676e+02
4               	3.00626672e+02
5               	3.00771247e+02
6               	3.00913390e+02
7               	3.01053506e+02
8               	3.01191680e+02
9               	3.01327815e+02
10              	3.01462140e+02
11              	3.01594648e+02
12              	3.01725222e+02
13              	3.01853709e+02
14              	3.01980503e+02
15              	3.02105049e+02
16              	3.02227936e+02
17              	3.02349522e+02
18              	3.02470346e+02
19              	3.02590327e+02
20              	3.02708787e+02
21              	3.02826272e+02
22              	3.02942130e+02
23              	3.03056157e+02
24              	3.03170193e+02
25              	3.03282689e+02
26              	3.03392398e+02
27              	3.03501212e+02
28              	3.03610416e+02
29              	3.03718873e+02
30              	3.03827848e+02
31              	3.03935116e+02
32              	3.04041727e+02
33              	3.04144473e+02
34              	3.04245904e+02
35              	3.04346597e+02
36              	3.04447390e+02
37              	3.04548368e+02
38              	3.04648499e+02
39              	3.04747862e+02
40              	3.04845718e+02
41              	3.04942084e+02
42              	3.05037121e+02
43              	3.05130706e+02
44              	3.05222975e+02
45              	3.05314793e+02
46              	3.05406555e+02
47              	3.05497945e+02
48              	3.05588436e+02
49              	3.05678160e+02
50              	3.05767076e+02
51              	3.05854802e+02
52              	3.05940967e+02
53              	3.06025937e+02
54              	3.06108849e+02
55              	3.06190704e+02
56              	3.06270842e+02
57              	3.06350366e+02
58              	3.06429459e+02
59              	3.06508036e+02
60              	3.06586510e+02
61              	3.06664627e+02
62              	3.06741929e+02
63              	3.06819020e+02
64              	3.06894875e+02
65              	3.06969572e+02
66              	3.07042788e+02
67              	3.07114374e+02
68              	3.07185756e+02
69              	3.07255599e+02
70              	3.07323974e+02
71              	3.07391462e+02
72              	3.07457751e+02
73              	3.07524052e+02
74              	3.07589057e+02
75              	3.07652548e+02
76              	3.07715775e+02
77              	3.07777511e+02
78              	3.07837204e+02
79              	3.07894031e+02
80              	3.07948337e+02
81              	3.08001987e+02
82              	3.08054477e+02
83              	3.08106802e+02
84              	3.08158452e+02
85              	3.08209604e+02
86              	3.08260165e+02
87              	3.08310861e+02
88              	3.08361887e+02
89              	3.08413172e+02
90              	3.08463098e+02
91              	3.08512678e+02
92              	3.08562580e+02
93              	3.08611296e+02
94              	3.08658586e+02
95              	3.08703270e+02
96              	3.08746014e+02
97              	3.08787037e+02
98              	3.08827897e+02
99              	3.08868779e+02
100             	3.08909201e+02
101             	3.08950223e+02
102             	3.08992029e+02
103             	3.09034936e+02
104             	3.09079105e+02
105             	3.09122295e+02
106             	3.09166407e+02
107             	3.09209111e+02
108             	3.09248216e+02
109             	3.09284988e+02
110             	3.09319546e+02
111             	3.09352866e+02
112             	3.09385340e+02
113             	3.09416978e+02
114             	3.09450601e+02
115             	3.09485523e+02
116             	3.09519327e+02
117             	3.09553710e+02
118             	3.09587999e+02
119             	3.09622319e+02
120             	3.09656645e+02
121             	3.09689490e+02
122             	3.09719277e+02
123             	3.09749311e+02
124             	3.09779162e+02
125             	3.09809126e+02
126             	3.09839686e+02
127             	3.09870785e+02
128             	3.09902466e+02
129             	3.09933986e+02
130             	3.09965217e+02
131             	3.09996132e+02
132             	3.10026751e+02
133             	3.10058527e+02
134             	3.10088867e+02
135             	3.10117438e+02
136             	3.10146066e+02
137             	3.10174787e+02
138             	3.10203535e+02
139             	3.10232165e+02
140             	3.10259756e+02
141             	3.10287103e+02
142             	3.10312987e+02
143             	3.10337937e+02
144             	3.10362466e+02
145             	3.10387643e+02
146             	3.10412982e+02
147             	3.10439973e+02
148             	3.10468638e+02
149             	3.10498595e+02
150             	3.10527920e+02
151             	3.10558521e+02
152             	3.10588971e+02
153             	3.10617741e+02
154             	3.10644579e+02
155             	3.10669408e+02
156             	3.10693377e+02
157             	3.10716638e+02
158             	3.10738933e+02
159             	3.10760662e+02
160             	3.10781766e+02
161             	3.10803535e+02
162             	3.10826136e+02
163             	3.10849902e+02
164             	3.10873324e+02
165             	3.10897400e+02
166             	3.10921823e+02
167             	3.10945955e+02
168             	3.10968531e+02
169             	3.10990462e+02
170             	3.11011380e+02
171             	3.11032052e+02
172             	3.11051537e+02
173             	3.11070467e+02
174             	3.11088960e+02
175             	3.11106925e+02
176             	3.11124545e+02
177             	3.11141607e+02
178             	3.11158230e+02
179             	3.11174568e+02
180             	3.11191485e+02
181             	3.11209276e+02
182             	3.11227495e+02
183             	3.11246847e+02
184             	3.11267209e+02
185             	3.11287060e+02
186             	3.11308447e+02
187             	3.11329261e+02
188             	3.11348882e+02
189             	3.11367251e+02
190             	3.11384901e+02
191             	3.11401447e+02
192             	3.11417326e+02
193             	3.11432743e+02
194             	3.11448142e+02
195             	3.11463401e+02
196             	3.11478914e+02
197             	3.11494546e+02
198             	3.11511247e+02
199             	3.11528546e+02
200             	3.11546495e+02
201             	3.11564642e+02
202             	3.11582943e+02
203             	3.11600752e+02
204             	3.11617748e+02
205             	3.11633897e+02
206             	3.11649764e+02
207             	3.11665432e+02
208             	3.11681390e+02
209             	3.11697397e+02
210             	3.11713020e+02
211             	3.11727825e+02
212             	3.11741970e+02
213             	3.11755590e+02
214             	3.11768909e+02
215             	3.11782043e+02
216             	3.11795415e+02
217             	3.11809013e+02
218             	3.11822927e+02
219             	3.11836845e+02
220             	3.11850379e+02
221             	3.11863249e+02
222             	3.11876078e+02
223             	3.11887988e+02
224             	3.11899432e+02
225             	3.11910441e+02
226             	3.11920900e+02
227             	3.11931336e+02
228             	3.11942086e+02
229             	3.11953179e+02
230             	3.11965116e+02
231             	3.11977251e+02
232             	3.11989269e+02
233             	3.12001575e+02
234             	3.12014573e+02
235             	3.12027996e+02
236             	3.12041132e+02
237             	3.12053585e+02
238             	3.12066035e+02
239             	3.12077823e+02
240             	3.12089134e+02
241             	3.12100637e+02
242             	3.12111448e+02
243             	3.12121976e+02
244             	3.12132347e+02
245             	3.12142821e+02
246             	3.12153630e+02
247             	3.12164870e+02
248             	3.12176828e+02
249             	3.12189034e+02
250             	3.12201429e+02
251             	3.12213851e+02
252             	3.12226193e+02
253             	3.12238112e+02
254             	3.12249322e+02
255             	3.12259734e+02
256             	3.12269811e+02
257             	3.12279430e+02
258             	3.12288679e+02
259             	3.12297492e+02
260             	3.12306117e+02
261             	3.12314161e+02
262             	3.12322422e+02
263             	3.12330936e+02
264             	3.12339585e+02
265             	3.12348344e+02
266             	3.12357328e+02
267             	3.12366758e+02
268             	3.12376553e+02
269             	3.12386320e+02
270             	3.12395661e+02
271             	3.12404546e+02
272             	3.12412744e+02
273             	3.12420754e+02
274             	3.12428199e+02
275             	3.12435080e+02
276             	3.12441797e+02
277             	3.12448571e+02
278             	3.12455253e+02
279             	3.12462207e+02
280             	3.12469154e+02
281             	3.12476078e+02
282             	3.12482912e+02
283             	3.12489572e+02
284             	3.12496003e+02
285             	3.12502422e+02
286             	3.12508724e+02
287             	3.12514774e+02
288             	3.12520596e+02
289             	3.12526327e+02
290             	3.12531980e+02
291             	3.12537558e+02
292             	3.12543233e+02
293             	3.12548996e+02
294             	3.12554866e+02
295             	3.12560792e+02
296             	3.12566901e+02
297             	3.12572901e+02
298             	3.12578812e+02
299             	3.12584757e+02
300             	3.12590778e+02
301             	3.12596958e+02
302             	3.12603441e+02
303             	3.12610244e+02
304             	3.12617333e+02
305             	3.12624719e+02
306             	3.12631857e+02
307             	3.12639153e+02
308             	3.12646268e+02
309             	3.12653089e+02
310             	3.12659593e+02
311             	3.12666065e+02
312             	3.12672281e+02
313             	3.12678246e+02
314             	3.12684075e+02
315             	3.12689880e+02
316             	3.12695691e+02
317             	3.12701389e+02
318             	3.12706828e+02
319             	3.12712075e+02
320             	3.12717260e+02
321             	3.12722164e+02
322             	3.12726363e+02
323             	3.12730020e+02
324             	3.12733475e+02
325             	3.12736827e+02
326             	3.12740294e+02
327             	3.12743763e+02
328             	3.12747231e+02
329             	3.12750863e+02
330             	3.12754713e+02
331             	3.12758862e+02
332             	3.12763347e+02
333             	3.12768243e+02
334             	3.12773612e+02
335             	3.12779441e+02
336             	3.12785762e+02
337             	3.12792507e+02
338             	3.12799520e+02
339             	3.12806950e+02
340             	3.12814033e+02
341             	3.12820876e+02
342             	3.12827080e+02
343             	3.12832676e+02
344             	3.12837860e+02
345             	3.12842549e+02
346             	3.12846583e+02
347             	3.12849748e+02
348             	3.12852782e+02
349             	3.12855846e+02
350             	3.12858836e+02
351             	3.12861600e+02
352             	3.12864376e+02
353             	3.12867157e+02
354             	3.12869636e+02
355             	3.12871781e+02
356             	3.12873450e+02
357             	3.12874613e+02
358             	3.12875423e+02
359             	3.12875987e+02
360             	3.12876446e+02
361             	3.12877006e+02
362             	3.12877689e+02
363             	3.12878361e+02
364             	3.12880203e+02
365             	3.12882114e+02
366             	3.12884237e+02
367             	3.12886379e+02
368             	3.12888440e+02
369             	3.12889618e+02
370             	3.12890358e+02
371             	3.12890527e+02
372             	3.12890807e+02
373             	3.12891012e+02
374             	3.12891266e+02
375             	3.12891852e+02
376             	3.12892879e+02
377             	3.12894418e+02
378             	3.12896812e+02
379             	3.12899708e+02
380             	3.12902612e+02
381             	3.12905630e+02
382             	3.12908207e+02
383             	3.12910411e+02
384             	3.12912333e+02
385             	3.12913939e+02
386             	3.12915165e+02
387             	3.12916696e+02
388             	3.12918619e+02
389             	3.12920753e+02
390             	3.12922434e+02
391             	3.12923531e+02
392             	3.12923910e+02
393             	3.12924146e+02
394             	3.12924340e+02
395             	3.12924492e+02
396             	3.12924838e+02
397             	3.12925882e+02
398             	3.12927932e+02
399             	3.12931148e+02
400             	3.12934583e+02
401             	3.12938345e+02
402             	3.12942636e+02
403             	3.12947166e+02
404             	3.12951321e+02
405             	3.12954929e+02
406             	3.12958000e+02
407             	3.12960319e+02
408             	3.12961812e+02
409             	3.12961726e+02
410             	3.12961689e+02
411             	3.12962020e+02
412             	3.12962576e+02
413             	3.12963514e+02
414             	3.12965084e+02
415             	3.12967155e+02
416             	3.12968986e+02
417             	3.12972377e+02
418             	3.12975858e+02
419             	3.12979053e+02
420             	3.12981737e+02
421             	3.12983800e+02
422             	3.12985317e+02
423             	3.12986197e+02
424             	3.12986458e+02
425             	3.12986327e+02
426             	3.12986297e+02
427             	3.12985316e+02
428             	3.12983862e+02
429             	3.12982476e+02
430             	3.12980950e+02
431             	3.12979549e+02
432             	3.12978355e+02
433             	3.12977514e+02
434             	3.12977205e+02
435             	3.12977391e+02
436             	3.12978467e+02
437             	3.12980939e+02
438             	3.12984395e+02
439             	3.12987482e+02
440             	3.12990478e+02
441             	3.12993472e+02
442             	3.12994653e+02
443             	3.12994330e+02
444             	3.12993611e+02
445             	3.12992732e+02
446             	3.12991409e+02
447             	3.12989637e+02
448             	3.12987739e+02
449             	3.12985795e+02
450             	3.12984185e+02
451             	3.12983446e+02
452             	3.12983582e+02
453             	3.12985226e+02
454             	3.12987749e+02
455             	3.12991156e+02
456             	3.12995471e+02
457             	3.12999711e+02
458             	3.13003205e+02
459             	3.13005654e+02
460             	3.13006856e+02
461             	3.13007062e+02
462             	3.13006385e+02
463             	3.13003910e+02
464             	3.13001667e+02
465             	3.12999954e+02
466             	3.12998886e+02
467             	3.12998237e+02
468             	3.12997530e+02
469             	3.12997691e+02
470             	3.12999191e+02
471             	3.13000883e+02
472             	3.13003216e+02
473             	3.13006226e+02
474             	3.13009591e+02
475             	3.13013021e+02
476             	3.13016248e+02
477             	3.13019063e+02
478             	3.13021577e+02
479             	3.13023294e+02
480             	3.13024280e+02
481             	3.13024712e+02
482             	3.13024863e+02
483             	3.13025053e+02
484             	3.13025499e+02
485             	3.13026430e+02
486             	3.13028127e+02
487             	3.13030836e+02
488             	3.13033517e+02
489             	3.13036486e+02
490             	3.13040584e+02
491             	3.13044807e+02
492             	3.13048254e+02
493             	3.13050791e+02
494             	3.13052489e+02
495             	3.13053783e+02
496             	3.13053826e+02
497             	3.13053699e+02
498             	3.13052863e+02
499             	3.13051753e+02
500             	3.13049834e+02
501             	3.13047805e+02
502             	3.13046067e+02
503             	3.13045072e+02
504             	3.13044414e+02
505             	3.13045186e+02
506             	3.13046395e+02
507             	3.13048124e+02
508             	3.13050076e+02
509             	3.13052056e+02
510             	3.13053897e+02
511             	3.13054911e+02
512             	3.13056032e+02
513             	3.13057112e+02
514             	3.13057330e+02
515             	3.13056364e+02
516             	3.13055492e+02
517             	3.13055339e+02
518             	3.13055406e+02
519             	3.13055656e+02
520             	3.13056226e+02
521             	3.13056906e+02
522             	3.13058024e+02
523             	3.13060312e+02
524             	3.13062900e+02
525             	3.13065836e+02
526             	3.13068701e+02
527             	3.13071605e+02
528             	3.13074357e+02
529             	3.13076468e+02
530             	3.13077849e+02
531             	3.13078444e+02
532             	3.13078211e+02
533             	3.13076988e+02
534             	3.13075590e+02
535             	3.13073119e+02
536             	3.13070974e+02
537             	3.13069203e+02
538             	3.13068071e+02
539             	3.13067383e+02
540             	3.13066853e+02
541             	3.13067182e+02
542             	3.13068112e+02
543             	3.13069244e+02
544             	3.13070329e+02
545             	3.13071738e+02
546             	3.13073297e+02
547             	3.13074864e+02
548             	3.13076443e+02
549             	3.13077816e+02
550             	3.13079255e+02
551             	3.13080761e+02
552             	3.13082253e+02
553             	3.13083743e+02
554             	3.13085219e+02
555             	3.13086660e+02
556             	3.13088062e+02
557             	3.13088705e+02
558             	3.13088898e+02
559             	3.13088930e+02
560             	3.13088753e+02
561             	3.13088311e+02
562             	3.13087899e+02
563             	3.13087561e+02
564             	3.13087358e+02
565             	3.13087198e+02
566             	3.13087167e+02
567             	3.13087364e+02
568             	3.13088139e+02
569             	3.13088638e+02
570             	3.13088874e+02
571             	3.13088735e+02
572             	3.13088077e+02
573             	3.13086939e+02
574             	3.13085819e+02
575             	3.13084498e+02
576             	3.13082965e+02
577             	3.13081426e+02
578             	3.13080357e+02
579             	3.13079781e+02
580             	3.13079652e+02
581             	3.13079941e+02
582             	3.13080316e+02
583             	3.13081713e+02
584             	3.13083947e+02
585             	3.13086828e+02
586             	3.13089963e+02
587             	3.13093235e+02
588             	3.13096256e+02
589             	3.13099877e+02
590             	3.13103705e+02
591             	3.13106986e+02
592             	3.13109724e+02
593             	3.13112468e+02
594             	3.13115311e+02
595             	3.13118005e+02
596             	3.13120896e+02
597             	3.13124185e+02
598             	3.13128210e+02
599             	3.13132400e+02
600             	3.13136853e+02
601             	3.13140879e+02
602             	3.13144417e+02
603             	3.13147531e+02
604             	3.13149942e+02
605             	3.13151719e+02
606             	3.13152529e+02
607             	3.13152933e+02
608             	3.13152889e+02
609             	3.13152842e+02
610             	3.13152766e+02
611             	3.13152443e+02
612             	3.13151967e+02
613             	3.13151281e+02
614             	3.13150391e+02
615             	3.13149569e+02
616             	3.13148899e+02
617             	3.13148159e+02
618             	3.13147354e+02
619             	3.13146591e+02
620             	3.13146017e+02
621             	3.13145642e+02
