# Region        : cellZone component_1
# Cells         : 24
# Volume        : 3.20534762e-02
# Time          	volAverage(T)
1               	3.06563715e+02
2               	3.13003079e+02
3               	3.18608443e+02
4               	3.23737263e+02
5               	3.28576539e+02
6               	3.33045872e+02
7               	3.37190954e+02
8               	3.41195891e+02
9               	3.45127902e+02
10              	3.48980433e+02
11              	3.52730931e+02
12              	3.56486558e+02
13              	3.60192286e+02
14              	3.63742914e+02
15              	3.67193376e+02
16              	3.70500967e+02
17              	3.73560773e+02
18              	3.76525814e+02
19              	3.79615981e+02
20              	3.82534589e+02
21              	3.85154250e+02
22              	3.87616974e+02
23              	3.89973431e+02
24              	3.92312772e+02
25              	3.94716525e+02
26              	3.97201379e+02
27              	3.99756258e+02
28              	4.02170015e+02
29              	4.04313947e+02
30              	4.06390075e+02
31              	4.08340529e+02
32              	4.10160849e+02
33              	4.12107195e+02
34              	4.14139473e+02
35              	4.16132831e+02
36              	4.18094000e+02
37              	4.20095986e+02
38              	4.22044337e+02
39              	4.23827745e+02
40              	4.25229763e+02
41              	4.26042483e+02
42              	4.26707782e+02
43              	4.27176799e+02
44              	4.27580980e+02
45              	4.27963838e+02
46              	4.28558607e+02
47              	4.29448147e+02
48              	4.30630255e+02
49              	4.31990005e+02
50              	4.33482463e+02
51              	4.35008498e+02
52              	4.36376262e+02
53              	4.37611402e+02
54              	4.38530399e+02
55              	4.39084690e+02
56              	4.39164393e+02
57              	4.38977266e+02
58              	4.38816028e+02
59              	4.38823939e+02
60              	4.39000525e+02
61              	4.39340243e+02
62              	4.40075790e+02
63              	4.40946479e+02
64              	4.41934035e+02
65              	4.42831728e+02
66              	4.43646616e+02
67              	4.44347910e+02
68              	4.44912774e+02
69              	4.45218662e+02
70              	4.45218918e+02
71              	4.45140146e+02
72              	4.45060764e+02
73              	4.45130962e+02
74              	4.45224454e+02
75              	4.45346784e+02
76              	4.45678269e+02
77              	4.46246853e+02
78              	4.47001009e+02
79              	4.47921150e+02
80              	4.48822341e+02
81              	4.49748167e+02
82              	4.50608976e+02
83              	4.51371754e+02
84              	4.52204242e+02
85              	4.52947596e+02
86              	4.53419575e+02
87              	4.53841027e+02
88              	4.54258975e+02
89              	4.54418113e+02
90              	4.54603024e+02
91              	4.54792933e+02
92              	4.55020803e+02
93              	4.55269702e+02
94              	4.55621108e+02
95              	4.56045308e+02
96              	4.56510854e+02
97              	4.56917666e+02
98              	4.57319780e+02
99              	4.57681148e+02
100             	4.58095804e+02
101             	4.58559733e+02
102             	4.59112654e+02
103             	4.59614501e+02
104             	4.60017743e+02
105             	4.60291041e+02
106             	4.60581435e+02
107             	4.60794095e+02
108             	4.60914574e+02
109             	4.61089556e+02
110             	4.61384470e+02
111             	4.61765690e+02
112             	4.62245217e+02
113             	4.62796519e+02
114             	4.63390487e+02
115             	4.64045619e+02
116             	4.64780508e+02
117             	4.65592433e+02
118             	4.66432227e+02
119             	4.67097063e+02
120             	4.67880469e+02
121             	4.68464051e+02
122             	4.69184472e+02
123             	4.69924114e+02
124             	4.70592750e+02
125             	4.71203675e+02
126             	4.71723177e+02
127             	4.72130342e+02
128             	4.72357840e+02
129             	4.72450291e+02
130             	4.72440633e+02
131             	4.72367901e+02
132             	4.72285465e+02
133             	4.72263295e+02
134             	4.72375133e+02
135             	4.72526003e+02
136             	4.72781263e+02
137             	4.72937961e+02
138             	4.73267389e+02
139             	4.73523671e+02
140             	4.73801625e+02
141             	4.74267393e+02
142             	4.74795900e+02
143             	4.75352673e+02
144             	4.75941313e+02
145             	4.76503362e+02
146             	4.77363829e+02
147             	4.77937225e+02
148             	4.78651625e+02
149             	4.79242170e+02
150             	4.79897568e+02
151             	4.80484596e+02
152             	4.81094907e+02
153             	4.81511180e+02
154             	4.81730649e+02
155             	4.81697179e+02
156             	4.81587813e+02
157             	4.81453371e+02
158             	4.81468411e+02
159             	4.81496460e+02
160             	4.81605917e+02
161             	4.81831521e+02
162             	4.82153055e+02
163             	4.82399265e+02
164             	4.82486650e+02
165             	4.82738429e+02
166             	4.82974555e+02
167             	4.83087185e+02
168             	4.83085877e+02
169             	4.83056279e+02
170             	4.83104229e+02
171             	4.83286588e+02
172             	4.83596712e+02
173             	4.83764215e+02
174             	4.83903769e+02
175             	4.84047722e+02
176             	4.84302576e+02
177             	4.84534811e+02
178             	4.84559912e+02
179             	4.84593579e+02
180             	4.84685174e+02
181             	4.84753357e+02
182             	4.84830382e+02
183             	4.84984574e+02
184             	4.84910578e+02
185             	4.84927739e+02
186             	4.85063723e+02
187             	4.84982014e+02
188             	4.84992191e+02
189             	4.85049541e+02
190             	4.85012518e+02
191             	4.84845038e+02
192             	4.84739337e+02
193             	4.84663401e+02
194             	4.84592447e+02
195             	4.84594571e+02
196             	4.84656697e+02
197             	4.84878392e+02
198             	4.84927855e+02
199             	4.84969776e+02
200             	4.85175911e+02
201             	4.85209871e+02
202             	4.85249496e+02
203             	4.85237896e+02
204             	4.85302235e+02
205             	4.85425895e+02
206             	4.85546027e+02
207             	4.85640931e+02
208             	4.85604605e+02
209             	4.85698012e+02
210             	4.85877651e+02
211             	4.85811120e+02
212             	4.85844978e+02
213             	4.85766530e+02
214             	4.85758130e+02
215             	4.85623027e+02
216             	4.85557824e+02
217             	4.85527310e+02
218             	4.85496291e+02
219             	4.85485162e+02
220             	4.85519193e+02
221             	4.85545448e+02
222             	4.85693612e+02
223             	4.85956230e+02
224             	4.86032727e+02
225             	4.86278194e+02
226             	4.86397677e+02
227             	4.86521508e+02
228             	4.86653679e+02
229             	4.86936274e+02
230             	4.87040324e+02
231             	4.87248134e+02
232             	4.87290686e+02
233             	4.87392183e+02
234             	4.87488130e+02
235             	4.87383459e+02
236             	4.87273341e+02
237             	4.87210993e+02
238             	4.87114472e+02
239             	4.87009457e+02
240             	4.87011986e+02
241             	4.87007978e+02
242             	4.87060246e+02
243             	4.86932115e+02
244             	4.86961363e+02
245             	4.86892159e+02
246             	4.87014473e+02
247             	4.86942961e+02
248             	4.86985548e+02
249             	4.87125308e+02
250             	4.87044112e+02
251             	4.87099806e+02
252             	4.87034115e+02
253             	4.87062740e+02
254             	4.87206140e+02
255             	4.87248741e+02
256             	4.87108326e+02
257             	4.87051564e+02
258             	4.87044002e+02
259             	4.87030829e+02
260             	4.87023016e+02
261             	4.87050941e+02
262             	4.86929353e+02
263             	4.86954362e+02
264             	4.86878030e+02
265             	4.86977745e+02
266             	4.86911384e+02
267             	4.86942086e+02
268             	4.86885389e+02
269             	4.86953336e+02
270             	4.86895575e+02
271             	4.86926947e+02
272             	4.86945827e+02
273             	4.86874716e+02
274             	4.86795794e+02
275             	4.86770749e+02
276             	4.86814976e+02
277             	4.86796193e+02
278             	4.86795550e+02
279             	4.86853615e+02
280             	4.86746359e+02
281             	4.86799118e+02
282             	4.86760438e+02
283             	4.86866471e+02
284             	4.87029311e+02
285             	4.87036569e+02
286             	4.87214957e+02
287             	4.87245309e+02
288             	4.87396827e+02
289             	4.87438983e+02
290             	4.87588526e+02
291             	4.87840832e+02
292             	4.87824186e+02
293             	4.87933919e+02
294             	4.87897243e+02
295             	4.87941707e+02
296             	4.88054117e+02
297             	4.87936869e+02
298             	4.87898835e+02
299             	4.87896173e+02
300             	4.87820248e+02
301             	4.87760887e+02
302             	4.87732415e+02
303             	4.87730327e+02
304             	4.87736209e+02
305             	4.87736050e+02
306             	4.87551661e+02
307             	4.87477099e+02
308             	4.87501245e+02
309             	4.87378212e+02
310             	4.87376642e+02
311             	4.87283480e+02
312             	4.87326127e+02
313             	4.87248155e+02
314             	4.87307308e+02
315             	4.87234641e+02
316             	4.87307103e+02
317             	4.87239020e+02
318             	4.87284526e+02
319             	4.87214906e+02
320             	4.87238369e+02
321             	4.87304837e+02
322             	4.87370047e+02
323             	4.87428592e+02
324             	4.87464068e+02
325             	4.87484933e+02
326             	4.87512971e+02
327             	4.87548751e+02
328             	4.87452799e+02
329             	4.87463248e+02
330             	4.87555570e+02
331             	4.87526875e+02
332             	4.87664234e+02
333             	4.87667221e+02
334             	4.87837213e+02
335             	4.87863496e+02
336             	4.88039455e+02
337             	4.88074493e+02
338             	4.88234763e+02
339             	4.88265224e+02
340             	4.88381497e+02
341             	4.88551351e+02
342             	4.88505934e+02
343             	4.88522698e+02
344             	4.88558096e+02
345             	4.88592272e+02
346             	4.88622967e+02
347             	4.88664733e+02
348             	4.88478703e+02
349             	4.88397028e+02
350             	4.88390099e+02
351             	4.88223672e+02
352             	4.88168004e+02
353             	4.88241908e+02
354             	4.88092633e+02
355             	4.88062033e+02
356             	4.88081274e+02
357             	4.87993023e+02
358             	4.88033364e+02
359             	4.87996575e+02
360             	4.88093095e+02
361             	4.88091035e+02
362             	4.88219258e+02
363             	4.88239562e+02
364             	4.88401230e+02
365             	4.88419601e+02
366             	4.88542610e+02
367             	4.88774404e+02
368             	4.88969994e+02
369             	4.89019819e+02
370             	4.89059868e+02
371             	4.89167187e+02
372             	4.89302348e+02
373             	4.89467079e+02
374             	4.89382574e+02
375             	4.89420226e+02
376             	4.89566871e+02
377             	4.89507870e+02
378             	4.89581733e+02
379             	4.89549805e+02
380             	4.89649161e+02
381             	4.89614661e+02
382             	4.89697724e+02
383             	4.89667920e+02
384             	4.89770172e+02
385             	4.89738225e+02
386             	4.89811874e+02
387             	4.89998480e+02
388             	4.89923585e+02
389             	4.89954277e+02
390             	4.90078049e+02
391             	4.89952080e+02
392             	4.89922225e+02
393             	4.89891034e+02
394             	4.89889384e+02
395             	4.89825050e+02
396             	4.89794492e+02
397             	4.89640926e+02
398             	4.89585865e+02
399             	4.89599528e+02
400             	4.89687228e+02
401             	4.89557234e+02
402             	4.89560371e+02
403             	4.89482131e+02
404             	4.89578979e+02
405             	4.89517067e+02
406             	4.89590612e+02
407             	4.89536973e+02
408             	4.89595399e+02
409             	4.89561506e+02
410             	4.89642799e+02
411             	4.89602261e+02
412             	4.89649013e+02
413             	4.89774747e+02
414             	4.89686488e+02
415             	4.89688092e+02
416             	4.89748115e+02
417             	4.89861162e+02
418             	4.89718606e+02
419             	4.89675746e+02
420             	4.89704570e+02
421             	4.89811653e+02
422             	4.89674391e+02
423             	4.89677707e+02
424             	4.89581865e+02
425             	4.89598964e+02
426             	4.89725966e+02
427             	4.89632319e+02
428             	4.89651051e+02
429             	4.89677004e+02
430             	4.89732526e+02
431             	4.89867951e+02
432             	4.89789759e+02
433             	4.89814437e+02
434             	4.89908602e+02
435             	4.89844176e+02
436             	4.89903881e+02
437             	4.89851892e+02
438             	4.89928556e+02
439             	4.89871230e+02
440             	4.89936298e+02
441             	4.89880262e+02
442             	4.89938030e+02
443             	4.89881739e+02
444             	4.89932883e+02
445             	4.90081551e+02
446             	4.89999093e+02
447             	4.90030661e+02
448             	4.90165381e+02
449             	4.90094460e+02
450             	4.90121859e+02
451             	4.90259317e+02
452             	4.90198136e+02
453             	4.90257209e+02
454             	4.90190548e+02
455             	4.90234245e+02
456             	4.90387793e+02
457             	4.90281603e+02
458             	4.90289371e+02
459             	4.90188905e+02
460             	4.90191817e+02
461             	4.90261051e+02
462             	4.90152694e+02
463             	4.90109756e+02
464             	4.90109131e+02
465             	4.90118610e+02
466             	4.90149337e+02
467             	4.90233779e+02
468             	4.90122907e+02
469             	4.90165649e+02
470             	4.90094860e+02
471             	4.90163375e+02
472             	4.90106924e+02
473             	4.90161669e+02
474             	4.90119381e+02
475             	4.90196125e+02
476             	4.90147078e+02
477             	4.90176709e+02
478             	4.90246439e+02
479             	4.90350274e+02
480             	4.90252901e+02
481             	4.90260318e+02
482             	4.90352604e+02
483             	4.90249532e+02
484             	4.90262889e+02
485             	4.90162780e+02
486             	4.90167526e+02
487             	4.90288197e+02
488             	4.90160868e+02
489             	4.90140807e+02
490             	4.90205100e+02
491             	4.90080737e+02
492             	4.90053541e+02
493             	4.90091086e+02
494             	4.90162677e+02
495             	4.90163985e+02
496             	4.90251572e+02
497             	4.90153723e+02
498             	4.90191603e+02
499             	4.90126463e+02
500             	4.90214530e+02
501             	4.90142489e+02
502             	4.90198900e+02
503             	4.90113814e+02
504             	4.90148580e+02
505             	4.90059836e+02
506             	4.90071626e+02
507             	4.90108858e+02
508             	4.90194743e+02
509             	4.90040690e+02
510             	4.89979102e+02
511             	4.89993661e+02
512             	4.89892706e+02
513             	4.89866450e+02
514             	4.89907805e+02
515             	4.89793472e+02
516             	4.89799739e+02
517             	4.89720102e+02
518             	4.89775026e+02
519             	4.89721099e+02
520             	4.89800345e+02
521             	4.89765141e+02
522             	4.89849895e+02
523             	4.90035533e+02
524             	4.90004330e+02
525             	4.90098068e+02
526             	4.90072909e+02
527             	4.90160902e+02
528             	4.90116183e+02
529             	4.90186800e+02
530             	4.90109256e+02
531             	4.90120896e+02
532             	4.90013365e+02
533             	4.89989993e+02
534             	4.89992338e+02
535             	4.89905240e+02
536             	4.89853157e+02
537             	4.89841297e+02
538             	4.89828720e+02
539             	4.89843022e+02
540             	4.89928464e+02
541             	4.89781711e+02
542             	4.89780836e+02
543             	4.89698137e+02
544             	4.89767461e+02
545             	4.89717538e+02
546             	4.89810105e+02
547             	4.89788663e+02
548             	4.89887289e+02
549             	4.90030427e+02
550             	4.90169762e+02
551             	4.90168762e+02
552             	4.90294588e+02
553             	4.90547081e+02
554             	4.90536693e+02
555             	4.90671607e+02
556             	4.90661902e+02
557             	4.90758383e+02
558             	4.90740699e+02
559             	4.90826530e+02
560             	4.90989978e+02
561             	4.90921352e+02
562             	4.90934010e+02
563             	4.90988527e+02
564             	4.91043463e+02
565             	4.91122363e+02
566             	4.90989139e+02
567             	4.90965923e+02
568             	4.91048292e+02
569             	4.90919096e+02
570             	4.90924066e+02
571             	4.90815438e+02
572             	4.90815082e+02
573             	4.90724399e+02
574             	4.90747725e+02
575             	4.90664076e+02
576             	4.90687433e+02
577             	4.90802773e+02
578             	4.90705410e+02
579             	4.90705593e+02
580             	4.90811638e+02
581             	4.90739025e+02
582             	4.90739785e+02
583             	4.90815569e+02
584             	4.90775964e+02
585             	4.90852548e+02
586             	4.91023061e+02
587             	4.90978585e+02
588             	4.91112690e+02
589             	4.91066932e+02
590             	4.91224756e+02
591             	4.91155598e+02
592             	4.91205420e+02
593             	4.91132509e+02
594             	4.91169869e+02
595             	4.91079145e+02
596             	4.91081348e+02
597             	4.91090800e+02
598             	4.91105690e+02
599             	4.91037203e+02
600             	4.90956805e+02
601             	4.90851203e+02
602             	4.90784815e+02
603             	4.90748163e+02
604             	4.90741905e+02
605             	4.90803289e+02
606             	4.90627175e+02
607             	4.90598514e+02
608             	4.90473539e+02
609             	4.90358462e+02
610             	4.90387723e+02
611             	4.90276652e+02
612             	4.90296305e+02
613             	4.90186288e+02
614             	4.90189594e+02
615             	4.90283376e+02
616             	4.90215666e+02
617             	4.90188801e+02
618             	4.90176875e+02
619             	4.90154929e+02
620             	4.90118025e+02
621             	4.90088352e+02
