# Region        : cellZone component_0
# Cells         : 264
# Volume        : 5.29918170e-01
# Time          	volAverage(T)
1               	3.00604441e+02
2               	3.01203970e+02
3               	3.01778415e+02
4               	3.02336319e+02
5               	3.02884117e+02
6               	3.03424260e+02
7               	3.03958704e+02
8               	3.04489934e+02
9               	3.05017202e+02
10              	3.05540384e+02
11              	3.06059264e+02
12              	3.06572734e+02
13              	3.07081950e+02
14              	3.07587233e+02
15              	3.08089658e+02
16              	3.08588588e+02
17              	3.09085463e+02
18              	3.09580564e+02
19              	3.10071316e+02
20              	3.10559361e+02
21              	3.11044651e+02
22              	3.11525621e+02
23              	3.12001519e+02
24              	3.12471031e+02
25              	3.12934649e+02
26              	3.13394538e+02
27              	3.13852386e+02
28              	3.14306828e+02
29              	3.14757091e+02
30              	3.15202917e+02
31              	3.15643774e+02
32              	3.16079972e+02
33              	3.16518819e+02
34              	3.16942652e+02
35              	3.17358585e+02
36              	3.17769089e+02
37              	3.18176117e+02
38              	3.18577496e+02
39              	3.18971435e+02
40              	3.19358572e+02
41              	3.19739752e+02
42              	3.20115591e+02
43              	3.20488457e+02
44              	3.20854357e+02
45              	3.21218695e+02
46              	3.21584600e+02
47              	3.21951024e+02
48              	3.22313199e+02
49              	3.22668583e+02
50              	3.23018911e+02
51              	3.23359251e+02
52              	3.23694745e+02
53              	3.24021294e+02
54              	3.24338317e+02
55              	3.24646364e+02
56              	3.24943915e+02
57              	3.25242784e+02
58              	3.25540525e+02
59              	3.25837345e+02
60              	3.26130622e+02
61              	3.26416135e+02
62              	3.26698002e+02
63              	3.26972144e+02
64              	3.27241295e+02
65              	3.27504885e+02
66              	3.27761802e+02
67              	3.28012983e+02
68              	3.28259907e+02
69              	3.28502929e+02
70              	3.28742981e+02
71              	3.28980639e+02
72              	3.29216256e+02
73              	3.29452916e+02
74              	3.29691859e+02
75              	3.29931955e+02
76              	3.30171326e+02
77              	3.30407816e+02
78              	3.30640765e+02
79              	3.30869674e+02
80              	3.31093150e+02
81              	3.31310542e+02
82              	3.31522036e+02
83              	3.31728559e+02
84              	3.31929578e+02
85              	3.32126755e+02
86              	3.32321313e+02
87              	3.32515798e+02
88              	3.32709423e+02
89              	3.32904943e+02
90              	3.33100213e+02
91              	3.33295402e+02
92              	3.33486656e+02
93              	3.33674993e+02
94              	3.33859834e+02
95              	3.34039326e+02
96              	3.34214088e+02
97              	3.34383796e+02
98              	3.34551693e+02
99              	3.34716999e+02
100             	3.34881276e+02
101             	3.35043601e+02
102             	3.35206277e+02
103             	3.35367949e+02
104             	3.35530865e+02
105             	3.35692900e+02
106             	3.35852164e+02
107             	3.36008671e+02
108             	3.36160708e+02
109             	3.36312319e+02
110             	3.36462131e+02
111             	3.36610631e+02
112             	3.36754621e+02
113             	3.36901071e+02
114             	3.37043487e+02
115             	3.37186806e+02
116             	3.37326419e+02
117             	3.37463308e+02
118             	3.37595217e+02
119             	3.37724876e+02
120             	3.37850647e+02
121             	3.37973236e+02
122             	3.38094086e+02
123             	3.38213599e+02
124             	3.38329647e+02
125             	3.38450800e+02
126             	3.38573766e+02
127             	3.38699971e+02
128             	3.38827821e+02
129             	3.38952187e+02
130             	3.39074151e+02
131             	3.39191931e+02
132             	3.39304937e+02
133             	3.39410676e+02
134             	3.39509832e+02
135             	3.39605522e+02
136             	3.39699194e+02
137             	3.39794938e+02
138             	3.39892648e+02
139             	3.39991494e+02
140             	3.40095318e+02
141             	3.40199616e+02
142             	3.40307686e+02
143             	3.40416508e+02
144             	3.40523043e+02
145             	3.40628975e+02
146             	3.40730745e+02
147             	3.40826745e+02
148             	3.40921185e+02
149             	3.41013589e+02
150             	3.41103332e+02
151             	3.41191841e+02
152             	3.41279946e+02
153             	3.41367744e+02
154             	3.41456759e+02
155             	3.41548184e+02
156             	3.41635496e+02
157             	3.41727367e+02
158             	3.41820948e+02
159             	3.41914298e+02
160             	3.42006418e+02
161             	3.42097376e+02
162             	3.42186791e+02
163             	3.42273206e+02
164             	3.42356640e+02
165             	3.42437054e+02
166             	3.42515087e+02
167             	3.42590484e+02
168             	3.42664451e+02
169             	3.42737088e+02
170             	3.42810199e+02
171             	3.42884361e+02
172             	3.42956720e+02
173             	3.43033412e+02
174             	3.43111790e+02
175             	3.43192244e+02
176             	3.43272692e+02
177             	3.43352904e+02
178             	3.43431124e+02
179             	3.43505573e+02
180             	3.43574913e+02
181             	3.43642526e+02
182             	3.43707531e+02
183             	3.43770556e+02
184             	3.43832381e+02
185             	3.43893503e+02
186             	3.43954710e+02
187             	3.44017908e+02
188             	3.44078163e+02
189             	3.44141517e+02
190             	3.44206339e+02
191             	3.44271383e+02
192             	3.44335429e+02
193             	3.44397612e+02
194             	3.44460435e+02
195             	3.44522509e+02
196             	3.44584324e+02
197             	3.44644863e+02
198             	3.44700640e+02
199             	3.44756645e+02
200             	3.44812266e+02
201             	3.44866328e+02
202             	3.44919996e+02
203             	3.44973742e+02
204             	3.45027526e+02
205             	3.45081292e+02
206             	3.45135994e+02
207             	3.45190500e+02
208             	3.45244035e+02
209             	3.45297501e+02
210             	3.45350184e+02
211             	3.45402305e+02
212             	3.45453545e+02
213             	3.45503739e+02
214             	3.45553135e+02
215             	3.45602116e+02
216             	3.45650164e+02
217             	3.45698160e+02
218             	3.45745200e+02
219             	3.45791881e+02
220             	3.45838379e+02
221             	3.45884849e+02
222             	3.45928573e+02
223             	3.45972976e+02
224             	3.46016947e+02
225             	3.46061021e+02
226             	3.46104464e+02
227             	3.46147613e+02
228             	3.46189529e+02
229             	3.46231211e+02
230             	3.46272900e+02
231             	3.46314802e+02
232             	3.46356104e+02
233             	3.46397858e+02
234             	3.46439380e+02
235             	3.46480841e+02
236             	3.46522337e+02
237             	3.46563919e+02
238             	3.46605411e+02
239             	3.46646665e+02
240             	3.46687479e+02
241             	3.46727751e+02
242             	3.46767497e+02
243             	3.46806484e+02
244             	3.46844699e+02
245             	3.46882108e+02
246             	3.46918822e+02
247             	3.46954986e+02
248             	3.46990742e+02
249             	3.47025792e+02
250             	3.47058805e+02
251             	3.47092418e+02
252             	3.47126030e+02
253             	3.47159342e+02
254             	3.47192384e+02
255             	3.47225250e+02
256             	3.47257723e+02
257             	3.47289820e+02
258             	3.47321935e+02
259             	3.47354021e+02
260             	3.47385807e+02
261             	3.47417673e+02
262             	3.47449241e+02
263             	3.47481061e+02
264             	3.47512551e+02
265             	3.47543918e+02
266             	3.47575142e+02
267             	3.47605940e+02
268             	3.47636556e+02
269             	3.47666753e+02
270             	3.47695366e+02
271             	3.47724131e+02
272             	3.47752717e+02
273             	3.47780805e+02
274             	3.47808463e+02
275             	3.47835728e+02
276             	3.47862717e+02
277             	3.47889460e+02
278             	3.47915858e+02
279             	3.47942036e+02
280             	3.47968202e+02
281             	3.47993995e+02
282             	3.48019695e+02
283             	3.48045253e+02
284             	3.48070606e+02
285             	3.48095689e+02
286             	3.48120680e+02
287             	3.48145181e+02
288             	3.48169416e+02
289             	3.48193588e+02
290             	3.48217415e+02
291             	3.48241030e+02
292             	3.48263860e+02
293             	3.48286828e+02
294             	3.48309097e+02
295             	3.48331360e+02
296             	3.48353437e+02
297             	3.48375321e+02
298             	3.48397141e+02
299             	3.48418877e+02
300             	3.48440183e+02
301             	3.48461738e+02
302             	3.48483070e+02
303             	3.48504284e+02
304             	3.48525145e+02
305             	3.48545815e+02
306             	3.48566628e+02
307             	3.48587314e+02
308             	3.48607688e+02
309             	3.48627651e+02
310             	3.48647300e+02
311             	3.48666461e+02
312             	3.48685467e+02
313             	3.48704189e+02
314             	3.48722179e+02
315             	3.48740435e+02
316             	3.48758560e+02
317             	3.48776198e+02
318             	3.48793690e+02
319             	3.48810988e+02
320             	3.48828091e+02
321             	3.48845082e+02
322             	3.48861918e+02
323             	3.48878798e+02
324             	3.48895221e+02
325             	3.48911719e+02
326             	3.48928413e+02
327             	3.48945188e+02
328             	3.48961890e+02
329             	3.48978418e+02
330             	3.48994557e+02
331             	3.49010603e+02
332             	3.49026354e+02
333             	3.49041747e+02
334             	3.49056878e+02
335             	3.49071699e+02
336             	3.49086215e+02
337             	3.49100581e+02
338             	3.49114618e+02
339             	3.49128546e+02
340             	3.49142352e+02
341             	3.49156199e+02
342             	3.49169981e+02
343             	3.49183694e+02
344             	3.49197208e+02
345             	3.49210671e+02
346             	3.49224015e+02
347             	3.49237145e+02
348             	3.49250160e+02
349             	3.49262949e+02
350             	3.49275570e+02
351             	3.49288076e+02
352             	3.49300486e+02
353             	3.49312657e+02
354             	3.49324715e+02
355             	3.49336683e+02
356             	3.49348560e+02
357             	3.49360326e+02
358             	3.49372027e+02
359             	3.49383082e+02
360             	3.49394451e+02
361             	3.49405821e+02
362             	3.49417067e+02
363             	3.49428121e+02
364             	3.49439031e+02
365             	3.49449801e+02
366             	3.49460513e+02
367             	3.49471159e+02
368             	3.49481744e+02
369             	3.49492302e+02
370             	3.49502818e+02
371             	3.49513301e+02
372             	3.49523742e+02
373             	3.49534099e+02
374             	3.49544363e+02
375             	3.49554608e+02
376             	3.49564800e+02
377             	3.49574884e+02
378             	3.49584771e+02
379             	3.49594427e+02
380             	3.49604051e+02
381             	3.49613520e+02
382             	3.49622774e+02
383             	3.49631859e+02
384             	3.49640785e+02
385             	3.49649584e+02
386             	3.49658350e+02
387             	3.49667020e+02
388             	3.49675568e+02
389             	3.49684133e+02
390             	3.49692342e+02
391             	3.49700550e+02
392             	3.49708838e+02
393             	3.49717157e+02
394             	3.49725428e+02
395             	3.49733649e+02
396             	3.49741800e+02
397             	3.49749823e+02
398             	3.49757688e+02
399             	3.49765336e+02
400             	3.49772693e+02
401             	3.49779975e+02
402             	3.49787153e+02
403             	3.49794160e+02
404             	3.49801051e+02
405             	3.49807854e+02
406             	3.49814651e+02
407             	3.49821461e+02
408             	3.49828276e+02
409             	3.49835079e+02
410             	3.49841864e+02
411             	3.49848590e+02
412             	3.49855255e+02
413             	3.49861877e+02
414             	3.49868441e+02
415             	3.49874927e+02
416             	3.49881354e+02
417             	3.49887748e+02
418             	3.49894100e+02
419             	3.49900426e+02
420             	3.49906671e+02
421             	3.49912862e+02
422             	3.49918981e+02
423             	3.49925002e+02
424             	3.49930880e+02
425             	3.49936658e+02
426             	3.49942387e+02
427             	3.49948022e+02
428             	3.49953526e+02
429             	3.49959017e+02
430             	3.49964463e+02
431             	3.49969791e+02
432             	3.49975066e+02
433             	3.49980356e+02
434             	3.49985543e+02
435             	3.49990740e+02
436             	3.49995773e+02
437             	3.50000879e+02
438             	3.50005959e+02
439             	3.50010950e+02
440             	3.50015838e+02
441             	3.50020667e+02
442             	3.50025459e+02
443             	3.50030215e+02
444             	3.50034942e+02
445             	3.50039647e+02
446             	3.50044410e+02
447             	3.50049123e+02
448             	3.50053809e+02
449             	3.50058535e+02
450             	3.50063283e+02
451             	3.50068002e+02
452             	3.50072498e+02
453             	3.50076931e+02
454             	3.50081347e+02
455             	3.50085682e+02
456             	3.50089879e+02
457             	3.50093981e+02
458             	3.50098019e+02
459             	3.50101999e+02
460             	3.50105965e+02
461             	3.50109949e+02
462             	3.50113916e+02
463             	3.50117835e+02
464             	3.50121740e+02
465             	3.50125612e+02
466             	3.50129432e+02
467             	3.50133198e+02
468             	3.50136900e+02
469             	3.50140546e+02
470             	3.50144133e+02
471             	3.50147680e+02
472             	3.50151182e+02
473             	3.50154638e+02
474             	3.50157892e+02
475             	3.50161243e+02
476             	3.50164583e+02
477             	3.50167867e+02
478             	3.50171137e+02
479             	3.50174293e+02
480             	3.50177443e+02
481             	3.50180517e+02
482             	3.50183615e+02
483             	3.50186706e+02
484             	3.50189834e+02
485             	3.50192901e+02
486             	3.50195942e+02
487             	3.50199032e+02
488             	3.50202180e+02
489             	3.50205280e+02
490             	3.50208210e+02
491             	3.50211143e+02
492             	3.50214072e+02
493             	3.50216910e+02
494             	3.50219626e+02
495             	3.50222289e+02
496             	3.50224931e+02
497             	3.50227527e+02
498             	3.50230168e+02
499             	3.50232847e+02
500             	3.50235498e+02
501             	3.50238147e+02
502             	3.50240822e+02
503             	3.50243521e+02
504             	3.50246144e+02
505             	3.50248729e+02
506             	3.50251296e+02
507             	3.50253826e+02
508             	3.50256334e+02
509             	3.50258809e+02
510             	3.50261279e+02
511             	3.50263695e+02
512             	3.50266072e+02
513             	3.50268475e+02
514             	3.50270709e+02
515             	3.50273007e+02
516             	3.50275262e+02
517             	3.50277448e+02
518             	3.50279572e+02
519             	3.50281776e+02
520             	3.50283819e+02
521             	3.50285892e+02
522             	3.50288037e+02
523             	3.50290194e+02
524             	3.50292338e+02
525             	3.50294465e+02
526             	3.50296625e+02
527             	3.50298738e+02
528             	3.50300834e+02
529             	3.50302795e+02
530             	3.50304846e+02
531             	3.50306877e+02
532             	3.50308830e+02
533             	3.50310726e+02
534             	3.50312589e+02
535             	3.50314386e+02
536             	3.50316218e+02
537             	3.50318060e+02
538             	3.50319902e+02
539             	3.50321743e+02
540             	3.50323587e+02
541             	3.50325403e+02
542             	3.50327253e+02
543             	3.50329071e+02
544             	3.50330885e+02
545             	3.50332696e+02
546             	3.50334497e+02
547             	3.50336283e+02
548             	3.50338057e+02
549             	3.50339809e+02
550             	3.50341532e+02
551             	3.50343220e+02
552             	3.50344869e+02
553             	3.50346477e+02
554             	3.50348043e+02
555             	3.50349570e+02
556             	3.50351080e+02
557             	3.50352537e+02
558             	3.50353967e+02
559             	3.50355379e+02
560             	3.50356740e+02
561             	3.50358128e+02
562             	3.50359468e+02
563             	3.50360832e+02
564             	3.50362210e+02
565             	3.50363592e+02
566             	3.50364969e+02
567             	3.50366300e+02
568             	3.50367640e+02
569             	3.50368982e+02
570             	3.50370313e+02
571             	3.50371631e+02
572             	3.50372935e+02
573             	3.50374232e+02
574             	3.50375534e+02
575             	3.50376862e+02
576             	3.50378176e+02
577             	3.50379495e+02
578             	3.50380817e+02
579             	3.50382119e+02
580             	3.50383419e+02
581             	3.50384709e+02
582             	3.50385985e+02
583             	3.50387243e+02
584             	3.50388482e+02
585             	3.50389701e+02
586             	3.50390902e+02
587             	3.50392082e+02
588             	3.50393240e+02
589             	3.50394361e+02
590             	3.50395462e+02
591             	3.50396558e+02
592             	3.50397639e+02
593             	3.50398718e+02
594             	3.50399786e+02
595             	3.50400812e+02
596             	3.50401829e+02
597             	3.50402856e+02
598             	3.50403893e+02
599             	3.50404929e+02
600             	3.50405898e+02
601             	3.50406922e+02
602             	3.50407947e+02
603             	3.50408865e+02
604             	3.50409819e+02
605             	3.50410757e+02
606             	3.50411663e+02
607             	3.50412548e+02
608             	3.50413444e+02
609             	3.50414358e+02
610             	3.50415274e+02
611             	3.50416163e+02
612             	3.50417064e+02
613             	3.50417945e+02
614             	3.50418862e+02
615             	3.50419839e+02
616             	3.50420795e+02
617             	3.50421744e+02
618             	3.50422687e+02
619             	3.50423596e+02
620             	3.50424422e+02
621             	3.50425266e+02
