# Region        : cellZone component_3
# Cells         : 65
# Volume        : 1.11136060e-01
# Time          	volAverage(T)
1               	3.02922325e+02
2               	3.05756217e+02
3               	3.08037938e+02
4               	3.09931256e+02
5               	3.11666282e+02
6               	3.13314170e+02
7               	3.14884879e+02
8               	3.16373877e+02
9               	3.17803778e+02
10              	3.19189266e+02
11              	3.20541971e+02
12              	3.21953730e+02
13              	3.23247928e+02
14              	3.24362153e+02
15              	3.25289218e+02
16              	3.26202055e+02
17              	3.27183841e+02
18              	3.28082697e+02
19              	3.28857121e+02
20              	3.29538672e+02
21              	3.30140987e+02
22              	3.30655777e+02
23              	3.31121809e+02
24              	3.31546767e+02
25              	3.31983067e+02
26              	3.32429530e+02
27              	3.32922175e+02
28              	3.33500199e+02
29              	3.34224214e+02
30              	3.35022035e+02
31              	3.35621295e+02
32              	3.35994364e+02
33              	3.36334616e+02
34              	3.36688070e+02
35              	3.37012926e+02
36              	3.37284451e+02
37              	3.37520468e+02
38              	3.37730131e+02
39              	3.37965724e+02
40              	3.38247668e+02
41              	3.38586612e+02
42              	3.38887305e+02
43              	3.39027197e+02
44              	3.39143151e+02
45              	3.39212713e+02
46              	3.39333189e+02
47              	3.39507731e+02
48              	3.39693640e+02
49              	3.39854951e+02
50              	3.39973173e+02
51              	3.40113645e+02
52              	3.40294695e+02
53              	3.40540922e+02
54              	3.40932537e+02
55              	3.41244486e+02
56              	3.41196032e+02
57              	3.40854946e+02
58              	3.40375730e+02
59              	3.40131268e+02
60              	3.40108655e+02
61              	3.40135676e+02
62              	3.40152288e+02
63              	3.40148753e+02
64              	3.40183622e+02
65              	3.40268959e+02
66              	3.40478283e+02
67              	3.40847380e+02
68              	3.41123636e+02
69              	3.41227152e+02
70              	3.41171470e+02
71              	3.41132694e+02
72              	3.41179858e+02
73              	3.41232721e+02
74              	3.41234586e+02
75              	3.41177871e+02
76              	3.41084479e+02
77              	3.41132954e+02
78              	3.41280540e+02
79              	3.41444672e+02
80              	3.41532692e+02
81              	3.41450210e+02
82              	3.41249394e+02
83              	3.41060516e+02
84              	3.40824993e+02
85              	3.40662871e+02
86              	3.40457564e+02
87              	3.40176575e+02
88              	3.39915944e+02
89              	3.39772736e+02
90              	3.39818542e+02
91              	3.39922625e+02
92              	3.39916364e+02
93              	3.39783320e+02
94              	3.39546128e+02
95              	3.39350192e+02
96              	3.39299358e+02
97              	3.39305678e+02
98              	3.39220678e+02
99              	3.39064798e+02
100             	3.38948664e+02
101             	3.38857007e+02
102             	3.38877432e+02
103             	3.39073751e+02
104             	3.39407515e+02
105             	3.39598091e+02
106             	3.39575746e+02
107             	3.39398590e+02
108             	3.39156105e+02
109             	3.39078418e+02
110             	3.39013316e+02
111             	3.38870161e+02
112             	3.38703141e+02
113             	3.38573136e+02
114             	3.38602959e+02
115             	3.38772060e+02
116             	3.39140560e+02
117             	3.39322153e+02
118             	3.39279458e+02
119             	3.39042564e+02
120             	3.38823406e+02
121             	3.38727522e+02
122             	3.38608865e+02
123             	3.38413440e+02
124             	3.38209439e+02
125             	3.38027179e+02
126             	3.37944295e+02
127             	3.37992962e+02
128             	3.38196545e+02
129             	3.38346414e+02
130             	3.38357971e+02
131             	3.38219538e+02
132             	3.38051979e+02
133             	3.38015243e+02
134             	3.38164251e+02
135             	3.38272353e+02
136             	3.38257532e+02
137             	3.38172116e+02
138             	3.38144567e+02
139             	3.38192458e+02
140             	3.38287295e+02
141             	3.38488760e+02
142             	3.38837857e+02
143             	3.38983207e+02
144             	3.39074670e+02
145             	3.39088740e+02
146             	3.39132845e+02
147             	3.39200892e+02
148             	3.39279011e+02
149             	3.39332561e+02
150             	3.39327998e+02
151             	3.39340551e+02
152             	3.39415245e+02
153             	3.39671827e+02
154             	3.39915805e+02
155             	3.40047381e+02
156             	3.40011211e+02
157             	3.39962605e+02
158             	3.39977239e+02
159             	3.40135925e+02
160             	3.40278472e+02
161             	3.40389933e+02
162             	3.40467690e+02
163             	3.40533241e+02
164             	3.40611147e+02
165             	3.40720385e+02
166             	3.40864988e+02
167             	3.41059705e+02
168             	3.41309193e+02
169             	3.41618451e+02
170             	3.41973895e+02
171             	3.42214031e+02
172             	3.42452918e+02
173             	3.42659329e+02
174             	3.42798071e+02
175             	3.42870254e+02
176             	3.42906619e+02
177             	3.42897863e+02
178             	3.42904102e+02
179             	3.42939209e+02
180             	3.43016157e+02
181             	3.43164852e+02
182             	3.43437607e+02
183             	3.43740224e+02
184             	3.43976805e+02
185             	3.44230349e+02
186             	3.44442906e+02
187             	3.44579480e+02
188             	3.44645090e+02
189             	3.44671481e+02
190             	3.44678258e+02
191             	3.44709189e+02
192             	3.44765753e+02
193             	3.44849816e+02
194             	3.44993098e+02
195             	3.45262364e+02
196             	3.45546524e+02
197             	3.45832314e+02
198             	3.46080550e+02
199             	3.46291940e+02
200             	3.46431427e+02
201             	3.46486729e+02
202             	3.46483534e+02
203             	3.46459624e+02
204             	3.46448964e+02
205             	3.46471494e+02
206             	3.46563533e+02
207             	3.46794137e+02
208             	3.46984937e+02
209             	3.47178879e+02
210             	3.47311107e+02
211             	3.47420925e+02
212             	3.47435984e+02
213             	3.47369286e+02
214             	3.47208875e+02
215             	3.47049307e+02
216             	3.46914730e+02
217             	3.46813726e+02
218             	3.46783989e+02
219             	3.46888244e+02
220             	3.47088356e+02
221             	3.47224750e+02
222             	3.47270824e+02
223             	3.47326783e+02
224             	3.47346570e+02
225             	3.47305752e+02
226             	3.47172274e+02
227             	3.47013690e+02
228             	3.46847585e+02
229             	3.46725528e+02
230             	3.46679272e+02
231             	3.46700203e+02
232             	3.46802970e+02
233             	3.47013767e+02
234             	3.47203587e+02
235             	3.47318409e+02
236             	3.47412118e+02
237             	3.47476652e+02
238             	3.47456827e+02
239             	3.47341878e+02
240             	3.47179902e+02
241             	3.47073334e+02
242             	3.47005699e+02
243             	3.46980116e+02
244             	3.47028602e+02
245             	3.47170656e+02
246             	3.47330537e+02
247             	3.47522065e+02
248             	3.47660077e+02
249             	3.47755599e+02
250             	3.47778443e+02
251             	3.47734007e+02
252             	3.47649013e+02
253             	3.47543808e+02
254             	3.47440001e+02
255             	3.47401517e+02
256             	3.47471383e+02
257             	3.47669456e+02
258             	3.47895761e+02
259             	3.48030010e+02
260             	3.48123229e+02
261             	3.48157581e+02
262             	3.48197023e+02
263             	3.48168822e+02
264             	3.48017709e+02
265             	3.47808127e+02
266             	3.47612281e+02
267             	3.47479180e+02
268             	3.47376464e+02
269             	3.47338884e+02
270             	3.47448774e+02
271             	3.47500464e+02
272             	3.47502024e+02
273             	3.47437744e+02
274             	3.47382631e+02
275             	3.47246192e+02
276             	3.47040053e+02
277             	3.46804753e+02
278             	3.46567849e+02
279             	3.46363532e+02
280             	3.46222235e+02
281             	3.46143927e+02
282             	3.46144220e+02
283             	3.46217463e+02
284             	3.46352465e+02
285             	3.46441279e+02
286             	3.46593131e+02
287             	3.46699080e+02
288             	3.46749489e+02
289             	3.46751094e+02
290             	3.46719304e+02
291             	3.46661429e+02
292             	3.46598279e+02
293             	3.46514724e+02
294             	3.46416052e+02
295             	3.46320522e+02
296             	3.46264173e+02
297             	3.46256254e+02
298             	3.46305234e+02
299             	3.46435735e+02
300             	3.46621922e+02
301             	3.46838271e+02
302             	3.47031281e+02
303             	3.47220836e+02
304             	3.47388305e+02
305             	3.47506047e+02
306             	3.47567670e+02
307             	3.47585182e+02
308             	3.47584664e+02
309             	3.47589736e+02
310             	3.47604770e+02
311             	3.47637644e+02
312             	3.47706430e+02
313             	3.47820532e+02
314             	3.47977744e+02
315             	3.48135166e+02
316             	3.48305379e+02
317             	3.48459565e+02
318             	3.48589279e+02
319             	3.48679824e+02
320             	3.48736057e+02
321             	3.48767062e+02
322             	3.48779811e+02
323             	3.48781929e+02
324             	3.48776878e+02
325             	3.48773391e+02
326             	3.48775740e+02
327             	3.48785901e+02
328             	3.48807527e+02
329             	3.48845412e+02
330             	3.48898831e+02
331             	3.48967315e+02
332             	3.49041570e+02
333             	3.49125353e+02
334             	3.49208186e+02
335             	3.49269059e+02
336             	3.49316439e+02
337             	3.49349190e+02
338             	3.49368766e+02
339             	3.49377251e+02
340             	3.49381523e+02
341             	3.49392950e+02
342             	3.49408983e+02
343             	3.49428066e+02
344             	3.49452731e+02
345             	3.49485639e+02
346             	3.49529207e+02
347             	3.49571426e+02
348             	3.49614433e+02
349             	3.49655917e+02
350             	3.49690353e+02
351             	3.49719702e+02
352             	3.49744216e+02
353             	3.49765242e+02
354             	3.49783730e+02
355             	3.49801214e+02
356             	3.49817759e+02
357             	3.49832731e+02
358             	3.49844674e+02
359             	3.49853853e+02
360             	3.49864300e+02
361             	3.49880484e+02
362             	3.49901634e+02
363             	3.49929100e+02
364             	3.49962912e+02
365             	3.50002101e+02
366             	3.50040052e+02
367             	3.50070001e+02
368             	3.50093563e+02
369             	3.50108281e+02
370             	3.50115974e+02
371             	3.50117055e+02
372             	3.50117062e+02
373             	3.50122308e+02
374             	3.50131742e+02
375             	3.50147392e+02
376             	3.50171003e+02
377             	3.50201772e+02
378             	3.50233054e+02
379             	3.50259547e+02
380             	3.50280659e+02
381             	3.50292531e+02
382             	3.50293706e+02
383             	3.50286231e+02
384             	3.50274416e+02
385             	3.50263885e+02
386             	3.50255521e+02
387             	3.50248614e+02
388             	3.50246764e+02
389             	3.50250765e+02
390             	3.50259138e+02
391             	3.50268740e+02
392             	3.50278734e+02
393             	3.50283668e+02
394             	3.50283113e+02
395             	3.50275743e+02
396             	3.50261759e+02
397             	3.50245183e+02
398             	3.50229203e+02
399             	3.50216297e+02
400             	3.50209260e+02
401             	3.50209034e+02
402             	3.50215722e+02
403             	3.50227568e+02
404             	3.50242134e+02
405             	3.50256218e+02
406             	3.50270161e+02
407             	3.50280680e+02
408             	3.50286020e+02
409             	3.50286448e+02
410             	3.50282189e+02
411             	3.50275033e+02
412             	3.50270148e+02
413             	3.50267742e+02
414             	3.50269131e+02
415             	3.50275026e+02
416             	3.50285077e+02
417             	3.50297876e+02
418             	3.50308749e+02
419             	3.50318128e+02
420             	3.50325639e+02
421             	3.50330410e+02
422             	3.50331487e+02
423             	3.50328453e+02
424             	3.50324359e+02
425             	3.50319799e+02
426             	3.50315901e+02
427             	3.50312719e+02
428             	3.50312411e+02
429             	3.50316310e+02
430             	3.50323401e+02
431             	3.50331533e+02
432             	3.50340000e+02
433             	3.50347390e+02
434             	3.50352639e+02
435             	3.50354523e+02
436             	3.50353957e+02
437             	3.50350973e+02
438             	3.50348687e+02
439             	3.50346785e+02
440             	3.50345910e+02
441             	3.50346864e+02
442             	3.50351083e+02
443             	3.50357890e+02
444             	3.50364381e+02
445             	3.50371725e+02
446             	3.50379025e+02
447             	3.50384898e+02
448             	3.50388413e+02
449             	3.50388690e+02
450             	3.50385439e+02
451             	3.50380854e+02
452             	3.50375475e+02
453             	3.50370088e+02
454             	3.50365222e+02
455             	3.50362591e+02
456             	3.50363025e+02
457             	3.50366266e+02
458             	3.50371486e+02
459             	3.50376804e+02
460             	3.50382361e+02
461             	3.50387549e+02
462             	3.50390992e+02
463             	3.50391913e+02
464             	3.50390346e+02
465             	3.50387028e+02
466             	3.50384224e+02
467             	3.50381621e+02
468             	3.50380087e+02
469             	3.50380421e+02
470             	3.50383578e+02
471             	3.50389101e+02
472             	3.50396443e+02
473             	3.50403658e+02
474             	3.50409524e+02
475             	3.50413753e+02
476             	3.50415696e+02
477             	3.50414710e+02
478             	3.50411169e+02
479             	3.50406948e+02
480             	3.50403307e+02
481             	3.50400551e+02
482             	3.50399279e+02
483             	3.50400155e+02
484             	3.50403785e+02
485             	3.50409121e+02
486             	3.50414440e+02
487             	3.50419171e+02
488             	3.50422971e+02
489             	3.50425140e+02
490             	3.50424622e+02
491             	3.50421625e+02
492             	3.50416668e+02
493             	3.50411808e+02
494             	3.50407321e+02
495             	3.50404258e+02
496             	3.50403203e+02
497             	3.50405293e+02
498             	3.50409907e+02
499             	3.50416107e+02
500             	3.50421799e+02
501             	3.50425827e+02
502             	3.50427597e+02
503             	3.50426245e+02
504             	3.50422345e+02
505             	3.50417866e+02
506             	3.50413264e+02
507             	3.50408910e+02
508             	3.50405591e+02
509             	3.50404035e+02
510             	3.50405196e+02
511             	3.50408852e+02
512             	3.50412497e+02
513             	3.50416358e+02
514             	3.50420198e+02
515             	3.50422509e+02
516             	3.50422428e+02
517             	3.50419558e+02
518             	3.50415955e+02
519             	3.50412471e+02
520             	3.50409772e+02
521             	3.50408702e+02
522             	3.50409979e+02
523             	3.50414484e+02
524             	3.50421023e+02
525             	3.50428178e+02
526             	3.50435032e+02
527             	3.50440472e+02
528             	3.50443901e+02
529             	3.50444090e+02
530             	3.50440429e+02
531             	3.50435647e+02
532             	3.50430584e+02
533             	3.50426439e+02
534             	3.50423889e+02
535             	3.50424108e+02
536             	3.50428493e+02
537             	3.50435771e+02
538             	3.50444905e+02
539             	3.50453285e+02
540             	3.50459715e+02
541             	3.50463021e+02
542             	3.50461687e+02
543             	3.50455489e+02
544             	3.50448364e+02
545             	3.50441657e+02
546             	3.50437025e+02
547             	3.50435256e+02
548             	3.50437645e+02
549             	3.50442503e+02
550             	3.50449993e+02
551             	3.50458103e+02
552             	3.50464554e+02
553             	3.50469603e+02
554             	3.50471898e+02
555             	3.50469656e+02
556             	3.50462593e+02
557             	3.50454532e+02
558             	3.50445802e+02
559             	3.50438050e+02
560             	3.50432246e+02
561             	3.50430711e+02
562             	3.50435621e+02
563             	3.50444339e+02
564             	3.50455776e+02
565             	3.50466563e+02
566             	3.50474148e+02
567             	3.50477309e+02
568             	3.50474190e+02
569             	3.50465172e+02
570             	3.50454019e+02
571             	3.50441980e+02
572             	3.50431642e+02
573             	3.50424069e+02
574             	3.50421186e+02
575             	3.50424273e+02
576             	3.50431938e+02
577             	3.50439721e+02
578             	3.50445583e+02
579             	3.50449090e+02
580             	3.50447702e+02
581             	3.50440399e+02
582             	3.50431357e+02
583             	3.50421565e+02
584             	3.50413387e+02
585             	3.50408009e+02
586             	3.50406144e+02
587             	3.50409785e+02
588             	3.50418184e+02
589             	3.50428770e+02
590             	3.50437408e+02
591             	3.50444689e+02
592             	3.50448723e+02
593             	3.50446747e+02
594             	3.50441187e+02
595             	3.50433214e+02
596             	3.50424783e+02
597             	3.50417842e+02
598             	3.50413061e+02
599             	3.50413196e+02
600             	3.50418911e+02
601             	3.50427687e+02
602             	3.50437283e+02
603             	3.50446215e+02
604             	3.50453093e+02
605             	3.50454767e+02
606             	3.50453021e+02
607             	3.50445966e+02
608             	3.50437292e+02
609             	3.50427801e+02
610             	3.50419694e+02
611             	3.50413616e+02
612             	3.50411491e+02
613             	3.50414687e+02
614             	3.50420909e+02
615             	3.50427226e+02
616             	3.50432075e+02
617             	3.50433379e+02
618             	3.50429468e+02
619             	3.50420383e+02
620             	3.50410292e+02
621             	3.50399811e+02
