# Region        : cellZone component_3
# Cells         : 118
# Volume        : 2.29227136e-01
# Time          	volAverage(T)
1               	3.00428161e+02
2               	3.00849334e+02
3               	3.01225614e+02
4               	3.01571313e+02
5               	3.01901644e+02
6               	3.02222421e+02
7               	3.02535025e+02
8               	3.02840987e+02
9               	3.03143153e+02
10              	3.03444082e+02
11              	3.03738152e+02
12              	3.04025281e+02
13              	3.04305705e+02
14              	3.04578415e+02
15              	3.04844525e+02
16              	3.05107236e+02
17              	3.05357227e+02
18              	3.05604608e+02
19              	3.05845312e+02
20              	3.06088929e+02
21              	3.06328294e+02
22              	3.06564461e+02
23              	3.06796334e+02
24              	3.07022517e+02
25              	3.07242484e+02
26              	3.07455295e+02
27              	3.07658404e+02
28              	3.07853286e+02
29              	3.08042654e+02
30              	3.08228285e+02
31              	3.08413018e+02
32              	3.08587380e+02
33              	3.08718161e+02
34              	3.08815463e+02
35              	3.08912894e+02
36              	3.09015248e+02
37              	3.09128311e+02
38              	3.09238163e+02
39              	3.09341667e+02
40              	3.09438543e+02
41              	3.09539309e+02
42              	3.09640613e+02
43              	3.09746131e+02
44              	3.09863439e+02
45              	3.10004091e+02
46              	3.10112755e+02
47              	3.10185648e+02
48              	3.10247446e+02
49              	3.10316040e+02
50              	3.10385601e+02
51              	3.10451354e+02
52              	3.10514513e+02
53              	3.10574426e+02
54              	3.10631875e+02
55              	3.10684100e+02
56              	3.10731677e+02
57              	3.10780657e+02
58              	3.10831833e+02
59              	3.10888958e+02
60              	3.10953611e+02
61              	3.11024254e+02
62              	3.11093643e+02
63              	3.11159677e+02
64              	3.11218553e+02
65              	3.11266189e+02
66              	3.11305823e+02
67              	3.11339347e+02
68              	3.11368315e+02
69              	3.11393797e+02
70              	3.11417586e+02
71              	3.11440880e+02
72              	3.11467636e+02
73              	3.11498822e+02
74              	3.11534172e+02
75              	3.11571917e+02
76              	3.11608125e+02
77              	3.11644253e+02
78              	3.11677716e+02
79              	3.11704407e+02
80              	3.11728828e+02
81              	3.11748278e+02
82              	3.11761825e+02
83              	3.11770708e+02
84              	3.11776305e+02
85              	3.11779022e+02
86              	3.11780374e+02
87              	3.11782955e+02
88              	3.11786595e+02
89              	3.11791724e+02
90              	3.11798138e+02
91              	3.11805812e+02
92              	3.11812702e+02
93              	3.11819539e+02
94              	3.11825254e+02
95              	3.11830429e+02
96              	3.11834595e+02
97              	3.11837572e+02
98              	3.11839451e+02
99              	3.11839566e+02
100             	3.11838561e+02
101             	3.11836339e+02
102             	3.11833181e+02
103             	3.11829999e+02
104             	3.11827286e+02
105             	3.11825736e+02
106             	3.11825467e+02
107             	3.11826942e+02
108             	3.11828631e+02
109             	3.11831584e+02
110             	3.11835829e+02
111             	3.11841564e+02
112             	3.11847892e+02
113             	3.11854809e+02
114             	3.11861921e+02
115             	3.11869399e+02
116             	3.11876916e+02
117             	3.11884099e+02
118             	3.11890772e+02
119             	3.11897275e+02
120             	3.11903432e+02
121             	3.11909385e+02
122             	3.11914023e+02
123             	3.11918421e+02
124             	3.11922374e+02
125             	3.11925440e+02
126             	3.11927718e+02
127             	3.11929400e+02
128             	3.11930943e+02
129             	3.11932667e+02
130             	3.11935391e+02
131             	3.11939340e+02
132             	3.11943874e+02
133             	3.11949453e+02
134             	3.11956021e+02
135             	3.11962628e+02
136             	3.11969283e+02
137             	3.11975521e+02
138             	3.11981515e+02
139             	3.11987196e+02
140             	3.11992424e+02
141             	3.11995734e+02
142             	3.11998705e+02
143             	3.12001536e+02
144             	3.12003931e+02
145             	3.12005815e+02
146             	3.12006935e+02
147             	3.12007513e+02
148             	3.12007988e+02
149             	3.12009372e+02
150             	3.12010974e+02
151             	3.12013442e+02
152             	3.12017106e+02
153             	3.12021695e+02
154             	3.12026922e+02
155             	3.12031858e+02
156             	3.12036677e+02
157             	3.12040781e+02
158             	3.12044468e+02
159             	3.12047711e+02
160             	3.12050459e+02
161             	3.12052841e+02
162             	3.12054591e+02
163             	3.12056307e+02
164             	3.12057994e+02
165             	3.12059300e+02
166             	3.12060290e+02
167             	3.12061144e+02
168             	3.12062460e+02
169             	3.12064559e+02
170             	3.12067564e+02
171             	3.12071647e+02
172             	3.12076679e+02
173             	3.12081998e+02
174             	3.12086363e+02
175             	3.12090427e+02
176             	3.12093885e+02
177             	3.12096191e+02
178             	3.12096818e+02
179             	3.12096123e+02
180             	3.12095115e+02
181             	3.12094713e+02
182             	3.12094367e+02
183             	3.12094834e+02
184             	3.12096654e+02
185             	3.12099613e+02
186             	3.12103631e+02
187             	3.12106149e+02
188             	3.12109138e+02
189             	3.12111689e+02
190             	3.12113496e+02
191             	3.12114455e+02
192             	3.12114392e+02
193             	3.12113649e+02
194             	3.12112674e+02
195             	3.12111989e+02
196             	3.12111774e+02
197             	3.12112341e+02
198             	3.12113625e+02
199             	3.12116026e+02
200             	3.12119012e+02
201             	3.12122556e+02
202             	3.12126061e+02
203             	3.12128799e+02
204             	3.12130879e+02
205             	3.12132585e+02
206             	3.12133735e+02
207             	3.12134322e+02
208             	3.12134523e+02
209             	3.12134550e+02
210             	3.12134539e+02
211             	3.12134583e+02
212             	3.12134645e+02
213             	3.12134825e+02
214             	3.12135133e+02
215             	3.12136140e+02
216             	3.12137342e+02
217             	3.12138782e+02
218             	3.12140516e+02
219             	3.12142386e+02
220             	3.12144059e+02
221             	3.12145662e+02
222             	3.12146902e+02
223             	3.12147709e+02
224             	3.12148268e+02
225             	3.12148421e+02
226             	3.12148101e+02
227             	3.12147409e+02
228             	3.12146522e+02
229             	3.12145741e+02
230             	3.12145294e+02
231             	3.12145476e+02
232             	3.12145669e+02
233             	3.12146382e+02
234             	3.12147468e+02
235             	3.12148896e+02
236             	3.12150603e+02
237             	3.12151954e+02
238             	3.12153287e+02
239             	3.12154221e+02
240             	3.12154643e+02
241             	3.12154541e+02
242             	3.12153974e+02
243             	3.12153095e+02
244             	3.12152267e+02
245             	3.12151697e+02
246             	3.12151367e+02
247             	3.12151246e+02
248             	3.12151470e+02
249             	3.12152071e+02
250             	3.12152974e+02
251             	3.12153992e+02
252             	3.12154923e+02
253             	3.12155417e+02
254             	3.12155636e+02
255             	3.12155530e+02
256             	3.12155091e+02
257             	3.12154451e+02
258             	3.12153751e+02
259             	3.12153055e+02
260             	3.12152428e+02
261             	3.12152023e+02
262             	3.12151977e+02
263             	3.12152041e+02
264             	3.12152397e+02
265             	3.12152977e+02
266             	3.12153658e+02
267             	3.12154333e+02
268             	3.12154925e+02
269             	3.12155426e+02
270             	3.12155838e+02
271             	3.12156131e+02
272             	3.12156074e+02
273             	3.12155965e+02
274             	3.12155726e+02
275             	3.12155328e+02
276             	3.12154879e+02
277             	3.12154426e+02
278             	3.12154007e+02
279             	3.12153966e+02
280             	3.12154028e+02
281             	3.12154296e+02
282             	3.12154767e+02
283             	3.12155312e+02
284             	3.12155880e+02
285             	3.12156490e+02
286             	3.12157049e+02
287             	3.12157529e+02
288             	3.12157987e+02
289             	3.12158269e+02
290             	3.12158517e+02
291             	3.12158648e+02
292             	3.12158721e+02
293             	3.12158749e+02
294             	3.12158752e+02
295             	3.12158703e+02
296             	3.12158641e+02
297             	3.12158529e+02
298             	3.12158448e+02
299             	3.12158318e+02
300             	3.12158197e+02
301             	3.12158202e+02
302             	3.12158304e+02
303             	3.12158481e+02
304             	3.12158750e+02
305             	3.12159115e+02
306             	3.12159530e+02
307             	3.12159963e+02
308             	3.12160345e+02
309             	3.12160681e+02
310             	3.12160952e+02
311             	3.12161096e+02
312             	3.12161102e+02
313             	3.12161018e+02
314             	3.12160845e+02
315             	3.12160631e+02
316             	3.12160403e+02
317             	3.12160170e+02
318             	3.12159972e+02
319             	3.12159822e+02
320             	3.12159730e+02
321             	3.12159717e+02
322             	3.12159762e+02
323             	3.12159836e+02
324             	3.12159923e+02
325             	3.12159999e+02
326             	3.12160068e+02
327             	3.12160121e+02
328             	3.12160158e+02
329             	3.12160188e+02
330             	3.12160226e+02
331             	3.12160271e+02
332             	3.12160285e+02
333             	3.12160324e+02
334             	3.12160375e+02
335             	3.12160409e+02
336             	3.12160443e+02
337             	3.12160482e+02
338             	3.12160528e+02
339             	3.12160585e+02
340             	3.12160655e+02
341             	3.12160747e+02
342             	3.12160864e+02
343             	3.12161008e+02
344             	3.12161153e+02
345             	3.12161288e+02
346             	3.12161414e+02
347             	3.12161565e+02
348             	3.12161683e+02
349             	3.12161796e+02
350             	3.12161913e+02
351             	3.12162026e+02
352             	3.12162124e+02
353             	3.12162211e+02
354             	3.12162270e+02
355             	3.12162288e+02
356             	3.12162253e+02
357             	3.12162185e+02
358             	3.12162075e+02
359             	3.12161926e+02
360             	3.12161753e+02
361             	3.12161586e+02
362             	3.12161435e+02
363             	3.12161317e+02
364             	3.12161246e+02
365             	3.12161233e+02
366             	3.12161273e+02
367             	3.12161368e+02
368             	3.12161509e+02
369             	3.12161681e+02
370             	3.12161845e+02
371             	3.12161986e+02
372             	3.12162082e+02
373             	3.12162132e+02
374             	3.12162134e+02
375             	3.12162099e+02
376             	3.12162046e+02
377             	3.12162001e+02
378             	3.12161983e+02
379             	3.12161995e+02
380             	3.12162041e+02
381             	3.12162112e+02
382             	3.12162205e+02
383             	3.12162293e+02
384             	3.12162347e+02
385             	3.12162368e+02
386             	3.12162361e+02
387             	3.12162309e+02
388             	3.12162240e+02
389             	3.12162166e+02
390             	3.12162102e+02
391             	3.12162055e+02
392             	3.12162033e+02
393             	3.12162046e+02
394             	3.12162077e+02
395             	3.12162131e+02
396             	3.12162194e+02
397             	3.12162257e+02
398             	3.12162311e+02
399             	3.12162354e+02
400             	3.12162379e+02
401             	3.12162388e+02
402             	3.12162388e+02
403             	3.12162385e+02
404             	3.12162378e+02
405             	3.12162371e+02
406             	3.12162369e+02
407             	3.12162373e+02
408             	3.12162376e+02
409             	3.12162375e+02
410             	3.12162375e+02
411             	3.12162382e+02
412             	3.12162384e+02
413             	3.12162390e+02
414             	3.12162401e+02
415             	3.12162415e+02
416             	3.12162432e+02
417             	3.12162447e+02
418             	3.12162460e+02
419             	3.12162474e+02
420             	3.12162487e+02
421             	3.12162484e+02
422             	3.12162457e+02
423             	3.12162422e+02
424             	3.12162372e+02
425             	3.12162312e+02
426             	3.12162251e+02
427             	3.12162201e+02
428             	3.12162176e+02
429             	3.12162168e+02
430             	3.12162181e+02
431             	3.12162212e+02
432             	3.12162251e+02
433             	3.12162290e+02
434             	3.12162331e+02
435             	3.12162361e+02
436             	3.12162376e+02
437             	3.12162374e+02
438             	3.12162363e+02
439             	3.12162342e+02
440             	3.12162313e+02
441             	3.12162282e+02
442             	3.12162254e+02
443             	3.12162232e+02
444             	3.12162215e+02
445             	3.12162202e+02
446             	3.12162191e+02
447             	3.12162185e+02
448             	3.12162176e+02
449             	3.12162162e+02
450             	3.12162145e+02
451             	3.12162127e+02
452             	3.12162108e+02
453             	3.12162090e+02
454             	3.12162076e+02
455             	3.12162060e+02
456             	3.12162050e+02
457             	3.12162044e+02
458             	3.12162038e+02
459             	3.12162030e+02
460             	3.12162023e+02
461             	3.12162017e+02
462             	3.12162010e+02
463             	3.12162005e+02
464             	3.12162000e+02
465             	3.12161995e+02
466             	3.12161992e+02
467             	3.12161991e+02
468             	3.12161992e+02
469             	3.12161998e+02
470             	3.12162005e+02
471             	3.12162014e+02
472             	3.12162027e+02
473             	3.12162041e+02
474             	3.12162056e+02
475             	3.12162066e+02
476             	3.12162070e+02
477             	3.12162071e+02
478             	3.12162067e+02
479             	3.12162057e+02
480             	3.12162044e+02
481             	3.12162029e+02
482             	3.12162017e+02
483             	3.12162008e+02
484             	3.12162002e+02
485             	3.12162004e+02
486             	3.12162011e+02
487             	3.12162023e+02
488             	3.12162035e+02
489             	3.12162043e+02
490             	3.12162050e+02
491             	3.12162055e+02
492             	3.12162055e+02
493             	3.12162053e+02
494             	3.12162048e+02
495             	3.12162046e+02
496             	3.12162045e+02
497             	3.12162047e+02
498             	3.12162052e+02
499             	3.12162062e+02
500             	3.12162074e+02
501             	3.12162084e+02
502             	3.12162094e+02
503             	3.12162101e+02
504             	3.12162104e+02
505             	3.12162105e+02
506             	3.12162104e+02
507             	3.12162100e+02
508             	3.12162094e+02
509             	3.12162089e+02
510             	3.12162085e+02
511             	3.12162082e+02
512             	3.12162080e+02
513             	3.12162081e+02
514             	3.12162082e+02
515             	3.12162082e+02
516             	3.12162082e+02
517             	3.12162083e+02
518             	3.12162083e+02
519             	3.12162083e+02
520             	3.12162082e+02
521             	3.12162083e+02
522             	3.12162084e+02
523             	3.12162086e+02
524             	3.12162088e+02
525             	3.12162089e+02
526             	3.12162088e+02
527             	3.12162086e+02
528             	3.12162083e+02
529             	3.12162078e+02
530             	3.12162072e+02
531             	3.12162069e+02
532             	3.12162067e+02
533             	3.12162066e+02
534             	3.12162067e+02
535             	3.12162069e+02
536             	3.12162073e+02
537             	3.12162074e+02
538             	3.12162075e+02
539             	3.12162075e+02
540             	3.12162076e+02
541             	3.12162076e+02
542             	3.12162075e+02
543             	3.12162075e+02
544             	3.12162075e+02
545             	3.12162074e+02
546             	3.12162072e+02
547             	3.12162069e+02
548             	3.12162067e+02
549             	3.12162064e+02
550             	3.12162063e+02
551             	3.12162063e+02
552             	3.12162063e+02
553             	3.12162064e+02
554             	3.12162065e+02
555             	3.12162066e+02
556             	3.12162068e+02
557             	3.12162070e+02
558             	3.12162071e+02
559             	3.12162073e+02
560             	3.12162074e+02
561             	3.12162077e+02
562             	3.12162078e+02
563             	3.12162080e+02
564             	3.12162082e+02
565             	3.12162083e+02
566             	3.12162084e+02
567             	3.12162084e+02
568             	3.12162084e+02
569             	3.12162082e+02
570             	3.12162079e+02
571             	3.12162075e+02
572             	3.12162070e+02
573             	3.12162066e+02
574             	3.12162063e+02
575             	3.12162059e+02
576             	3.12162057e+02
577             	3.12162055e+02
578             	3.12162054e+02
579             	3.12162054e+02
580             	3.12162055e+02
581             	3.12162056e+02
582             	3.12162057e+02
583             	3.12162059e+02
584             	3.12162060e+02
585             	3.12162061e+02
586             	3.12162063e+02
587             	3.12162065e+02
588             	3.12162068e+02
589             	3.12162072e+02
590             	3.12162078e+02
591             	3.12162086e+02
592             	3.12162096e+02
593             	3.12162107e+02
594             	3.12162118e+02
595             	3.12162130e+02
596             	3.12162143e+02
597             	3.12162156e+02
598             	3.12162170e+02
599             	3.12162184e+02
600             	3.12162198e+02
601             	3.12162212e+02
602             	3.12162226e+02
603             	3.12162240e+02
604             	3.12162253e+02
605             	3.12162263e+02
606             	3.12162272e+02
607             	3.12162277e+02
608             	3.12162279e+02
609             	3.12162278e+02
610             	3.12162272e+02
611             	3.12162263e+02
612             	3.12162250e+02
613             	3.12162234e+02
614             	3.12162215e+02
615             	3.12162194e+02
616             	3.12162171e+02
617             	3.12162146e+02
618             	3.12162119e+02
619             	3.12162092e+02
620             	3.12162064e+02
621             	3.12162036e+02
