# Region        : cellZone pcb
# Cells         : 422
# Volume        : 8.48045861e-01
# Time          	volAverage(T)
1               	3.00041366e+02
2               	3.00120332e+02
3               	3.00229543e+02
4               	3.00362269e+02
5               	3.00494105e+02
6               	3.00630882e+02
7               	3.00788955e+02
8               	3.00963967e+02
9               	3.01148691e+02
10              	3.01351864e+02
11              	3.01563074e+02
12              	3.01777748e+02
13              	3.01999396e+02
14              	3.02249927e+02
15              	3.02529086e+02
16              	3.02783257e+02
17              	3.03024739e+02
18              	3.03266463e+02
19              	3.03505841e+02
20              	3.03736566e+02
21              	3.03951534e+02
22              	3.04164424e+02
23              	3.04388756e+02
24              	3.04612035e+02
25              	3.04819403e+02
26              	3.05024213e+02
27              	3.05251896e+02
28              	3.05492225e+02
29              	3.05731809e+02
30              	3.05971941e+02
31              	3.06197764e+02
32              	3.06424986e+02
33              	3.06651384e+02
34              	3.06880715e+02
35              	3.07118119e+02
36              	3.07355488e+02
37              	3.07583000e+02
38              	3.07789870e+02
39              	3.07970193e+02
40              	3.08152866e+02
41              	3.08345835e+02
42              	3.08531985e+02
43              	3.08714427e+02
44              	3.08909169e+02
45              	3.09101959e+02
46              	3.09301731e+02
47              	3.09495948e+02
48              	3.09675679e+02
49              	3.09849674e+02
50              	3.10030647e+02
51              	3.10215276e+02
52              	3.10391627e+02
53              	3.10537857e+02
54              	3.10692459e+02
55              	3.10853674e+02
56              	3.11013288e+02
57              	3.11168279e+02
58              	3.11329591e+02
59              	3.11480808e+02
60              	3.11612290e+02
61              	3.11746477e+02
62              	3.11884912e+02
63              	3.12011985e+02
64              	3.12128970e+02
65              	3.12250056e+02
66              	3.12374602e+02
67              	3.12497984e+02
68              	3.12612537e+02
69              	3.12728081e+02
70              	3.12844726e+02
71              	3.12964210e+02
72              	3.13086665e+02
73              	3.13210108e+02
74              	3.13334143e+02
75              	3.13467668e+02
76              	3.13591558e+02
77              	3.13702919e+02
78              	3.13829528e+02
79              	3.13957157e+02
80              	3.14082238e+02
81              	3.14206993e+02
82              	3.14319035e+02
83              	3.14419065e+02
84              	3.14508012e+02
85              	3.14585624e+02
86              	3.14668703e+02
87              	3.14763319e+02
88              	3.14845376e+02
89              	3.14946543e+02
90              	3.15037265e+02
91              	3.15128827e+02
92              	3.15209697e+02
93              	3.15285027e+02
94              	3.15369367e+02
95              	3.15458891e+02
96              	3.15552794e+02
97              	3.15643012e+02
98              	3.15734397e+02
99              	3.15816674e+02
100             	3.15887696e+02
101             	3.15956985e+02
102             	3.16025954e+02
103             	3.16095865e+02
104             	3.16152276e+02
105             	3.16203393e+02
106             	3.16258836e+02
107             	3.16324748e+02
108             	3.16392437e+02
109             	3.16459356e+02
110             	3.16525193e+02
111             	3.16590163e+02
112             	3.16658827e+02
113             	3.16722721e+02
114             	3.16789688e+02
115             	3.16853458e+02
116             	3.16907684e+02
117             	3.16963260e+02
118             	3.17023683e+02
119             	3.17086122e+02
120             	3.17150179e+02
121             	3.17212128e+02
122             	3.17273506e+02
123             	3.17326093e+02
124             	3.17377853e+02
125             	3.17414952e+02
126             	3.17453133e+02
127             	3.17497999e+02
128             	3.17545063e+02
129             	3.17592855e+02
130             	3.17639631e+02
131             	3.17693244e+02
132             	3.17749046e+02
133             	3.17799824e+02
134             	3.17850120e+02
135             	3.17899343e+02
136             	3.17947201e+02
137             	3.17993408e+02
138             	3.18035717e+02
139             	3.18084967e+02
140             	3.18120640e+02
141             	3.18146823e+02
142             	3.18178087e+02
143             	3.18213515e+02
144             	3.18251073e+02
145             	3.18289962e+02
146             	3.18331618e+02
147             	3.18376447e+02
148             	3.18418713e+02
149             	3.18456974e+02
150             	3.18493903e+02
151             	3.18526868e+02
152             	3.18556945e+02
153             	3.18586819e+02
154             	3.18617577e+02
155             	3.18651726e+02
156             	3.18689538e+02
157             	3.18737836e+02
158             	3.18778895e+02
159             	3.18812176e+02
160             	3.18840517e+02
161             	3.18864512e+02
162             	3.18887279e+02
163             	3.18912415e+02
164             	3.18938339e+02
165             	3.18963651e+02
166             	3.18988014e+02
167             	3.19013111e+02
168             	3.19039271e+02
169             	3.19069766e+02
170             	3.19108813e+02
171             	3.19143659e+02
172             	3.19179545e+02
173             	3.19216746e+02
174             	3.19245736e+02
175             	3.19271372e+02
176             	3.19293576e+02
177             	3.19312199e+02
178             	3.19331384e+02
179             	3.19354924e+02
180             	3.19383616e+02
181             	3.19410018e+02
182             	3.19435173e+02
183             	3.19464123e+02
184             	3.19493718e+02
185             	3.19522962e+02
186             	3.19548029e+02
187             	3.19565196e+02
188             	3.19583363e+02
189             	3.19607466e+02
190             	3.19634378e+02
191             	3.19659028e+02
192             	3.19683717e+02
193             	3.19713077e+02
194             	3.19741438e+02
195             	3.19771388e+02
196             	3.19798534e+02
197             	3.19819452e+02
198             	3.19836329e+02
199             	3.19849543e+02
200             	3.19861320e+02
201             	3.19875912e+02
202             	3.19892372e+02
203             	3.19908346e+02
204             	3.19924728e+02
205             	3.19942324e+02
206             	3.19961144e+02
207             	3.19982582e+02
208             	3.20005431e+02
209             	3.20026447e+02
210             	3.20045680e+02
211             	3.20065095e+02
212             	3.20086002e+02
213             	3.20107422e+02
214             	3.20121631e+02
215             	3.20129661e+02
216             	3.20137882e+02
217             	3.20149443e+02
218             	3.20163545e+02
219             	3.20179150e+02
220             	3.20195578e+02
221             	3.20212779e+02
222             	3.20232101e+02
223             	3.20252084e+02
224             	3.20277027e+02
225             	3.20299073e+02
226             	3.20316291e+02
227             	3.20328994e+02
228             	3.20336408e+02
229             	3.20343266e+02
230             	3.20351995e+02
231             	3.20361744e+02
232             	3.20373705e+02
233             	3.20387866e+02
234             	3.20403213e+02
235             	3.20419725e+02
236             	3.20436129e+02
237             	3.20451294e+02
238             	3.20465376e+02
239             	3.20479564e+02
240             	3.20492850e+02
241             	3.20503667e+02
242             	3.20512471e+02
243             	3.20521294e+02
244             	3.20532154e+02
245             	3.20543205e+02
246             	3.20555690e+02
247             	3.20570208e+02
248             	3.20584677e+02
249             	3.20597963e+02
250             	3.20613215e+02
251             	3.20624639e+02
252             	3.20631059e+02
253             	3.20635844e+02
254             	3.20643693e+02
255             	3.20653817e+02
256             	3.20664319e+02
257             	3.20674733e+02
258             	3.20685219e+02
259             	3.20696138e+02
260             	3.20707266e+02
261             	3.20718066e+02
262             	3.20729547e+02
263             	3.20741244e+02
264             	3.20752697e+02
265             	3.20762247e+02
266             	3.20769716e+02
267             	3.20776787e+02
268             	3.20783971e+02
269             	3.20792354e+02
270             	3.20801206e+02
271             	3.20810814e+02
272             	3.20820401e+02
273             	3.20829345e+02
274             	3.20838323e+02
275             	3.20847110e+02
276             	3.20854518e+02
277             	3.20861146e+02
278             	3.20870004e+02
279             	3.20880389e+02
280             	3.20890080e+02
281             	3.20900097e+02
282             	3.20911348e+02
283             	3.20921513e+02
284             	3.20931295e+02
285             	3.20940200e+02
286             	3.20948378e+02
287             	3.20952217e+02
288             	3.20956760e+02
289             	3.20963178e+02
290             	3.20970442e+02
291             	3.20977457e+02
292             	3.20984885e+02
293             	3.20992746e+02
294             	3.21000830e+02
295             	3.21009536e+02
296             	3.21018025e+02
297             	3.21026212e+02
298             	3.21033699e+02
299             	3.21039842e+02
300             	3.21045278e+02
301             	3.21051341e+02
302             	3.21056562e+02
303             	3.21061711e+02
304             	3.21068317e+02
305             	3.21075399e+02
306             	3.21082295e+02
307             	3.21087849e+02
308             	3.21093911e+02
309             	3.21100745e+02
310             	3.21107019e+02
311             	3.21113371e+02
312             	3.21120787e+02
313             	3.21129235e+02
314             	3.21137194e+02
315             	3.21142832e+02
316             	3.21146677e+02
317             	3.21151053e+02
318             	3.21155078e+02
319             	3.21158615e+02
320             	3.21161168e+02
321             	3.21165222e+02
322             	3.21172332e+02
323             	3.21179862e+02
324             	3.21185764e+02
325             	3.21192972e+02
326             	3.21201493e+02
327             	3.21209939e+02
328             	3.21218530e+02
329             	3.21226456e+02
330             	3.21231838e+02
331             	3.21232551e+02
332             	3.21232197e+02
333             	3.21234097e+02
334             	3.21237606e+02
335             	3.21242274e+02
336             	3.21247097e+02
337             	3.21252393e+02
338             	3.21257816e+02
339             	3.21262773e+02
340             	3.21266771e+02
341             	3.21270794e+02
342             	3.21276160e+02
343             	3.21281348e+02
344             	3.21285178e+02
345             	3.21288474e+02
346             	3.21291806e+02
347             	3.21295084e+02
348             	3.21298393e+02
349             	3.21302042e+02
350             	3.21306756e+02
351             	3.21311482e+02
352             	3.21314545e+02
353             	3.21317455e+02
354             	3.21321348e+02
355             	3.21324346e+02
356             	3.21327569e+02
357             	3.21330550e+02
358             	3.21333089e+02
359             	3.21336150e+02
360             	3.21339618e+02
361             	3.21343634e+02
362             	3.21347239e+02
363             	3.21350489e+02
364             	3.21353864e+02
365             	3.21356964e+02
366             	3.21360246e+02
367             	3.21363954e+02
368             	3.21367185e+02
369             	3.21370672e+02
370             	3.21374961e+02
371             	3.21378987e+02
372             	3.21381864e+02
373             	3.21383567e+02
374             	3.21386314e+02
375             	3.21389982e+02
376             	3.21393719e+02
377             	3.21398951e+02
378             	3.21403810e+02
379             	3.21407878e+02
380             	3.21410869e+02
381             	3.21412920e+02
382             	3.21416359e+02
383             	3.21420414e+02
384             	3.21423970e+02
385             	3.21427275e+02
386             	3.21430058e+02
387             	3.21432084e+02
388             	3.21433999e+02
389             	3.21435342e+02
390             	3.21436407e+02
391             	3.21437724e+02
392             	3.21440578e+02
393             	3.21444186e+02
394             	3.21446704e+02
395             	3.21448744e+02
396             	3.21450868e+02
397             	3.21452589e+02
398             	3.21453997e+02
399             	3.21455714e+02
400             	3.21457581e+02
401             	3.21459440e+02
402             	3.21461412e+02
403             	3.21463804e+02
404             	3.21466332e+02
405             	3.21469354e+02
406             	3.21471844e+02
407             	3.21473562e+02
408             	3.21475411e+02
409             	3.21477685e+02
410             	3.21480435e+02
411             	3.21482881e+02
412             	3.21485200e+02
413             	3.21487477e+02
414             	3.21489928e+02
415             	3.21491914e+02
416             	3.21493271e+02
417             	3.21494867e+02
418             	3.21497163e+02
419             	3.21499531e+02
420             	3.21501635e+02
421             	3.21503873e+02
422             	3.21505576e+02
423             	3.21507348e+02
424             	3.21509355e+02
425             	3.21511628e+02
426             	3.21513699e+02
427             	3.21515925e+02
428             	3.21518162e+02
429             	3.21519925e+02
430             	3.21521738e+02
431             	3.21523585e+02
432             	3.21525195e+02
433             	3.21526964e+02
434             	3.21529026e+02
435             	3.21531087e+02
436             	3.21532556e+02
437             	3.21533828e+02
438             	3.21534853e+02
439             	3.21535565e+02
440             	3.21536485e+02
441             	3.21537588e+02
442             	3.21538843e+02
443             	3.21541320e+02
444             	3.21544272e+02
445             	3.21546666e+02
446             	3.21548213e+02
447             	3.21549840e+02
448             	3.21550543e+02
449             	3.21551081e+02
450             	3.21552653e+02
451             	3.21554438e+02
452             	3.21556190e+02
453             	3.21557687e+02
454             	3.21559291e+02
455             	3.21560749e+02
456             	3.21562051e+02
457             	3.21563833e+02
458             	3.21565910e+02
459             	3.21567595e+02
460             	3.21569085e+02
461             	3.21570498e+02
462             	3.21571677e+02
463             	3.21573044e+02
464             	3.21574237e+02
465             	3.21575604e+02
466             	3.21576672e+02
467             	3.21577980e+02
468             	3.21579361e+02
469             	3.21580594e+02
470             	3.21582077e+02
471             	3.21583603e+02
472             	3.21584633e+02
473             	3.21585039e+02
474             	3.21585673e+02
475             	3.21586255e+02
476             	3.21586942e+02
477             	3.21588048e+02
478             	3.21589013e+02
479             	3.21589355e+02
480             	3.21590722e+02
481             	3.21592451e+02
482             	3.21593385e+02
483             	3.21594411e+02
484             	3.21595388e+02
485             	3.21596584e+02
486             	3.21598931e+02
487             	3.21601029e+02
488             	3.21601902e+02
489             	3.21602441e+02
490             	3.21603344e+02
491             	3.21604528e+02
492             	3.21605290e+02
493             	3.21606145e+02
494             	3.21606757e+02
495             	3.21607207e+02
496             	3.21608341e+02
497             	3.21609836e+02
498             	3.21611129e+02
499             	3.21612789e+02
500             	3.21614694e+02
501             	3.21616109e+02
502             	3.21616604e+02
503             	3.21616552e+02
504             	3.21616704e+02
505             	3.21617063e+02
506             	3.21617393e+02
507             	3.21617578e+02
508             	3.21618706e+02
509             	3.21620208e+02
510             	3.21620433e+02
511             	3.21620392e+02
512             	3.21620845e+02
513             	3.21620848e+02
514             	3.21620669e+02
515             	3.21621328e+02
516             	3.21623022e+02
517             	3.21624092e+02
518             	3.21624953e+02
519             	3.21626596e+02
520             	3.21628490e+02
521             	3.21629844e+02
522             	3.21630323e+02
523             	3.21629832e+02
524             	3.21629815e+02
525             	3.21630361e+02
526             	3.21630734e+02
527             	3.21631019e+02
528             	3.21631935e+02
529             	3.21633512e+02
530             	3.21634511e+02
531             	3.21635812e+02
532             	3.21637228e+02
533             	3.21638343e+02
534             	3.21639425e+02
535             	3.21640235e+02
536             	3.21640513e+02
537             	3.21640867e+02
538             	3.21641235e+02
539             	3.21641828e+02
540             	3.21642664e+02
541             	3.21643377e+02
542             	3.21643795e+02
543             	3.21644586e+02
544             	3.21645256e+02
545             	3.21645400e+02
546             	3.21645691e+02
547             	3.21646120e+02
548             	3.21646254e+02
549             	3.21646324e+02
550             	3.21646413e+02
551             	3.21646353e+02
552             	3.21646829e+02
553             	3.21647597e+02
554             	3.21648302e+02
555             	3.21649474e+02
556             	3.21650274e+02
557             	3.21650431e+02
558             	3.21650727e+02
559             	3.21651192e+02
560             	3.21651715e+02
561             	3.21652577e+02
562             	3.21653478e+02
563             	3.21654123e+02
564             	3.21654803e+02
565             	3.21655434e+02
566             	3.21656025e+02
567             	3.21656152e+02
568             	3.21656587e+02
569             	3.21657304e+02
570             	3.21657699e+02
571             	3.21658325e+02
572             	3.21658977e+02
573             	3.21659679e+02
574             	3.21660015e+02
575             	3.21660564e+02
576             	3.21661177e+02
577             	3.21661626e+02
578             	3.21662247e+02
579             	3.21662913e+02
580             	3.21663326e+02
581             	3.21663910e+02
582             	3.21664450e+02
583             	3.21664678e+02
584             	3.21664921e+02
585             	3.21665346e+02
586             	3.21665567e+02
587             	3.21665879e+02
588             	3.21666161e+02
589             	3.21666159e+02
590             	3.21666238e+02
591             	3.21666462e+02
592             	3.21666415e+02
593             	3.21666530e+02
594             	3.21666737e+02
595             	3.21666537e+02
596             	3.21666752e+02
597             	3.21667160e+02
598             	3.21667464e+02
599             	3.21668016e+02
600             	3.21668561e+02
601             	3.21668626e+02
602             	3.21668613e+02
603             	3.21668879e+02
604             	3.21668977e+02
605             	3.21669504e+02
606             	3.21670458e+02
607             	3.21671100e+02
608             	3.21671851e+02
609             	3.21672873e+02
610             	3.21673802e+02
611             	3.21674714e+02
612             	3.21675119e+02
613             	3.21674993e+02
614             	3.21674747e+02
615             	3.21674198e+02
616             	3.21673652e+02
617             	3.21673908e+02
618             	3.21674583e+02
619             	3.21675743e+02
620             	3.21676646e+02
621             	3.21676909e+02
