# Region        : cellZone component_0
# Cells         : 60
# Volume        : 8.52261139e-02
# Time          	volAverage(T)
1               	3.01419675e+02
2               	3.02824958e+02
3               	3.04115880e+02
4               	3.05343115e+02
5               	3.06543271e+02
6               	3.07727582e+02
7               	3.08907561e+02
8               	3.10091206e+02
9               	3.11268297e+02
10              	3.12428307e+02
11              	3.13560649e+02
12              	3.14659203e+02
13              	3.15730507e+02
14              	3.16789010e+02
15              	3.17850822e+02
16              	3.18918121e+02
17              	3.19984391e+02
18              	3.21039131e+02
19              	3.22063738e+02
20              	3.23108138e+02
21              	3.24124823e+02
22              	3.25127192e+02
23              	3.26086862e+02
24              	3.27029400e+02
25              	3.27976546e+02
26              	3.28913822e+02
27              	3.29826406e+02
28              	3.30724936e+02
29              	3.31601257e+02
30              	3.32457123e+02
31              	3.33289715e+02
32              	3.34108014e+02
33              	3.34906261e+02
34              	3.35688382e+02
35              	3.36403483e+02
36              	3.37071242e+02
37              	3.37715621e+02
38              	3.38291121e+02
39              	3.38861263e+02
40              	3.39393057e+02
41              	3.39890362e+02
42              	3.40379420e+02
43              	3.40912182e+02
44              	3.41446157e+02
45              	3.41971995e+02
46              	3.42467782e+02
47              	3.42895514e+02
48              	3.43303438e+02
49              	3.43651146e+02
50              	3.44017462e+02
51              	3.44381377e+02
52              	3.44706345e+02
53              	3.45000870e+02
54              	3.45308429e+02
55              	3.45649412e+02
56              	3.46012341e+02
57              	3.46369528e+02
58              	3.46725858e+02
59              	3.47045139e+02
60              	3.47359657e+02
61              	3.47661939e+02
62              	3.47948116e+02
63              	3.48239382e+02
64              	3.48490110e+02
65              	3.48721092e+02
66              	3.48919186e+02
67              	3.49104642e+02
68              	3.49280986e+02
69              	3.49463770e+02
70              	3.49655994e+02
71              	3.49868991e+02
72              	3.50091652e+02
73              	3.50319318e+02
74              	3.50554638e+02
75              	3.50787842e+02
76              	3.51038819e+02
77              	3.51282282e+02
78              	3.51504374e+02
79              	3.51701057e+02
80              	3.51892010e+02
81              	3.52070336e+02
82              	3.52248477e+02
83              	3.52407877e+02
84              	3.52587632e+02
85              	3.52770221e+02
86              	3.52946688e+02
87              	3.53138028e+02
88              	3.53333933e+02
89              	3.53531290e+02
90              	3.53719416e+02
91              	3.53899204e+02
92              	3.54068838e+02
93              	3.54226536e+02
94              	3.54381293e+02
95              	3.54534749e+02
96              	3.54684490e+02
97              	3.54829019e+02
98              	3.54969671e+02
99              	3.55114435e+02
100             	3.55252599e+02
101             	3.55373068e+02
102             	3.55505762e+02
103             	3.55640825e+02
104             	3.55780044e+02
105             	3.55915690e+02
106             	3.56044038e+02
107             	3.56152564e+02
108             	3.56256310e+02
109             	3.56360111e+02
110             	3.56460914e+02
111             	3.56557456e+02
112             	3.56656667e+02
113             	3.56750405e+02
114             	3.56841854e+02
115             	3.56935346e+02
116             	3.57033979e+02
117             	3.57124742e+02
118             	3.57219941e+02
119             	3.57314161e+02
120             	3.57406498e+02
121             	3.57497022e+02
122             	3.57587429e+02
123             	3.57675029e+02
124             	3.57757931e+02
125             	3.57825942e+02
126             	3.57897931e+02
127             	3.57968936e+02
128             	3.58033385e+02
129             	3.58095184e+02
130             	3.58161674e+02
131             	3.58219930e+02
132             	3.58283516e+02
133             	3.58350449e+02
134             	3.58414329e+02
135             	3.58478438e+02
136             	3.58532215e+02
137             	3.58587642e+02
138             	3.58643131e+02
139             	3.58693376e+02
140             	3.58735190e+02
141             	3.58775702e+02
142             	3.58815144e+02
143             	3.58859025e+02
144             	3.58900913e+02
145             	3.58941998e+02
146             	3.58986287e+02
147             	3.59034197e+02
148             	3.59083421e+02
149             	3.59130917e+02
150             	3.59176087e+02
151             	3.59220801e+02
152             	3.59263888e+02
153             	3.59304915e+02
154             	3.59341919e+02
155             	3.59376299e+02
156             	3.59414226e+02
157             	3.59451439e+02
158             	3.59486041e+02
159             	3.59521520e+02
160             	3.59558317e+02
161             	3.59594734e+02
162             	3.59631529e+02
163             	3.59668729e+02
164             	3.59704111e+02
165             	3.59734169e+02
166             	3.59763742e+02
167             	3.59789211e+02
168             	3.59813680e+02
169             	3.59836817e+02
170             	3.59859527e+02
171             	3.59886221e+02
172             	3.59915499e+02
173             	3.59942084e+02
174             	3.59969691e+02
175             	3.59997781e+02
176             	3.60024426e+02
177             	3.60050595e+02
178             	3.60076234e+02
179             	3.60100555e+02
180             	3.60122410e+02
181             	3.60142018e+02
182             	3.60160749e+02
183             	3.60179061e+02
184             	3.60197793e+02
185             	3.60217781e+02
186             	3.60237160e+02
187             	3.60257381e+02
188             	3.60278686e+02
189             	3.60297114e+02
190             	3.60315961e+02
191             	3.60335887e+02
192             	3.60354342e+02
193             	3.60370706e+02
194             	3.60385369e+02
195             	3.60399945e+02
196             	3.60414549e+02
197             	3.60428748e+02
198             	3.60443742e+02
199             	3.60459320e+02
200             	3.60475349e+02
201             	3.60492360e+02
202             	3.60510361e+02
203             	3.60528172e+02
204             	3.60543894e+02
205             	3.60560547e+02
206             	3.60576168e+02
207             	3.60590161e+02
208             	3.60603665e+02
209             	3.60616108e+02
210             	3.60627607e+02
211             	3.60640075e+02
212             	3.60652999e+02
213             	3.60665669e+02
214             	3.60677086e+02
215             	3.60688513e+02
216             	3.60699192e+02
217             	3.60710928e+02
218             	3.60722277e+02
219             	3.60734204e+02
220             	3.60746182e+02
221             	3.60756969e+02
222             	3.60767165e+02
223             	3.60776237e+02
224             	3.60784922e+02
225             	3.60793374e+02
226             	3.60801477e+02
227             	3.60809494e+02
228             	3.60817832e+02
229             	3.60827519e+02
230             	3.60837833e+02
231             	3.60847627e+02
232             	3.60857482e+02
233             	3.60867372e+02
234             	3.60876761e+02
235             	3.60885153e+02
236             	3.60893382e+02
237             	3.60901504e+02
238             	3.60908842e+02
239             	3.60915268e+02
240             	3.60921328e+02
241             	3.60927498e+02
242             	3.60933632e+02
243             	3.60940024e+02
244             	3.60946278e+02
245             	3.60952649e+02
246             	3.60959222e+02
247             	3.60966001e+02
248             	3.60972085e+02
249             	3.60977977e+02
250             	3.60984099e+02
251             	3.60989775e+02
252             	3.60995175e+02
253             	3.61000123e+02
254             	3.61004947e+02
255             	3.61010019e+02
256             	3.61014743e+02
257             	3.61019704e+02
258             	3.61025072e+02
259             	3.61030889e+02
260             	3.61036746e+02
261             	3.61041842e+02
262             	3.61046712e+02
263             	3.61051663e+02
264             	3.61056154e+02
265             	3.61059950e+02
266             	3.61063573e+02
267             	3.61067532e+02
268             	3.61071633e+02
269             	3.61075255e+02
270             	3.61079103e+02
271             	3.61083299e+02
272             	3.61087468e+02
273             	3.61091440e+02
274             	3.61094724e+02
275             	3.61098255e+02
276             	3.61101536e+02
277             	3.61104184e+02
278             	3.61106411e+02
279             	3.61108442e+02
280             	3.61110685e+02
281             	3.61113481e+02
282             	3.61116565e+02
283             	3.61119689e+02
284             	3.61123242e+02
285             	3.61126934e+02
286             	3.61130582e+02
287             	3.61133564e+02
288             	3.61136500e+02
289             	3.61139342e+02
290             	3.61141655e+02
291             	3.61143402e+02
292             	3.61145254e+02
293             	3.61147307e+02
294             	3.61149704e+02
295             	3.61152292e+02
296             	3.61154891e+02
297             	3.61157867e+02
298             	3.61161014e+02
299             	3.61163888e+02
300             	3.61166548e+02
301             	3.61168651e+02
302             	3.61170700e+02
303             	3.61172312e+02
304             	3.61173374e+02
305             	3.61174153e+02
306             	3.61174967e+02
307             	3.61176117e+02
308             	3.61177966e+02
309             	3.61179724e+02
310             	3.61181811e+02
311             	3.61184266e+02
312             	3.61186890e+02
313             	3.61189155e+02
314             	3.61191299e+02
315             	3.61193091e+02
316             	3.61194479e+02
317             	3.61195708e+02
318             	3.61196643e+02
319             	3.61197347e+02
320             	3.61198101e+02
321             	3.61199240e+02
322             	3.61200580e+02
323             	3.61201906e+02
324             	3.61203538e+02
325             	3.61205434e+02
326             	3.61207484e+02
327             	3.61209482e+02
328             	3.61211187e+02
329             	3.61212414e+02
330             	3.61213355e+02
331             	3.61214338e+02
332             	3.61215108e+02
333             	3.61215610e+02
334             	3.61216123e+02
335             	3.61216673e+02
336             	3.61217562e+02
337             	3.61218650e+02
338             	3.61219720e+02
339             	3.61220977e+02
340             	3.61222415e+02
341             	3.61223848e+02
342             	3.61225120e+02
343             	3.61226094e+02
344             	3.61227076e+02
345             	3.61227760e+02
346             	3.61228325e+02
347             	3.61228785e+02
348             	3.61229386e+02
349             	3.61229895e+02
350             	3.61230516e+02
351             	3.61231442e+02
352             	3.61232318e+02
353             	3.61233267e+02
354             	3.61234370e+02
355             	3.61235529e+02
356             	3.61236602e+02
357             	3.61237381e+02
358             	3.61237990e+02
359             	3.61238651e+02
360             	3.61239198e+02
361             	3.61239534e+02
362             	3.61239750e+02
363             	3.61239943e+02
364             	3.61240366e+02
365             	3.61240887e+02
366             	3.61241367e+02
367             	3.61241907e+02
368             	3.61242547e+02
369             	3.61243246e+02
370             	3.61243943e+02
371             	3.61244401e+02
372             	3.61244858e+02
373             	3.61245361e+02
374             	3.61245742e+02
375             	3.61245985e+02
376             	3.61246238e+02
377             	3.61246489e+02
378             	3.61246783e+02
379             	3.61247215e+02
380             	3.61247691e+02
381             	3.61248226e+02
382             	3.61248869e+02
383             	3.61249550e+02
384             	3.61250019e+02
385             	3.61250515e+02
386             	3.61251032e+02
387             	3.61251392e+02
388             	3.61251585e+02
389             	3.61251688e+02
390             	3.61251763e+02
391             	3.61251884e+02
392             	3.61252172e+02
393             	3.61252416e+02
394             	3.61252697e+02
395             	3.61253067e+02
396             	3.61253502e+02
397             	3.61253972e+02
398             	3.61254420e+02
399             	3.61254751e+02
400             	3.61255028e+02
401             	3.61255235e+02
402             	3.61255431e+02
403             	3.61255577e+02
404             	3.61255664e+02
405             	3.61255743e+02
406             	3.61255806e+02
407             	3.61255962e+02
408             	3.61256216e+02
409             	3.61256450e+02
410             	3.61256699e+02
411             	3.61257085e+02
412             	3.61257459e+02
413             	3.61257813e+02
414             	3.61258039e+02
415             	3.61258344e+02
416             	3.61258617e+02
417             	3.61258773e+02
418             	3.61258835e+02
419             	3.61258833e+02
420             	3.61258802e+02
421             	3.61258777e+02
422             	3.61258935e+02
423             	3.61259055e+02
424             	3.61259190e+02
425             	3.61259344e+02
426             	3.61259540e+02
427             	3.61259749e+02
428             	3.61259888e+02
429             	3.61259980e+02
430             	3.61260114e+02
431             	3.61260233e+02
432             	3.61260323e+02
433             	3.61260296e+02
434             	3.61260240e+02
435             	3.61260222e+02
436             	3.61260279e+02
437             	3.61260400e+02
438             	3.61260578e+02
439             	3.61260756e+02
440             	3.61260953e+02
441             	3.61261163e+02
442             	3.61261376e+02
443             	3.61261568e+02
444             	3.61261724e+02
445             	3.61261899e+02
446             	3.61262050e+02
447             	3.61262166e+02
448             	3.61262218e+02
449             	3.61262287e+02
450             	3.61262336e+02
451             	3.61262398e+02
452             	3.61262454e+02
453             	3.61262494e+02
454             	3.61262559e+02
455             	3.61262599e+02
456             	3.61262633e+02
457             	3.61262681e+02
458             	3.61262740e+02
459             	3.61262832e+02
460             	3.61262915e+02
461             	3.61262988e+02
462             	3.61263044e+02
463             	3.61263127e+02
464             	3.61263208e+02
465             	3.61263279e+02
466             	3.61263328e+02
467             	3.61263358e+02
468             	3.61263383e+02
469             	3.61263399e+02
470             	3.61263426e+02
471             	3.61263449e+02
472             	3.61263449e+02
473             	3.61263445e+02
474             	3.61263455e+02
475             	3.61263469e+02
476             	3.61263477e+02
477             	3.61263473e+02
478             	3.61263458e+02
479             	3.61263428e+02
480             	3.61263400e+02
481             	3.61263372e+02
482             	3.61263344e+02
483             	3.61263320e+02
484             	3.61263305e+02
485             	3.61263281e+02
486             	3.61263279e+02
487             	3.61263296e+02
488             	3.61263305e+02
489             	3.61263324e+02
490             	3.61263354e+02
491             	3.61263414e+02
492             	3.61263461e+02
493             	3.61263504e+02
494             	3.61263556e+02
495             	3.61263613e+02
496             	3.61263670e+02
497             	3.61263720e+02
498             	3.61263757e+02
499             	3.61263781e+02
500             	3.61263789e+02
501             	3.61263785e+02
502             	3.61263746e+02
503             	3.61263721e+02
504             	3.61263695e+02
505             	3.61263656e+02
506             	3.61263610e+02
507             	3.61263565e+02
508             	3.61263554e+02
509             	3.61263533e+02
510             	3.61263531e+02
511             	3.61263534e+02
512             	3.61263544e+02
513             	3.61263566e+02
514             	3.61263600e+02
515             	3.61263636e+02
516             	3.61263665e+02
517             	3.61263655e+02
518             	3.61263655e+02
519             	3.61263658e+02
520             	3.61263648e+02
521             	3.61263626e+02
522             	3.61263602e+02
523             	3.61263574e+02
524             	3.61263537e+02
525             	3.61263502e+02
526             	3.61263473e+02
527             	3.61263454e+02
528             	3.61263445e+02
529             	3.61263458e+02
530             	3.61263470e+02
531             	3.61263504e+02
532             	3.61263532e+02
533             	3.61263555e+02
534             	3.61263580e+02
535             	3.61263597e+02
536             	3.61263569e+02
537             	3.61263548e+02
538             	3.61263535e+02
539             	3.61263498e+02
540             	3.61263440e+02
541             	3.61263366e+02
542             	3.61263253e+02
543             	3.61263178e+02
544             	3.61263141e+02
545             	3.61263110e+02
546             	3.61263128e+02
547             	3.61263179e+02
548             	3.61263179e+02
549             	3.61263170e+02
550             	3.61263113e+02
551             	3.61263135e+02
552             	3.61263187e+02
553             	3.61263213e+02
554             	3.61263204e+02
555             	3.61263166e+02
556             	3.61263055e+02
557             	3.61262949e+02
558             	3.61262913e+02
559             	3.61262835e+02
560             	3.61262806e+02
561             	3.61262749e+02
562             	3.61262714e+02
563             	3.61262681e+02
564             	3.61262676e+02
565             	3.61262708e+02
566             	3.61262749e+02
567             	3.61262749e+02
568             	3.61262754e+02
569             	3.61262750e+02
570             	3.61262746e+02
571             	3.61262704e+02
572             	3.61262668e+02
573             	3.61262616e+02
574             	3.61262537e+02
575             	3.61262484e+02
576             	3.61262447e+02
577             	3.61262411e+02
578             	3.61262371e+02
579             	3.61262343e+02
580             	3.61262334e+02
581             	3.61262307e+02
582             	3.61262298e+02
583             	3.61262287e+02
584             	3.61262266e+02
585             	3.61262237e+02
586             	3.61262221e+02
587             	3.61262214e+02
588             	3.61262205e+02
589             	3.61262172e+02
590             	3.61262101e+02
591             	3.61262056e+02
592             	3.61262044e+02
593             	3.61262010e+02
594             	3.61261966e+02
595             	3.61261912e+02
596             	3.61261873e+02
597             	3.61261852e+02
598             	3.61261848e+02
599             	3.61261851e+02
600             	3.61261860e+02
601             	3.61261889e+02
602             	3.61261900e+02
603             	3.61261872e+02
604             	3.61261851e+02
605             	3.61261828e+02
606             	3.61261788e+02
607             	3.61261735e+02
608             	3.61261688e+02
609             	3.61261631e+02
610             	3.61261555e+02
611             	3.61261509e+02
612             	3.61261486e+02
613             	3.61261472e+02
614             	3.61261430e+02
615             	3.61261390e+02
616             	3.61261400e+02
617             	3.61261477e+02
618             	3.61261478e+02
619             	3.61261448e+02
620             	3.61261440e+02
621             	3.61261466e+02
