# Region        : cellZone component_0
# Cells         : 55
# Volume        : 1.02298178e-01
# Time          	volAverage(T)
1               	3.00940879e+02
2               	3.01868674e+02
3               	3.02729229e+02
4               	3.03547273e+02
5               	3.04341492e+02
6               	3.05116403e+02
7               	3.05876556e+02
8               	3.06626127e+02
9               	3.07372126e+02
10              	3.08091526e+02
11              	3.08808332e+02
12              	3.09504730e+02
13              	3.10186989e+02
14              	3.10866711e+02
15              	3.11542066e+02
16              	3.12205201e+02
17              	3.12861316e+02
18              	3.13513974e+02
19              	3.14164340e+02
20              	3.14807829e+02
21              	3.15440989e+02
22              	3.16065087e+02
23              	3.16689232e+02
24              	3.17302683e+02
25              	3.17900985e+02
26              	3.18514705e+02
27              	3.19093288e+02
28              	3.19650288e+02
29              	3.20206671e+02
30              	3.20766202e+02
31              	3.21327512e+02
32              	3.21881256e+02
33              	3.22430954e+02
34              	3.22975175e+02
35              	3.23512031e+02
36              	3.24036066e+02
37              	3.24549131e+02
38              	3.25044552e+02
39              	3.25531716e+02
40              	3.26011928e+02
41              	3.26484853e+02
42              	3.26955069e+02
43              	3.27412202e+02
44              	3.27878069e+02
45              	3.28336489e+02
46              	3.28797073e+02
47              	3.29264513e+02
48              	3.29727078e+02
49              	3.30170455e+02
50              	3.30618031e+02
51              	3.31053836e+02
52              	3.31491583e+02
53              	3.31915661e+02
54              	3.32348105e+02
55              	3.32775479e+02
56              	3.33200328e+02
57              	3.33628835e+02
58              	3.34044650e+02
59              	3.34459100e+02
60              	3.34847515e+02
61              	3.35237345e+02
62              	3.35592454e+02
63              	3.35929645e+02
64              	3.36279829e+02
65              	3.36609430e+02
66              	3.36929762e+02
67              	3.37251308e+02
68              	3.37576781e+02
69              	3.37902434e+02
70              	3.38245353e+02
71              	3.38569315e+02
72              	3.38891395e+02
73              	3.39175599e+02
74              	3.39448967e+02
75              	3.39734421e+02
76              	3.39991390e+02
77              	3.40264744e+02
78              	3.40535770e+02
79              	3.40803408e+02
80              	3.41068600e+02
81              	3.41349023e+02
82              	3.41626816e+02
83              	3.41908764e+02
84              	3.42203331e+02
85              	3.42498142e+02
86              	3.42747051e+02
87              	3.43021231e+02
88              	3.43305770e+02
89              	3.43576318e+02
90              	3.43837309e+02
91              	3.44098387e+02
92              	3.44349514e+02
93              	3.44605372e+02
94              	3.44842122e+02
95              	3.45097521e+02
96              	3.45353568e+02
97              	3.45604515e+02
98              	3.45839906e+02
99              	3.46061383e+02
100             	3.46252055e+02
101             	3.46443812e+02
102             	3.46660310e+02
103             	3.46874488e+02
104             	3.47102740e+02
105             	3.47334276e+02
106             	3.47537611e+02
107             	3.47742413e+02
108             	3.47989167e+02
109             	3.48222416e+02
110             	3.48467817e+02
111             	3.48713816e+02
112             	3.48936647e+02
113             	3.49146855e+02
114             	3.49365460e+02
115             	3.49588989e+02
116             	3.49778090e+02
117             	3.49969518e+02
118             	3.50153600e+02
119             	3.50337503e+02
120             	3.50517633e+02
121             	3.50714103e+02
122             	3.50897142e+02
123             	3.51086225e+02
124             	3.51276363e+02
125             	3.51440596e+02
126             	3.51614408e+02
127             	3.51790265e+02
128             	3.51967053e+02
129             	3.52144804e+02
130             	3.52298958e+02
131             	3.52459033e+02
132             	3.52602589e+02
133             	3.52755912e+02
134             	3.52909895e+02
135             	3.53047693e+02
136             	3.53201073e+02
137             	3.53363380e+02
138             	3.53503481e+02
139             	3.53664178e+02
140             	3.53835251e+02
141             	3.54012514e+02
142             	3.54162172e+02
143             	3.54318604e+02
144             	3.54454120e+02
145             	3.54598180e+02
146             	3.54719160e+02
147             	3.54839157e+02
148             	3.54962202e+02
149             	3.55089519e+02
150             	3.55222039e+02
151             	3.55328441e+02
152             	3.55453391e+02
153             	3.55591112e+02
154             	3.55733252e+02
155             	3.55851947e+02
156             	3.55984240e+02
157             	3.56115734e+02
158             	3.56212052e+02
159             	3.56324458e+02
160             	3.56447316e+02
161             	3.56543894e+02
162             	3.56654704e+02
163             	3.56741926e+02
164             	3.56839554e+02
165             	3.56941801e+02
166             	3.57031958e+02
167             	3.57135920e+02
168             	3.57253359e+02
169             	3.57339459e+02
170             	3.57441566e+02
171             	3.57553516e+02
172             	3.57652663e+02
173             	3.57729736e+02
174             	3.57823621e+02
175             	3.57904349e+02
176             	3.58002056e+02
177             	3.58111115e+02
178             	3.58189436e+02
179             	3.58286971e+02
180             	3.58371455e+02
181             	3.58480528e+02
182             	3.58598162e+02
183             	3.58687531e+02
184             	3.58786939e+02
185             	3.58887025e+02
186             	3.58974531e+02
187             	3.59036609e+02
188             	3.59108255e+02
189             	3.59192901e+02
190             	3.59287946e+02
191             	3.59346340e+02
192             	3.59420993e+02
193             	3.59508588e+02
194             	3.59570304e+02
195             	3.59655356e+02
196             	3.59753209e+02
197             	3.59831577e+02
198             	3.59916970e+02
199             	3.60011368e+02
200             	3.60110350e+02
201             	3.60176739e+02
202             	3.60254849e+02
203             	3.60341892e+02
204             	3.60391987e+02
205             	3.60454648e+02
206             	3.60494473e+02
207             	3.60554680e+02
208             	3.60624812e+02
209             	3.60667119e+02
210             	3.60723693e+02
211             	3.60798703e+02
212             	3.60843398e+02
213             	3.60907637e+02
214             	3.60984820e+02
215             	3.61031267e+02
216             	3.61092582e+02
217             	3.61137847e+02
218             	3.61199421e+02
219             	3.61259749e+02
220             	3.61297919e+02
221             	3.61352091e+02
222             	3.61391302e+02
223             	3.61448820e+02
224             	3.61491847e+02
225             	3.61554847e+02
226             	3.61599831e+02
227             	3.61660022e+02
228             	3.61702856e+02
229             	3.61761114e+02
230             	3.61805283e+02
231             	3.61860686e+02
232             	3.61900018e+02
233             	3.61949644e+02
234             	3.61984143e+02
235             	3.62029806e+02
236             	3.62058823e+02
237             	3.62100033e+02
238             	3.62158465e+02
239             	3.62180288e+02
240             	3.62219735e+02
241             	3.62238435e+02
242             	3.62276348e+02
243             	3.62293961e+02
244             	3.62333673e+02
245             	3.62354480e+02
246             	3.62397290e+02
247             	3.62418883e+02
248             	3.62461469e+02
249             	3.62485218e+02
250             	3.62533575e+02
251             	3.62592403e+02
252             	3.62626743e+02
253             	3.62678108e+02
254             	3.62737986e+02
255             	3.62772457e+02
256             	3.62818039e+02
257             	3.62843577e+02
258             	3.62881947e+02
259             	3.62930218e+02
260             	3.62968434e+02
261             	3.62971609e+02
262             	3.62998044e+02
263             	3.63036851e+02
264             	3.63051946e+02
265             	3.63077405e+02
266             	3.63124641e+02
267             	3.63139838e+02
268             	3.63177969e+02
269             	3.63232392e+02
270             	3.63254454e+02
271             	3.63293170e+02
272             	3.63343725e+02
273             	3.63368056e+02
274             	3.63408656e+02
275             	3.63457232e+02
276             	3.63475718e+02
277             	3.63501835e+02
278             	3.63502822e+02
279             	3.63524412e+02
280             	3.63526998e+02
281             	3.63549451e+02
282             	3.63557304e+02
283             	3.63585261e+02
284             	3.63594626e+02
285             	3.63623088e+02
286             	3.63662656e+02
287             	3.63678282e+02
288             	3.63709231e+02
289             	3.63751102e+02
290             	3.63765658e+02
291             	3.63794471e+02
292             	3.63830925e+02
293             	3.63835563e+02
294             	3.63853209e+02
295             	3.63888555e+02
296             	3.63886440e+02
297             	3.63903089e+02
298             	3.63899380e+02
299             	3.63916796e+02
300             	3.63914658e+02
301             	3.63934961e+02
302             	3.63936347e+02
303             	3.63959642e+02
304             	3.63964405e+02
305             	3.63991344e+02
306             	3.63998293e+02
307             	3.64026338e+02
308             	3.64033050e+02
309             	3.64061047e+02
310             	3.64071302e+02
311             	3.64103041e+02
312             	3.64112264e+02
313             	3.64141088e+02
314             	3.64150239e+02
315             	3.64179213e+02
316             	3.64187733e+02
317             	3.64215911e+02
318             	3.64222414e+02
319             	3.64249339e+02
320             	3.64253909e+02
321             	3.64278855e+02
322             	3.64282345e+02
323             	3.64306466e+02
324             	3.64311274e+02
325             	3.64337253e+02
326             	3.64342346e+02
327             	3.64367401e+02
328             	3.64371358e+02
329             	3.64395403e+02
330             	3.64399436e+02
331             	3.64424019e+02
332             	3.64429096e+02
333             	3.64453745e+02
334             	3.64457942e+02
335             	3.64482185e+02
336             	3.64482384e+02
337             	3.64500835e+02
338             	3.64501008e+02
339             	3.64521716e+02
340             	3.64524067e+02
341             	3.64547407e+02
342             	3.64583203e+02
343             	3.64591564e+02
344             	3.64613371e+02
345             	3.64620010e+02
346             	3.64641489e+02
347             	3.64648745e+02
348             	3.64670685e+02
349             	3.64676913e+02
350             	3.64695555e+02
351             	3.64696041e+02
352             	3.64712205e+02
353             	3.64711378e+02
354             	3.64724975e+02
355             	3.64723045e+02
356             	3.64734962e+02
357             	3.64731284e+02
358             	3.64743980e+02
359             	3.64742042e+02
360             	3.64756106e+02
361             	3.64756175e+02
362             	3.64771988e+02
363             	3.64773776e+02
364             	3.64790002e+02
365             	3.64792564e+02
366             	3.64809331e+02
367             	3.64811357e+02
368             	3.64827532e+02
369             	3.64828419e+02
370             	3.64842781e+02
371             	3.64842162e+02
372             	3.64854774e+02
373             	3.64852429e+02
374             	3.64863490e+02
375             	3.64860039e+02
376             	3.64868929e+02
377             	3.64863028e+02
378             	3.64871838e+02
379             	3.64866929e+02
380             	3.64876409e+02
381             	3.64872317e+02
382             	3.64882191e+02
383             	3.64878625e+02
384             	3.64889860e+02
385             	3.64887487e+02
386             	3.64899766e+02
387             	3.64899362e+02
388             	3.64913856e+02
389             	3.64915241e+02
390             	3.64931305e+02
391             	3.64932723e+02
392             	3.64948807e+02
393             	3.64949640e+02
394             	3.64964475e+02
395             	3.64964453e+02
396             	3.64978041e+02
397             	3.64977189e+02
398             	3.64989270e+02
399             	3.64986910e+02
400             	3.64998685e+02
401             	3.64996771e+02
402             	3.65008584e+02
403             	3.65006284e+02
404             	3.65018364e+02
405             	3.65016366e+02
406             	3.65028887e+02
407             	3.65027314e+02
408             	3.65040307e+02
409             	3.65038809e+02
410             	3.65051994e+02
411             	3.65050326e+02
412             	3.65062431e+02
413             	3.65059062e+02
414             	3.65070255e+02
415             	3.65066825e+02
416             	3.65077788e+02
417             	3.65074644e+02
418             	3.65085617e+02
419             	3.65083601e+02
420             	3.65096165e+02
421             	3.65095077e+02
422             	3.65108826e+02
423             	3.65107820e+02
424             	3.65121532e+02
425             	3.65120575e+02
426             	3.65133350e+02
427             	3.65131408e+02
428             	3.65142972e+02
429             	3.65139919e+02
430             	3.65150338e+02
431             	3.65146278e+02
432             	3.65155344e+02
433             	3.65150109e+02
434             	3.65157747e+02
435             	3.65150879e+02
436             	3.65157798e+02
437             	3.65150931e+02
438             	3.65157749e+02
439             	3.65150946e+02
440             	3.65157936e+02
441             	3.65151448e+02
442             	3.65159306e+02
443             	3.65153578e+02
444             	3.65162383e+02
445             	3.65157430e+02
446             	3.65166577e+02
447             	3.65161570e+02
448             	3.65170920e+02
449             	3.65165940e+02
450             	3.65175005e+02
451             	3.65169759e+02
452             	3.65178466e+02
453             	3.65172921e+02
454             	3.65181550e+02
455             	3.65176349e+02
456             	3.65185224e+02
457             	3.65179972e+02
458             	3.65188969e+02
459             	3.65183799e+02
460             	3.65192427e+02
461             	3.65186961e+02
462             	3.65195220e+02
463             	3.65189379e+02
464             	3.65196670e+02
465             	3.65189097e+02
466             	3.65195993e+02
467             	3.65188991e+02
468             	3.65195910e+02
469             	3.65188853e+02
470             	3.65195860e+02
471             	3.65188894e+02
472             	3.65196436e+02
473             	3.65190043e+02
474             	3.65198763e+02
475             	3.65193270e+02
476             	3.65203606e+02
477             	3.65200701e+02
478             	3.65212801e+02
479             	3.65209819e+02
480             	3.65220491e+02
481             	3.65216847e+02
482             	3.65227171e+02
483             	3.65223212e+02
484             	3.65232340e+02
485             	3.65226380e+02
486             	3.65233763e+02
487             	3.65226911e+02
488             	3.65234009e+02
489             	3.65227369e+02
490             	3.65235177e+02
491             	3.65229104e+02
492             	3.65237602e+02
493             	3.65232013e+02
494             	3.65241607e+02
495             	3.65236776e+02
496             	3.65246636e+02
497             	3.65242046e+02
498             	3.65252123e+02
499             	3.65248096e+02
500             	3.65258198e+02
501             	3.65254071e+02
502             	3.65264253e+02
503             	3.65259902e+02
504             	3.65269879e+02
505             	3.65265236e+02
506             	3.65276185e+02
507             	3.65274536e+02
508             	3.65287695e+02
509             	3.65284629e+02
510             	3.65294694e+02
511             	3.65287789e+02
512             	3.65295041e+02
513             	3.65287982e+02
514             	3.65294579e+02
515             	3.65287240e+02
516             	3.65293770e+02
517             	3.65286447e+02
518             	3.65293315e+02
519             	3.65285619e+02
520             	3.65292685e+02
521             	3.65286008e+02
522             	3.65293546e+02
523             	3.65287487e+02
524             	3.65296289e+02
525             	3.65291329e+02
526             	3.65300724e+02
527             	3.65295724e+02
528             	3.65304830e+02
529             	3.65299410e+02
530             	3.65308394e+02
531             	3.65302931e+02
532             	3.65312235e+02
533             	3.65306853e+02
534             	3.65316322e+02
535             	3.65311296e+02
536             	3.65321825e+02
537             	3.65317802e+02
538             	3.65328062e+02
539             	3.65323483e+02
540             	3.65332163e+02
541             	3.65326311e+02
542             	3.65333974e+02
543             	3.65327339e+02
544             	3.65333944e+02
545             	3.65325493e+02
546             	3.65330634e+02
547             	3.65321626e+02
548             	3.65326566e+02
549             	3.65316445e+02
550             	3.65320941e+02
551             	3.65310808e+02
552             	3.65315691e+02
553             	3.65306787e+02
554             	3.65312758e+02
555             	3.65305029e+02
556             	3.65311799e+02
557             	3.65304975e+02
558             	3.65313287e+02
559             	3.65307786e+02
560             	3.65317530e+02
561             	3.65313241e+02
562             	3.65323770e+02
563             	3.65319469e+02
564             	3.65330699e+02
565             	3.65326392e+02
566             	3.65336458e+02
567             	3.65331334e+02
568             	3.65339589e+02
569             	3.65332665e+02
570             	3.65339650e+02
571             	3.65331714e+02
572             	3.65337726e+02
573             	3.65329341e+02
574             	3.65335003e+02
575             	3.65326688e+02
576             	3.65331966e+02
577             	3.65322870e+02
578             	3.65329095e+02
579             	3.65321069e+02
580             	3.65328069e+02
581             	3.65320987e+02
582             	3.65329066e+02
583             	3.65323061e+02
584             	3.65331496e+02
585             	3.65325606e+02
586             	3.65334278e+02
587             	3.65328818e+02
588             	3.65337534e+02
589             	3.65333223e+02
590             	3.65343685e+02
591             	3.65339682e+02
592             	3.65349332e+02
593             	3.65344068e+02
594             	3.65353547e+02
595             	3.65348123e+02
596             	3.65357634e+02
597             	3.65352141e+02
598             	3.65360716e+02
599             	3.65354872e+02
600             	3.65362270e+02
601             	3.65354734e+02
602             	3.65360722e+02
603             	3.65352453e+02
604             	3.65357532e+02
605             	3.65348555e+02
606             	3.65352963e+02
607             	3.65343061e+02
608             	3.65347116e+02
609             	3.65337485e+02
610             	3.65342148e+02
611             	3.65333256e+02
612             	3.65339025e+02
613             	3.65331130e+02
614             	3.65338197e+02
615             	3.65331596e+02
616             	3.65340384e+02
617             	3.65335071e+02
618             	3.65345059e+02
619             	3.65341566e+02
620             	3.65353387e+02
621             	3.65350637e+02
