# Region        : cellZone component_2
# Cells         : 95
# Volume        : 1.75987406e-01
# Time          	volAverage(T)
1               	3.01706200e+02
2               	3.03384656e+02
3               	3.04946854e+02
4               	3.06428724e+02
5               	3.07859555e+02
6               	3.09249631e+02
7               	3.10611572e+02
8               	3.11951615e+02
9               	3.13272136e+02
10              	3.14583365e+02
11              	3.15881212e+02
12              	3.17151581e+02
13              	3.18387308e+02
14              	3.19601386e+02
15              	3.20755857e+02
16              	3.21848212e+02
17              	3.22868731e+02
18              	3.23866109e+02
19              	3.24874942e+02
20              	3.25879255e+02
21              	3.26914799e+02
22              	3.27960461e+02
23              	3.29000353e+02
24              	3.30035052e+02
25              	3.31053600e+02
26              	3.32045545e+02
27              	3.33013597e+02
28              	3.33967929e+02
29              	3.34902110e+02
30              	3.35819255e+02
31              	3.36715149e+02
32              	3.37578164e+02
33              	3.38422285e+02
34              	3.39252856e+02
35              	3.40066219e+02
36              	3.40859443e+02
37              	3.41626512e+02
38              	3.42365884e+02
39              	3.43096226e+02
40              	3.43787817e+02
41              	3.44456074e+02
42              	3.45084185e+02
43              	3.45695507e+02
44              	3.46273121e+02
45              	3.46820609e+02
46              	3.47337781e+02
47              	3.47832392e+02
48              	3.48314733e+02
49              	3.48792533e+02
50              	3.49275226e+02
51              	3.49748857e+02
52              	3.50225461e+02
53              	3.50698201e+02
54              	3.51182157e+02
55              	3.51652158e+02
56              	3.52127571e+02
57              	3.52593199e+02
58              	3.53050192e+02
59              	3.53489905e+02
60              	3.53915269e+02
61              	3.54326604e+02
62              	3.54720591e+02
63              	3.55098777e+02
64              	3.55457125e+02
65              	3.55800265e+02
66              	3.56127725e+02
67              	3.56449548e+02
68              	3.56767008e+02
69              	3.57087888e+02
70              	3.57418474e+02
71              	3.57757558e+02
72              	3.58106731e+02
73              	3.58461305e+02
74              	3.58801839e+02
75              	3.59138786e+02
76              	3.59467807e+02
77              	3.59776206e+02
78              	3.60064663e+02
79              	3.60320594e+02
80              	3.60551215e+02
81              	3.60763848e+02
82              	3.60957966e+02
83              	3.61139464e+02
84              	3.61320411e+02
85              	3.61494513e+02
86              	3.61672156e+02
87              	3.61859315e+02
88              	3.62045917e+02
89              	3.62241431e+02
90              	3.62438691e+02
91              	3.62650972e+02
92              	3.62865259e+02
93              	3.63054125e+02
94              	3.63247926e+02
95              	3.63438860e+02
96              	3.63615556e+02
97              	3.63774861e+02
98              	3.63912608e+02
99              	3.64036840e+02
100             	3.64172954e+02
101             	3.64315047e+02
102             	3.64460529e+02
103             	3.64611662e+02
104             	3.64760007e+02
105             	3.64906534e+02
106             	3.65028175e+02
107             	3.65141387e+02
108             	3.65227309e+02
109             	3.65286371e+02
110             	3.65334226e+02
111             	3.65388662e+02
112             	3.65444140e+02
113             	3.65495611e+02
114             	3.65544485e+02
115             	3.65602321e+02
116             	3.65675926e+02
117             	3.65759570e+02
118             	3.65843390e+02
119             	3.65934768e+02
120             	3.66022509e+02
121             	3.66093732e+02
122             	3.66168829e+02
123             	3.66244667e+02
124             	3.66316191e+02
125             	3.66392471e+02
126             	3.66472299e+02
127             	3.66552653e+02
128             	3.66650092e+02
129             	3.66743674e+02
130             	3.66860745e+02
131             	3.66971969e+02
132             	3.67075248e+02
133             	3.67160048e+02
134             	3.67226515e+02
135             	3.67277814e+02
136             	3.67308056e+02
137             	3.67336767e+02
138             	3.67367501e+02
139             	3.67398399e+02
140             	3.67435310e+02
141             	3.67492375e+02
142             	3.67550064e+02
143             	3.67617665e+02
144             	3.67694851e+02
145             	3.67751371e+02
146             	3.67777701e+02
147             	3.67790310e+02
148             	3.67784231e+02
149             	3.67787894e+02
150             	3.67801959e+02
151             	3.67816145e+02
152             	3.67830366e+02
153             	3.67849493e+02
154             	3.67885926e+02
155             	3.67928821e+02
156             	3.67987557e+02
157             	3.68037956e+02
158             	3.68073086e+02
159             	3.68093882e+02
160             	3.68103753e+02
161             	3.68099125e+02
162             	3.68090047e+02
163             	3.68090085e+02
164             	3.68085402e+02
165             	3.68094399e+02
166             	3.68110635e+02
167             	3.68147928e+02
168             	3.68186297e+02
169             	3.68245115e+02
170             	3.68302448e+02
171             	3.68356882e+02
172             	3.68408028e+02
173             	3.68453145e+02
174             	3.68491317e+02
175             	3.68521214e+02
176             	3.68552914e+02
177             	3.68586184e+02
178             	3.68621738e+02
179             	3.68666077e+02
180             	3.68715145e+02
181             	3.68778822e+02
182             	3.68836580e+02
183             	3.68912188e+02
184             	3.68995300e+02
185             	3.69076282e+02
186             	3.69146479e+02
187             	3.69206509e+02
188             	3.69259900e+02
189             	3.69303037e+02
190             	3.69332091e+02
191             	3.69351995e+02
192             	3.69366579e+02
193             	3.69379238e+02
194             	3.69391020e+02
195             	3.69402782e+02
196             	3.69417196e+02
197             	3.69439678e+02
198             	3.69475418e+02
199             	3.69521503e+02
200             	3.69583332e+02
201             	3.69640754e+02
202             	3.69698556e+02
203             	3.69770433e+02
204             	3.69838918e+02
205             	3.69899434e+02
206             	3.69952430e+02
207             	3.69997958e+02
208             	3.70039730e+02
209             	3.70080994e+02
210             	3.70124092e+02
211             	3.70172402e+02
212             	3.70225830e+02
213             	3.70283956e+02
214             	3.70339014e+02
215             	3.70392700e+02
216             	3.70441219e+02
217             	3.70486710e+02
218             	3.70526863e+02
219             	3.70567213e+02
220             	3.70590692e+02
221             	3.70612884e+02
222             	3.70635545e+02
223             	3.70656713e+02
224             	3.70678519e+02
225             	3.70699750e+02
226             	3.70725094e+02
227             	3.70752080e+02
228             	3.70788757e+02
229             	3.70822706e+02
230             	3.70864715e+02
231             	3.70915048e+02
232             	3.70972883e+02
233             	3.71034658e+02
234             	3.71094451e+02
235             	3.71149388e+02
236             	3.71189830e+02
237             	3.71228174e+02
238             	3.71261772e+02
239             	3.71291050e+02
240             	3.71314008e+02
241             	3.71335120e+02
242             	3.71353091e+02
243             	3.71370855e+02
244             	3.71390334e+02
245             	3.71412339e+02
246             	3.71436502e+02
247             	3.71461750e+02
248             	3.71489412e+02
249             	3.71519254e+02
250             	3.71552852e+02
251             	3.71590155e+02
252             	3.71627836e+02
253             	3.71675705e+02
254             	3.71714608e+02
255             	3.71755254e+02
256             	3.71797421e+02
257             	3.71838608e+02
258             	3.71877094e+02
259             	3.71911489e+02
260             	3.71941186e+02
261             	3.71965513e+02
262             	3.71980512e+02
263             	3.71989799e+02
264             	3.71993907e+02
265             	3.71990932e+02
266             	3.71983644e+02
267             	3.71977740e+02
268             	3.71974222e+02
269             	3.71975068e+02
270             	3.71972863e+02
271             	3.71977176e+02
272             	3.71987619e+02
273             	3.72005005e+02
274             	3.72028577e+02
275             	3.72058199e+02
276             	3.72091301e+02
277             	3.72126923e+02
278             	3.72164594e+02
279             	3.72204018e+02
280             	3.72244113e+02
281             	3.72288808e+02
282             	3.72324539e+02
283             	3.72356761e+02
284             	3.72386277e+02
285             	3.72414012e+02
286             	3.72436633e+02
287             	3.72457171e+02
288             	3.72473984e+02
289             	3.72489008e+02
290             	3.72501924e+02
291             	3.72514859e+02
292             	3.72526927e+02
293             	3.72536746e+02
294             	3.72547337e+02
295             	3.72562753e+02
296             	3.72576223e+02
297             	3.72590140e+02
298             	3.72608773e+02
299             	3.72631031e+02
300             	3.72654879e+02
301             	3.72678894e+02
302             	3.72704433e+02
303             	3.72729174e+02
304             	3.72750309e+02
305             	3.72767108e+02
306             	3.72779725e+02
307             	3.72791408e+02
308             	3.72802396e+02
309             	3.72814015e+02
310             	3.72821846e+02
311             	3.72827144e+02
312             	3.72832857e+02
313             	3.72837812e+02
314             	3.72842626e+02
315             	3.72851320e+02
316             	3.72857891e+02
317             	3.72864982e+02
318             	3.72874439e+02
319             	3.72885916e+02
320             	3.72899282e+02
321             	3.72915932e+02
322             	3.72933406e+02
323             	3.72949370e+02
324             	3.72963789e+02
325             	3.72977821e+02
326             	3.72990174e+02
327             	3.73000067e+02
328             	3.73008469e+02
329             	3.73012110e+02
330             	3.73016607e+02
331             	3.73020085e+02
332             	3.73022309e+02
333             	3.73024019e+02
334             	3.73023609e+02
335             	3.73024811e+02
336             	3.73027090e+02
337             	3.73030182e+02
338             	3.73034453e+02
339             	3.73040073e+02
340             	3.73046891e+02
341             	3.73050200e+02
342             	3.73055854e+02
343             	3.73061180e+02
344             	3.73065280e+02
345             	3.73066929e+02
346             	3.73066856e+02
347             	3.73064898e+02
348             	3.73061251e+02
349             	3.73058823e+02
350             	3.73053634e+02
351             	3.73048041e+02
352             	3.73044841e+02
353             	3.73041569e+02
354             	3.73039587e+02
355             	3.73039582e+02
356             	3.73041094e+02
357             	3.73043483e+02
358             	3.73048311e+02
359             	3.73054651e+02
360             	3.73062182e+02
361             	3.73070055e+02
362             	3.73078068e+02
363             	3.73086631e+02
364             	3.73095578e+02
365             	3.73104735e+02
366             	3.73112218e+02
367             	3.73118108e+02
368             	3.73117650e+02
369             	3.73119095e+02
370             	3.73119314e+02
371             	3.73118207e+02
372             	3.73115400e+02
373             	3.73111528e+02
374             	3.73106599e+02
375             	3.73101453e+02
376             	3.73097138e+02
377             	3.73093801e+02
378             	3.73090554e+02
379             	3.73091925e+02
380             	3.73096535e+02
381             	3.73099997e+02
382             	3.73107087e+02
383             	3.73117988e+02
384             	3.73131096e+02
385             	3.73144424e+02
386             	3.73157469e+02
387             	3.73171633e+02
388             	3.73185116e+02
389             	3.73197040e+02
390             	3.73208289e+02
391             	3.73217859e+02
392             	3.73224766e+02
393             	3.73228427e+02
394             	3.73231295e+02
395             	3.73233317e+02
396             	3.73233962e+02
397             	3.73232922e+02
398             	3.73230542e+02
399             	3.73227331e+02
400             	3.73225625e+02
401             	3.73225726e+02
402             	3.73224360e+02
403             	3.73223605e+02
404             	3.73223972e+02
405             	3.73225263e+02
406             	3.73227141e+02
407             	3.73229140e+02
408             	3.73231767e+02
409             	3.73234593e+02
410             	3.73236801e+02
411             	3.73238860e+02
412             	3.73241037e+02
413             	3.73242333e+02
414             	3.73244212e+02
415             	3.73246084e+02
416             	3.73244840e+02
417             	3.73244149e+02
418             	3.73242945e+02
419             	3.73240954e+02
420             	3.73238537e+02
421             	3.73236003e+02
422             	3.73233625e+02
423             	3.73231362e+02
424             	3.73229543e+02
425             	3.73228409e+02
426             	3.73227989e+02
427             	3.73229402e+02
428             	3.73232865e+02
429             	3.73235693e+02
430             	3.73241480e+02
431             	3.73245444e+02
432             	3.73247812e+02
433             	3.73251459e+02
434             	3.73255353e+02
435             	3.73259021e+02
436             	3.73261854e+02
437             	3.73263785e+02
438             	3.73264906e+02
439             	3.73265237e+02
440             	3.73265743e+02
441             	3.73265368e+02
442             	3.73264449e+02
443             	3.73263243e+02
444             	3.73262093e+02
445             	3.73260059e+02
446             	3.73259038e+02
447             	3.73258556e+02
448             	3.73258482e+02
449             	3.73259025e+02
450             	3.73259544e+02
451             	3.73260130e+02
452             	3.73261450e+02
453             	3.73263096e+02
454             	3.73265207e+02
455             	3.73268043e+02
456             	3.73271608e+02
457             	3.73274940e+02
458             	3.73278352e+02
459             	3.73281779e+02
460             	3.73284914e+02
461             	3.73287358e+02
462             	3.73292371e+02
463             	3.73294629e+02
464             	3.73295899e+02
465             	3.73296887e+02
466             	3.73297394e+02
467             	3.73296982e+02
468             	3.73295406e+02
469             	3.73293008e+02
470             	3.73290035e+02
471             	3.73286669e+02
472             	3.73282908e+02
473             	3.73278867e+02
474             	3.73275240e+02
475             	3.73272458e+02
476             	3.73270524e+02
477             	3.73270178e+02
478             	3.73271591e+02
479             	3.73275047e+02
480             	3.73279797e+02
481             	3.73285853e+02
482             	3.73292929e+02
483             	3.73300868e+02
484             	3.73309186e+02
485             	3.73316996e+02
486             	3.73323719e+02
487             	3.73330310e+02
488             	3.73334328e+02
489             	3.73337580e+02
490             	3.73338842e+02
491             	3.73340059e+02
492             	3.73338316e+02
493             	3.73335288e+02
494             	3.73331651e+02
495             	3.73327399e+02
496             	3.73323162e+02
497             	3.73319440e+02
498             	3.73315861e+02
499             	3.73313464e+02
500             	3.73312517e+02
501             	3.73313574e+02
502             	3.73315774e+02
503             	3.73318411e+02
504             	3.73320462e+02
505             	3.73321853e+02
506             	3.73322934e+02
507             	3.73325207e+02
508             	3.73327564e+02
509             	3.73329954e+02
510             	3.73332695e+02
511             	3.73335058e+02
512             	3.73337189e+02
513             	3.73338923e+02
514             	3.73340687e+02
515             	3.73341820e+02
516             	3.73342123e+02
517             	3.73341586e+02
518             	3.73339975e+02
519             	3.73337873e+02
520             	3.73335271e+02
521             	3.73332724e+02
522             	3.73330764e+02
523             	3.73329485e+02
524             	3.73329066e+02
525             	3.73329584e+02
526             	3.73331005e+02
527             	3.73333281e+02
528             	3.73334360e+02
529             	3.73337215e+02
530             	3.73340727e+02
531             	3.73344372e+02
532             	3.73347742e+02
533             	3.73350797e+02
534             	3.73356712e+02
535             	3.73360595e+02
536             	3.73364034e+02
537             	3.73367595e+02
538             	3.73370970e+02
539             	3.73373750e+02
540             	3.73375560e+02
541             	3.73376303e+02
542             	3.73376061e+02
543             	3.73374947e+02
544             	3.73373268e+02
545             	3.73371172e+02
546             	3.73368954e+02
547             	3.73367148e+02
548             	3.73365683e+02
549             	3.73364517e+02
550             	3.73363978e+02
551             	3.73364283e+02
552             	3.73365373e+02
553             	3.73367207e+02
554             	3.73369661e+02
555             	3.73373040e+02
556             	3.73376482e+02
557             	3.73380628e+02
558             	3.73384442e+02
559             	3.73388898e+02
560             	3.73392553e+02
561             	3.73395350e+02
562             	3.73394233e+02
563             	3.73393485e+02
564             	3.73391788e+02
565             	3.73388529e+02
566             	3.73383864e+02
567             	3.73378225e+02
568             	3.73372375e+02
569             	3.73366509e+02
570             	3.73360966e+02
571             	3.73355942e+02
572             	3.73352785e+02
573             	3.73349911e+02
574             	3.73347876e+02
575             	3.73347069e+02
576             	3.73347411e+02
577             	3.73348857e+02
578             	3.73350886e+02
579             	3.73353836e+02
580             	3.73356894e+02
581             	3.73359839e+02
582             	3.73362685e+02
583             	3.73365280e+02
584             	3.73367461e+02
585             	3.73369381e+02
586             	3.73370827e+02
587             	3.73371721e+02
588             	3.73372006e+02
589             	3.73371643e+02
590             	3.73370786e+02
591             	3.73369600e+02
592             	3.73367547e+02
593             	3.73365669e+02
594             	3.73363973e+02
595             	3.73362420e+02
596             	3.73361157e+02
597             	3.73360189e+02
598             	3.73359577e+02
599             	3.73359340e+02
600             	3.73359449e+02
601             	3.73359786e+02
602             	3.73360809e+02
603             	3.73361638e+02
604             	3.73362341e+02
605             	3.73362949e+02
606             	3.73363278e+02
607             	3.73363938e+02
608             	3.73364362e+02
609             	3.73364276e+02
610             	3.73363701e+02
611             	3.73362613e+02
612             	3.73361347e+02
613             	3.73359723e+02
614             	3.73357772e+02
615             	3.73355652e+02
616             	3.73353525e+02
617             	3.73351166e+02
618             	3.73348729e+02
619             	3.73346787e+02
620             	3.73345185e+02
621             	3.73343865e+02
