# Region        : cellZone component_3
# Cells         : 216
# Volume        : 4.45022917e-01
# Time          	volAverage(T)
1               	3.00133033e+02
2               	3.00265160e+02
3               	3.00391020e+02
4               	3.00512230e+02
5               	3.00630410e+02
6               	3.00746197e+02
7               	3.00859920e+02
8               	3.00971858e+02
9               	3.01082472e+02
10              	3.01191932e+02
11              	3.01299884e+02
12              	3.01406181e+02
13              	3.01510613e+02
14              	3.01613241e+02
15              	3.01714791e+02
16              	3.01815653e+02
17              	3.01914497e+02
18              	3.02012030e+02
19              	3.02110319e+02
20              	3.02207428e+02
21              	3.02303919e+02
22              	3.02399513e+02
23              	3.02493323e+02
24              	3.02583706e+02
25              	3.02669965e+02
26              	3.02758206e+02
27              	3.02846875e+02
28              	3.02930562e+02
29              	3.03010543e+02
30              	3.03086120e+02
31              	3.03152077e+02
32              	3.03212581e+02
33              	3.03274083e+02
34              	3.03334803e+02
35              	3.03396582e+02
36              	3.03462797e+02
37              	3.03528322e+02
38              	3.03593753e+02
39              	3.03658547e+02
40              	3.03722953e+02
41              	3.03783588e+02
42              	3.03845549e+02
43              	3.03908362e+02
44              	3.03967269e+02
45              	3.04018142e+02
46              	3.04062272e+02
47              	3.04100593e+02
48              	3.04138888e+02
49              	3.04185892e+02
50              	3.04235503e+02
51              	3.04284136e+02
52              	3.04333563e+02
53              	3.04383006e+02
54              	3.04434382e+02
55              	3.04489985e+02
56              	3.04546434e+02
57              	3.04604101e+02
58              	3.04660999e+02
59              	3.04716718e+02
60              	3.04772883e+02
61              	3.04829325e+02
62              	3.04886297e+02
63              	3.04940850e+02
64              	3.04995862e+02
65              	3.05050838e+02
66              	3.05104331e+02
67              	3.05156925e+02
68              	3.05209208e+02
69              	3.05262299e+02
70              	3.05315026e+02
71              	3.05367357e+02
72              	3.05418037e+02
73              	3.05466744e+02
74              	3.05512858e+02
75              	3.05555677e+02
76              	3.05598122e+02
77              	3.05641341e+02
78              	3.05685034e+02
79              	3.05729833e+02
80              	3.05777701e+02
81              	3.05826994e+02
82              	3.05875152e+02
83              	3.05921174e+02
84              	3.05967158e+02
85              	3.06009632e+02
86              	3.06048284e+02
87              	3.06084748e+02
88              	3.06119194e+02
89              	3.06152632e+02
90              	3.06186058e+02
91              	3.06222025e+02
92              	3.06261364e+02
93              	3.06298544e+02
94              	3.06331695e+02
95              	3.06365685e+02
96              	3.06399288e+02
97              	3.06433021e+02
98              	3.06466308e+02
99              	3.06497353e+02
100             	3.06528925e+02
101             	3.06563344e+02
102             	3.06595783e+02
103             	3.06628696e+02
104             	3.06661914e+02
105             	3.06697524e+02
106             	3.06732864e+02
107             	3.06768109e+02
108             	3.06803213e+02
109             	3.06836310e+02
110             	3.06868473e+02
111             	3.06899178e+02
112             	3.06930529e+02
113             	3.06965291e+02
114             	3.07003255e+02
115             	3.07037144e+02
116             	3.07070323e+02
117             	3.07103754e+02
118             	3.07133948e+02
119             	3.07162697e+02
120             	3.07190638e+02
121             	3.07217875e+02
122             	3.07244710e+02
123             	3.07269885e+02
124             	3.07292933e+02
125             	3.07315744e+02
126             	3.07337455e+02
127             	3.07361126e+02
128             	3.07385868e+02
129             	3.07412373e+02
130             	3.07440218e+02
131             	3.07468451e+02
132             	3.07497075e+02
133             	3.07525730e+02
134             	3.07555112e+02
135             	3.07581881e+02
136             	3.07608165e+02
137             	3.07633902e+02
138             	3.07659272e+02
139             	3.07683757e+02
140             	3.07707555e+02
141             	3.07730494e+02
142             	3.07752619e+02
143             	3.07774445e+02
144             	3.07796795e+02
145             	3.07819461e+02
146             	3.07842177e+02
147             	3.07865849e+02
148             	3.07890140e+02
149             	3.07914736e+02
150             	3.07939320e+02
151             	3.07964010e+02
152             	3.07988828e+02
153             	3.08013943e+02
154             	3.08037204e+02
155             	3.08060508e+02
156             	3.08082355e+02
157             	3.08103261e+02
158             	3.08123260e+02
159             	3.08142794e+02
160             	3.08162676e+02
161             	3.08181301e+02
162             	3.08199759e+02
163             	3.08217788e+02
164             	3.08236494e+02
165             	3.08255040e+02
166             	3.08274136e+02
167             	3.08293758e+02
168             	3.08313918e+02
169             	3.08334754e+02
170             	3.08355954e+02
171             	3.08376723e+02
172             	3.08396539e+02
173             	3.08415737e+02
174             	3.08433915e+02
175             	3.08451523e+02
176             	3.08468498e+02
177             	3.08484457e+02
178             	3.08499637e+02
179             	3.08514083e+02
180             	3.08528012e+02
181             	3.08541769e+02
182             	3.08555742e+02
183             	3.08570435e+02
184             	3.08583749e+02
185             	3.08597948e+02
186             	3.08613021e+02
187             	3.08628571e+02
188             	3.08643785e+02
189             	3.08659308e+02
190             	3.08675447e+02
191             	3.08691607e+02
192             	3.08707316e+02
193             	3.08722671e+02
194             	3.08737588e+02
195             	3.08751859e+02
196             	3.08765246e+02
197             	3.08778053e+02
198             	3.08790338e+02
199             	3.08802190e+02
200             	3.08813624e+02
201             	3.08824812e+02
202             	3.08835481e+02
203             	3.08846230e+02
204             	3.08856247e+02
205             	3.08867288e+02
206             	3.08879315e+02
207             	3.08892447e+02
208             	3.08906023e+02
209             	3.08919319e+02
210             	3.08931269e+02
211             	3.08943035e+02
212             	3.08954159e+02
213             	3.08964602e+02
214             	3.08974646e+02
215             	3.08984452e+02
216             	3.08994014e+02
217             	3.09003472e+02
218             	3.09012554e+02
219             	3.09021371e+02
220             	3.09029679e+02
221             	3.09038911e+02
222             	3.09048758e+02
223             	3.09059018e+02
224             	3.09069754e+02
225             	3.09080242e+02
226             	3.09091706e+02
227             	3.09102599e+02
228             	3.09114257e+02
229             	3.09125782e+02
230             	3.09137270e+02
231             	3.09148266e+02
232             	3.09158754e+02
233             	3.09169201e+02
234             	3.09179472e+02
235             	3.09189037e+02
236             	3.09198333e+02
237             	3.09207538e+02
238             	3.09216481e+02
239             	3.09224739e+02
240             	3.09232507e+02
241             	3.09240147e+02
242             	3.09246401e+02
243             	3.09253100e+02
244             	3.09260038e+02
245             	3.09267704e+02
246             	3.09275946e+02
247             	3.09284550e+02
248             	3.09292988e+02
249             	3.09301657e+02
250             	3.09310426e+02
251             	3.09318811e+02
252             	3.09327479e+02
253             	3.09336291e+02
254             	3.09344254e+02
255             	3.09351530e+02
256             	3.09358034e+02
257             	3.09363788e+02
258             	3.09369364e+02
259             	3.09374948e+02
260             	3.09379988e+02
261             	3.09385595e+02
262             	3.09391701e+02
263             	3.09398356e+02
264             	3.09405961e+02
265             	3.09413488e+02
266             	3.09421676e+02
267             	3.09430380e+02
268             	3.09439072e+02
269             	3.09447466e+02
270             	3.09455276e+02
271             	3.09462798e+02
272             	3.09469958e+02
273             	3.09476834e+02
274             	3.09482911e+02
275             	3.09489885e+02
276             	3.09496277e+02
277             	3.09502976e+02
278             	3.09509839e+02
279             	3.09516473e+02
280             	3.09522826e+02
281             	3.09529049e+02
282             	3.09535062e+02
283             	3.09541475e+02
284             	3.09546938e+02
285             	3.09551039e+02
286             	3.09555476e+02
287             	3.09560317e+02
288             	3.09565694e+02
289             	3.09570589e+02
290             	3.09576761e+02
291             	3.09583207e+02
292             	3.09589691e+02
293             	3.09596155e+02
294             	3.09602256e+02
295             	3.09607957e+02
296             	3.09613003e+02
297             	3.09617737e+02
298             	3.09621957e+02
299             	3.09626216e+02
300             	3.09630042e+02
301             	3.09633682e+02
302             	3.09637620e+02
303             	3.09642034e+02
304             	3.09645835e+02
305             	3.09650550e+02
306             	3.09655399e+02
307             	3.09659590e+02
308             	3.09664614e+02
309             	3.09669867e+02
310             	3.09675161e+02
311             	3.09679695e+02
312             	3.09685267e+02
313             	3.09690058e+02
314             	3.09695184e+02
315             	3.09700567e+02
316             	3.09705429e+02
317             	3.09710071e+02
318             	3.09714514e+02
319             	3.09718748e+02
320             	3.09722800e+02
321             	3.09726670e+02
322             	3.09730663e+02
323             	3.09732945e+02
324             	3.09736260e+02
325             	3.09739206e+02
326             	3.09742666e+02
327             	3.09746024e+02
328             	3.09749857e+02
329             	3.09753949e+02
330             	3.09758368e+02
331             	3.09763298e+02
332             	3.09767481e+02
333             	3.09771018e+02
334             	3.09774067e+02
335             	3.09777133e+02
336             	3.09780200e+02
337             	3.09783393e+02
338             	3.09786229e+02
339             	3.09788810e+02
340             	3.09791585e+02
341             	3.09793575e+02
342             	3.09796269e+02
343             	3.09799522e+02
344             	3.09803341e+02
345             	3.09807599e+02
346             	3.09812147e+02
347             	3.09816982e+02
348             	3.09821778e+02
349             	3.09825032e+02
350             	3.09828355e+02
351             	3.09831845e+02
352             	3.09835052e+02
353             	3.09838085e+02
354             	3.09840964e+02
355             	3.09843658e+02
356             	3.09846118e+02
357             	3.09848328e+02
358             	3.09850544e+02
359             	3.09853097e+02
360             	3.09854820e+02
361             	3.09857261e+02
362             	3.09860465e+02
363             	3.09864011e+02
364             	3.09868301e+02
365             	3.09871554e+02
366             	3.09875548e+02
367             	3.09878266e+02
368             	3.09880645e+02
369             	3.09882791e+02
370             	3.09884052e+02
371             	3.09884905e+02
372             	3.09885738e+02
373             	3.09885425e+02
374             	3.09885903e+02
375             	3.09886782e+02
376             	3.09887866e+02
377             	3.09888332e+02
378             	3.09889360e+02
379             	3.09890708e+02
380             	3.09892542e+02
381             	3.09893602e+02
382             	3.09895003e+02
383             	3.09896829e+02
384             	3.09898964e+02
385             	3.09901521e+02
386             	3.09903558e+02
387             	3.09905350e+02
388             	3.09906776e+02
389             	3.09909264e+02
390             	3.09912874e+02
391             	3.09917267e+02
392             	3.09921193e+02
393             	3.09924862e+02
394             	3.09927988e+02
395             	3.09930374e+02
396             	3.09932498e+02
397             	3.09934380e+02
398             	3.09935713e+02
399             	3.09936545e+02
400             	3.09937605e+02
401             	3.09938452e+02
402             	3.09939471e+02
403             	3.09939580e+02
404             	3.09940741e+02
405             	3.09942324e+02
406             	3.09943510e+02
407             	3.09945189e+02
408             	3.09947270e+02
409             	3.09948958e+02
410             	3.09950580e+02
411             	3.09952300e+02
412             	3.09954137e+02
413             	3.09956078e+02
414             	3.09958094e+02
415             	3.09960482e+02
416             	3.09962818e+02
417             	3.09964255e+02
418             	3.09966003e+02
419             	3.09968199e+02
420             	3.09970436e+02
421             	3.09972451e+02
422             	3.09973641e+02
423             	3.09974344e+02
424             	3.09975102e+02
425             	3.09975005e+02
426             	3.09976135e+02
427             	3.09977280e+02
428             	3.09979525e+02
429             	3.09982357e+02
430             	3.09983255e+02
431             	3.09985526e+02
432             	3.09987309e+02
433             	3.09988849e+02
434             	3.09989788e+02
435             	3.09990312e+02
436             	3.09990393e+02
437             	3.09990096e+02
438             	3.09989590e+02
439             	3.09989014e+02
440             	3.09988497e+02
441             	3.09986994e+02
442             	3.09986940e+02
443             	3.09986085e+02
444             	3.09986599e+02
445             	3.09988272e+02
446             	3.09990555e+02
447             	3.09993045e+02
448             	3.09995338e+02
449             	3.09997158e+02
450             	3.09998509e+02
451             	3.09999870e+02
452             	3.10001143e+02
453             	3.10002468e+02
454             	3.10003547e+02
455             	3.10004264e+02
456             	3.10004711e+02
457             	3.10004755e+02
458             	3.10004663e+02
459             	3.10004328e+02
460             	3.10003793e+02
461             	3.10003255e+02
462             	3.10003127e+02
463             	3.10002046e+02
464             	3.10001774e+02
465             	3.10002264e+02
466             	3.10003473e+02
467             	3.10004698e+02
468             	3.10006441e+02
469             	3.10007455e+02
470             	3.10008924e+02
471             	3.10010829e+02
472             	3.10013011e+02
473             	3.10014880e+02
474             	3.10016969e+02
475             	3.10018949e+02
476             	3.10020700e+02
477             	3.10022175e+02
478             	3.10023420e+02
479             	3.10024318e+02
480             	3.10024881e+02
481             	3.10025192e+02
482             	3.10025514e+02
483             	3.10025906e+02
484             	3.10025074e+02
485             	3.10024913e+02
486             	3.10024526e+02
487             	3.10024687e+02
488             	3.10025592e+02
489             	3.10027220e+02
490             	3.10028863e+02
491             	3.10030572e+02
492             	3.10032419e+02
493             	3.10034543e+02
494             	3.10036169e+02
495             	3.10037199e+02
496             	3.10038400e+02
497             	3.10039173e+02
498             	3.10039431e+02
499             	3.10039664e+02
500             	3.10039981e+02
501             	3.10040478e+02
502             	3.10041247e+02
503             	3.10042345e+02
504             	3.10042500e+02
505             	3.10043503e+02
506             	3.10044656e+02
507             	3.10045678e+02
508             	3.10045816e+02
509             	3.10046516e+02
510             	3.10047302e+02
511             	3.10048009e+02
512             	3.10049024e+02
513             	3.10050522e+02
514             	3.10052721e+02
515             	3.10053671e+02
516             	3.10054959e+02
517             	3.10056006e+02
518             	3.10057072e+02
519             	3.10058112e+02
520             	3.10059074e+02
521             	3.10059993e+02
522             	3.10060334e+02
523             	3.10060811e+02
524             	3.10062164e+02
525             	3.10062119e+02
526             	3.10061989e+02
527             	3.10062000e+02
528             	3.10062138e+02
529             	3.10062691e+02
530             	3.10061719e+02
531             	3.10061974e+02
532             	3.10062856e+02
533             	3.10063954e+02
534             	3.10064935e+02
535             	3.10065201e+02
536             	3.10065508e+02
537             	3.10065620e+02
538             	3.10065519e+02
539             	3.10065230e+02
540             	3.10064841e+02
541             	3.10064466e+02
542             	3.10064178e+02
543             	3.10064151e+02
544             	3.10062442e+02
545             	3.10061745e+02
546             	3.10060557e+02
547             	3.10060383e+02
548             	3.10059793e+02
549             	3.10059775e+02
550             	3.10060333e+02
551             	3.10061451e+02
552             	3.10062485e+02
553             	3.10064044e+02
554             	3.10065418e+02
555             	3.10067017e+02
556             	3.10068706e+02
557             	3.10070375e+02
558             	3.10071643e+02
559             	3.10072903e+02
560             	3.10074142e+02
561             	3.10075310e+02
562             	3.10075877e+02
563             	3.10076495e+02
564             	3.10076954e+02
565             	3.10077205e+02
566             	3.10077454e+02
567             	3.10077700e+02
568             	3.10077288e+02
569             	3.10077461e+02
570             	3.10076927e+02
571             	3.10077205e+02
572             	3.10077874e+02
573             	3.10078597e+02
574             	3.10079173e+02
575             	3.10079693e+02
576             	3.10080401e+02
577             	3.10081369e+02
578             	3.10082540e+02
579             	3.10083823e+02
580             	3.10084813e+02
581             	3.10084802e+02
582             	3.10084569e+02
583             	3.10084090e+02
584             	3.10083463e+02
585             	3.10083342e+02
586             	3.10082818e+02
587             	3.10082379e+02
588             	3.10082128e+02
589             	3.10081953e+02
590             	3.10082276e+02
591             	3.10082451e+02
592             	3.10082659e+02
593             	3.10083455e+02
594             	3.10083802e+02
595             	3.10084158e+02
596             	3.10083900e+02
597             	3.10084299e+02
598             	3.10084361e+02
599             	3.10085494e+02
600             	3.10086071e+02
601             	3.10087034e+02
602             	3.10087699e+02
603             	3.10088310e+02
604             	3.10088874e+02
605             	3.10089431e+02
606             	3.10090113e+02
607             	3.10090689e+02
608             	3.10091643e+02
609             	3.10092191e+02
610             	3.10091214e+02
611             	3.10091237e+02
612             	3.10091255e+02
613             	3.10092235e+02
614             	3.10093298e+02
615             	3.10094056e+02
616             	3.10093894e+02
617             	3.10093979e+02
618             	3.10093985e+02
619             	3.10094016e+02
620             	3.10094190e+02
621             	3.10094609e+02
