# Region        : cellZone component_0
# Cells         : 113
# Volume        : 2.26156136e-01
# Time          	volAverage(T)
1               	3.00616120e+02
2               	3.01221362e+02
3               	3.01756249e+02
4               	3.02233978e+02
5               	3.02675163e+02
6               	3.03089418e+02
7               	3.03480932e+02
8               	3.03853793e+02
9               	3.04212418e+02
10              	3.04559817e+02
11              	3.04901907e+02
12              	3.05233679e+02
13              	3.05548743e+02
14              	3.05853804e+02
15              	3.06151013e+02
16              	3.06435215e+02
17              	3.06718722e+02
18              	3.07006770e+02
19              	3.07293299e+02
20              	3.07575934e+02
21              	3.07849100e+02
22              	3.08112501e+02
23              	3.08360489e+02
24              	3.08590415e+02
25              	3.08801996e+02
26              	3.09000899e+02
27              	3.09190403e+02
28              	3.09376242e+02
29              	3.09559559e+02
30              	3.09744200e+02
31              	3.09923615e+02
32              	3.10102651e+02
33              	3.10271692e+02
34              	3.10440546e+02
35              	3.10599877e+02
36              	3.10746671e+02
37              	3.10882725e+02
38              	3.11012424e+02
39              	3.11137929e+02
40              	3.11264387e+02
41              	3.11372746e+02
42              	3.11468371e+02
43              	3.11559108e+02
44              	3.11655840e+02
45              	3.11770750e+02
46              	3.11884669e+02
47              	3.11986244e+02
48              	3.12080010e+02
49              	3.12170532e+02
50              	3.12262231e+02
51              	3.12359180e+02
52              	3.12459499e+02
53              	3.12545240e+02
54              	3.12608878e+02
55              	3.12676989e+02
56              	3.12752767e+02
57              	3.12823712e+02
58              	3.12897359e+02
59              	3.12968306e+02
60              	3.13031558e+02
61              	3.13090964e+02
62              	3.13151290e+02
63              	3.13215018e+02
64              	3.13285816e+02
65              	3.13359598e+02
66              	3.13414166e+02
67              	3.13466152e+02
68              	3.13515152e+02
69              	3.13576380e+02
70              	3.13631123e+02
71              	3.13681306e+02
72              	3.13731525e+02
73              	3.13787587e+02
74              	3.13841034e+02
75              	3.13896730e+02
76              	3.13957330e+02
77              	3.14019111e+02
78              	3.14084130e+02
79              	3.14146396e+02
80              	3.14207212e+02
81              	3.14262701e+02
82              	3.14310755e+02
83              	3.14354028e+02
84              	3.14395101e+02
85              	3.14436229e+02
86              	3.14480939e+02
87              	3.14527452e+02
88              	3.14576180e+02
89              	3.14621259e+02
90              	3.14665188e+02
91              	3.14706232e+02
92              	3.14748979e+02
93              	3.14789908e+02
94              	3.14826194e+02
95              	3.14858295e+02
96              	3.14884547e+02
97              	3.14918062e+02
98              	3.14951090e+02
99              	3.14990656e+02
100             	3.15029705e+02
101             	3.15062653e+02
102             	3.15091120e+02
103             	3.15116128e+02
104             	3.15138349e+02
105             	3.15159148e+02
106             	3.15179812e+02
107             	3.15200364e+02
108             	3.15220660e+02
109             	3.15241081e+02
110             	3.15261939e+02
111             	3.15285279e+02
112             	3.15310060e+02
113             	3.15335980e+02
114             	3.15361456e+02
115             	3.15383483e+02
116             	3.15400319e+02
117             	3.15414056e+02
118             	3.15425772e+02
119             	3.15436310e+02
120             	3.15448052e+02
121             	3.15462798e+02
122             	3.15480282e+02
123             	3.15499312e+02
124             	3.15519070e+02
125             	3.15536242e+02
126             	3.15549971e+02
127             	3.15562264e+02
128             	3.15573773e+02
129             	3.15584966e+02
130             	3.15596289e+02
131             	3.15608347e+02
132             	3.15621220e+02
133             	3.15634516e+02
134             	3.15647675e+02
135             	3.15659698e+02
136             	3.15672194e+02
137             	3.15685470e+02
138             	3.15699067e+02
139             	3.15712390e+02
140             	3.15724486e+02
141             	3.15735544e+02
142             	3.15746375e+02
143             	3.15756402e+02
144             	3.15767688e+02
145             	3.15777167e+02
146             	3.15784326e+02
147             	3.15790538e+02
148             	3.15796581e+02
149             	3.15802704e+02
150             	3.15808977e+02
151             	3.15815232e+02
152             	3.15821361e+02
153             	3.15827783e+02
154             	3.15834888e+02
155             	3.15843131e+02
156             	3.15851626e+02
157             	3.15860088e+02
158             	3.15868312e+02
159             	3.15876052e+02
160             	3.15883616e+02
161             	3.15892484e+02
162             	3.15899371e+02
163             	3.15904221e+02
164             	3.15908122e+02
165             	3.15911603e+02
166             	3.15914947e+02
167             	3.15918034e+02
168             	3.15920943e+02
169             	3.15923942e+02
170             	3.15926309e+02
171             	3.15929106e+02
172             	3.15933800e+02
173             	3.15939617e+02
174             	3.15946211e+02
175             	3.15953273e+02
176             	3.15960624e+02
177             	3.15965663e+02
178             	3.15966545e+02
179             	3.15965311e+02
180             	3.15963601e+02
181             	3.15962494e+02
182             	3.15962958e+02
183             	3.15964630e+02
184             	3.15967151e+02
185             	3.15970182e+02
186             	3.15973328e+02
187             	3.15976275e+02
188             	3.15978659e+02
189             	3.15980579e+02
190             	3.15981722e+02
191             	3.15982441e+02
192             	3.15983369e+02
193             	3.15985213e+02
194             	3.15987609e+02
195             	3.15990038e+02
196             	3.15992315e+02
197             	3.15994504e+02
198             	3.15996932e+02
199             	3.15999420e+02
200             	3.16002225e+02
201             	3.16005184e+02
202             	3.16007857e+02
203             	3.16009941e+02
204             	3.16011331e+02
205             	3.16012159e+02
206             	3.16012855e+02
207             	3.16013753e+02
208             	3.16014954e+02
209             	3.16016403e+02
210             	3.16018060e+02
211             	3.16019912e+02
212             	3.16021650e+02
213             	3.16023350e+02
214             	3.16024585e+02
215             	3.16025455e+02
216             	3.16026046e+02
217             	3.16026404e+02
218             	3.16026565e+02
219             	3.16026524e+02
220             	3.16026202e+02
221             	3.16025963e+02
222             	3.16026088e+02
223             	3.16026532e+02
224             	3.16027273e+02
225             	3.16028306e+02
226             	3.16029570e+02
227             	3.16031042e+02
228             	3.16032369e+02
229             	3.16033004e+02
230             	3.16033074e+02
231             	3.16032669e+02
232             	3.16032625e+02
233             	3.16033167e+02
234             	3.16034130e+02
235             	3.16035446e+02
236             	3.16037007e+02
237             	3.16038699e+02
238             	3.16040432e+02
239             	3.16042149e+02
240             	3.16043843e+02
241             	3.16045487e+02
242             	3.16047340e+02
243             	3.16048654e+02
244             	3.16049565e+02
245             	3.16050178e+02
246             	3.16050599e+02
247             	3.16050917e+02
248             	3.16051195e+02
249             	3.16051465e+02
250             	3.16051730e+02
251             	3.16052040e+02
252             	3.16052303e+02
253             	3.16053065e+02
254             	3.16054084e+02
255             	3.16055207e+02
256             	3.16056323e+02
257             	3.16057279e+02
258             	3.16057982e+02
259             	3.16058416e+02
260             	3.16058590e+02
261             	3.16058566e+02
262             	3.16058375e+02
263             	3.16058032e+02
264             	3.16057580e+02
265             	3.16057072e+02
266             	3.16056685e+02
267             	3.16056660e+02
268             	3.16056731e+02
269             	3.16056849e+02
270             	3.16057044e+02
271             	3.16057317e+02
272             	3.16057584e+02
273             	3.16057802e+02
274             	3.16058031e+02
275             	3.16058309e+02
276             	3.16058651e+02
277             	3.16059058e+02
278             	3.16059369e+02
279             	3.16059575e+02
280             	3.16059657e+02
281             	3.16059690e+02
282             	3.16059853e+02
283             	3.16060278e+02
284             	3.16061095e+02
285             	3.16062171e+02
286             	3.16063382e+02
287             	3.16064674e+02
288             	3.16065958e+02
289             	3.16067160e+02
290             	3.16068205e+02
291             	3.16069089e+02
292             	3.16069867e+02
293             	3.16070573e+02
294             	3.16071231e+02
295             	3.16071853e+02
296             	3.16072408e+02
297             	3.16072945e+02
298             	3.16073492e+02
299             	3.16073999e+02
300             	3.16074484e+02
301             	3.16074952e+02
302             	3.16075468e+02
303             	3.16075741e+02
304             	3.16075853e+02
305             	3.16075703e+02
306             	3.16075397e+02
307             	3.16074983e+02
308             	3.16074499e+02
309             	3.16073978e+02
310             	3.16073418e+02
311             	3.16072833e+02
312             	3.16072250e+02
313             	3.16071663e+02
314             	3.16071106e+02
315             	3.16070603e+02
316             	3.16070129e+02
317             	3.16069505e+02
318             	3.16069284e+02
319             	3.16069429e+02
320             	3.16069933e+02
321             	3.16070574e+02
322             	3.16071360e+02
323             	3.16072239e+02
324             	3.16073008e+02
325             	3.16073769e+02
326             	3.16074590e+02
327             	3.16075501e+02
328             	3.16076498e+02
329             	3.16077554e+02
330             	3.16078639e+02
331             	3.16079722e+02
332             	3.16080731e+02
333             	3.16081692e+02
334             	3.16082575e+02
335             	3.16083398e+02
336             	3.16084117e+02
337             	3.16084721e+02
338             	3.16085224e+02
339             	3.16085637e+02
340             	3.16085960e+02
341             	3.16086203e+02
342             	3.16086403e+02
343             	3.16086389e+02
344             	3.16086211e+02
345             	3.16085933e+02
346             	3.16085615e+02
347             	3.16085306e+02
348             	3.16084947e+02
349             	3.16084521e+02
350             	3.16083989e+02
351             	3.16083375e+02
352             	3.16082691e+02
353             	3.16081966e+02
354             	3.16081236e+02
355             	3.16080573e+02
356             	3.16080001e+02
357             	3.16079501e+02
358             	3.16079049e+02
359             	3.16078619e+02
360             	3.16078167e+02
361             	3.16077700e+02
362             	3.16077200e+02
363             	3.16076653e+02
364             	3.16076107e+02
365             	3.16075567e+02
366             	3.16075030e+02
367             	3.16074525e+02
368             	3.16074106e+02
369             	3.16073802e+02
370             	3.16073637e+02
371             	3.16073635e+02
372             	3.16073815e+02
373             	3.16074162e+02
374             	3.16074659e+02
375             	3.16075277e+02
376             	3.16075981e+02
377             	3.16076747e+02
378             	3.16077597e+02
379             	3.16078380e+02
380             	3.16079118e+02
381             	3.16079843e+02
382             	3.16080559e+02
383             	3.16081250e+02
384             	3.16081896e+02
385             	3.16082482e+02
386             	3.16083010e+02
387             	3.16083481e+02
388             	3.16083898e+02
389             	3.16084224e+02
390             	3.16084423e+02
391             	3.16084481e+02
392             	3.16084398e+02
393             	3.16084178e+02
394             	3.16083831e+02
395             	3.16083372e+02
396             	3.16082823e+02
397             	3.16082218e+02
398             	3.16081592e+02
399             	3.16080967e+02
400             	3.16080302e+02
401             	3.16079677e+02
402             	3.16079094e+02
403             	3.16078542e+02
404             	3.16078015e+02
405             	3.16077504e+02
406             	3.16076990e+02
407             	3.16076479e+02
408             	3.16075989e+02
409             	3.16075564e+02
410             	3.16075256e+02
411             	3.16075059e+02
412             	3.16074966e+02
413             	3.16074966e+02
414             	3.16075047e+02
415             	3.16075197e+02
416             	3.16075404e+02
417             	3.16075652e+02
418             	3.16075944e+02
419             	3.16076279e+02
420             	3.16076655e+02
421             	3.16077083e+02
422             	3.16077582e+02
423             	3.16078164e+02
424             	3.16078833e+02
425             	3.16079608e+02
426             	3.16080343e+02
427             	3.16081080e+02
428             	3.16081833e+02
429             	3.16082477e+02
430             	3.16083024e+02
431             	3.16083483e+02
432             	3.16083781e+02
433             	3.16083943e+02
434             	3.16084056e+02
435             	3.16084087e+02
436             	3.16083994e+02
437             	3.16083756e+02
438             	3.16083356e+02
439             	3.16082804e+02
440             	3.16082141e+02
441             	3.16081422e+02
442             	3.16080684e+02
443             	3.16079932e+02
444             	3.16079121e+02
445             	3.16078355e+02
446             	3.16077619e+02
447             	3.16076883e+02
448             	3.16076120e+02
449             	3.16075329e+02
450             	3.16074576e+02
451             	3.16073860e+02
452             	3.16073184e+02
453             	3.16072594e+02
454             	3.16072142e+02
455             	3.16071812e+02
456             	3.16071586e+02
457             	3.16071456e+02
458             	3.16071413e+02
459             	3.16071453e+02
460             	3.16071595e+02
461             	3.16071862e+02
462             	3.16072260e+02
463             	3.16072765e+02
464             	3.16073360e+02
465             	3.16074026e+02
466             	3.16074759e+02
467             	3.16075560e+02
468             	3.16076438e+02
469             	3.16077401e+02
470             	3.16078461e+02
471             	3.16079570e+02
472             	3.16080591e+02
473             	3.16081572e+02
474             	3.16082573e+02
475             	3.16083578e+02
476             	3.16084470e+02
477             	3.16085273e+02
478             	3.16085938e+02
479             	3.16086361e+02
480             	3.16086551e+02
481             	3.16086542e+02
482             	3.16086372e+02
483             	3.16086069e+02
484             	3.16085631e+02
485             	3.16085076e+02
486             	3.16084448e+02
487             	3.16083772e+02
488             	3.16083013e+02
489             	3.16082266e+02
490             	3.16081454e+02
491             	3.16080630e+02
492             	3.16079950e+02
493             	3.16079351e+02
494             	3.16078775e+02
495             	3.16078191e+02
496             	3.16077594e+02
497             	3.16077054e+02
498             	3.16076644e+02
499             	3.16076372e+02
500             	3.16076277e+02
501             	3.16076375e+02
502             	3.16076670e+02
503             	3.16077162e+02
504             	3.16077836e+02
505             	3.16078673e+02
506             	3.16079631e+02
507             	3.16080661e+02
508             	3.16081743e+02
509             	3.16082877e+02
510             	3.16084063e+02
511             	3.16085296e+02
512             	3.16086566e+02
513             	3.16087857e+02
514             	3.16089047e+02
515             	3.16090121e+02
516             	3.16091089e+02
517             	3.16091969e+02
518             	3.16092773e+02
519             	3.16093499e+02
520             	3.16094058e+02
521             	3.16094486e+02
522             	3.16094780e+02
523             	3.16094917e+02
524             	3.16094903e+02
525             	3.16094766e+02
526             	3.16094547e+02
527             	3.16094276e+02
528             	3.16093972e+02
529             	3.16093632e+02
530             	3.16093224e+02
531             	3.16092696e+02
532             	3.16091953e+02
533             	3.16091058e+02
534             	3.16090008e+02
535             	3.16088851e+02
536             	3.16087577e+02
537             	3.16086246e+02
538             	3.16084883e+02
539             	3.16083543e+02
540             	3.16082225e+02
541             	3.16081255e+02
542             	3.16080596e+02
543             	3.16080193e+02
544             	3.16080016e+02
545             	3.16080070e+02
546             	3.16080356e+02
547             	3.16080860e+02
548             	3.16081547e+02
549             	3.16082289e+02
550             	3.16083055e+02
551             	3.16083888e+02
552             	3.16084836e+02
553             	3.16085925e+02
554             	3.16087143e+02
555             	3.16088472e+02
556             	3.16089820e+02
557             	3.16091155e+02
558             	3.16092451e+02
559             	3.16093631e+02
560             	3.16094716e+02
561             	3.16095729e+02
562             	3.16096643e+02
563             	3.16097410e+02
564             	3.16098044e+02
565             	3.16098548e+02
566             	3.16098971e+02
567             	3.16099203e+02
568             	3.16099168e+02
569             	3.16098785e+02
570             	3.16098056e+02
571             	3.16097033e+02
572             	3.16095812e+02
573             	3.16094468e+02
574             	3.16093064e+02
575             	3.16091596e+02
576             	3.16090323e+02
577             	3.16089239e+02
578             	3.16088304e+02
579             	3.16087446e+02
580             	3.16086650e+02
581             	3.16085880e+02
582             	3.16085113e+02
583             	3.16084351e+02
584             	3.16083641e+02
585             	3.16083009e+02
586             	3.16082393e+02
587             	3.16081855e+02
588             	3.16081467e+02
589             	3.16081240e+02
590             	3.16081155e+02
591             	3.16081181e+02
592             	3.16081293e+02
593             	3.16081476e+02
594             	3.16081722e+02
595             	3.16082031e+02
596             	3.16082417e+02
597             	3.16082883e+02
598             	3.16083435e+02
599             	3.16084071e+02
600             	3.16084786e+02
601             	3.16085597e+02
602             	3.16086495e+02
603             	3.16087492e+02
604             	3.16088527e+02
605             	3.16089501e+02
606             	3.16090221e+02
607             	3.16090770e+02
608             	3.16091205e+02
609             	3.16091510e+02
610             	3.16091626e+02
611             	3.16091586e+02
612             	3.16091483e+02
613             	3.16091313e+02
614             	3.16090930e+02
615             	3.16090357e+02
616             	3.16089583e+02
617             	3.16088870e+02
618             	3.16088173e+02
619             	3.16087360e+02
620             	3.16086381e+02
621             	3.16085247e+02
