# Region        : cellZone component_4
# Cells         : 257
# Volume        : 4.81329185e-01
# Time          	volAverage(T)
1               	3.00246459e+02
2               	3.00490637e+02
3               	3.00720606e+02
4               	3.00941610e+02
5               	3.01158050e+02
6               	3.01371586e+02
7               	3.01582568e+02
8               	3.01791182e+02
9               	3.01998925e+02
10              	3.02204243e+02
11              	3.02406993e+02
12              	3.02607758e+02
13              	3.02805542e+02
14              	3.03001959e+02
15              	3.03195412e+02
16              	3.03386040e+02
17              	3.03574288e+02
18              	3.03759552e+02
19              	3.03940426e+02
20              	3.04114519e+02
21              	3.04287006e+02
22              	3.04457787e+02
23              	3.04627433e+02
24              	3.04796022e+02
25              	3.04962318e+02
26              	3.05124905e+02
27              	3.05284408e+02
28              	3.05440601e+02
29              	3.05594737e+02
30              	3.05745357e+02
31              	3.05894884e+02
32              	3.06044887e+02
33              	3.06193352e+02
34              	3.06338939e+02
35              	3.06476063e+02
36              	3.06604473e+02
37              	3.06725820e+02
38              	3.06841890e+02
39              	3.06963805e+02
40              	3.07085766e+02
41              	3.07200846e+02
42              	3.07311337e+02
43              	3.07416987e+02
44              	3.07522498e+02
45              	3.07627942e+02
46              	3.07733930e+02
47              	3.07839729e+02
48              	3.07945382e+02
49              	3.08051682e+02
50              	3.08162299e+02
51              	3.08270248e+02
52              	3.08374562e+02
53              	3.08483300e+02
54              	3.08597173e+02
55              	3.08710788e+02
56              	3.08822667e+02
57              	3.08939857e+02
58              	3.09055535e+02
59              	3.09167846e+02
60              	3.09276568e+02
61              	3.09383249e+02
62              	3.09486159e+02
63              	3.09586549e+02
64              	3.09682048e+02
65              	3.09775221e+02
66              	3.09867861e+02
67              	3.09954762e+02
68              	3.10045205e+02
69              	3.10137263e+02
70              	3.10231555e+02
71              	3.10321723e+02
72              	3.10407627e+02
73              	3.10488963e+02
74              	3.10572510e+02
75              	3.10656427e+02
76              	3.10738231e+02
77              	3.10819016e+02
78              	3.10899422e+02
79              	3.10977092e+02
80              	3.11053544e+02
81              	3.11128385e+02
82              	3.11198222e+02
83              	3.11269848e+02
84              	3.11342164e+02
85              	3.11415774e+02
86              	3.11491561e+02
87              	3.11568978e+02
88              	3.11648858e+02
89              	3.11730870e+02
90              	3.11813550e+02
91              	3.11895126e+02
92              	3.11974962e+02
93              	3.12052751e+02
94              	3.12129421e+02
95              	3.12204075e+02
96              	3.12277242e+02
97              	3.12347529e+02
98              	3.12415038e+02
99              	3.12481371e+02
100             	3.12546377e+02
101             	3.12610838e+02
102             	3.12674633e+02
103             	3.12737718e+02
104             	3.12799763e+02
105             	3.12863589e+02
106             	3.12927578e+02
107             	3.12992348e+02
108             	3.13058302e+02
109             	3.13125061e+02
110             	3.13193146e+02
111             	3.13262357e+02
112             	3.13332180e+02
113             	3.13401204e+02
114             	3.13468971e+02
115             	3.13535034e+02
116             	3.13598904e+02
117             	3.13660570e+02
118             	3.13720393e+02
119             	3.13778295e+02
120             	3.13833968e+02
121             	3.13887744e+02
122             	3.13940133e+02
123             	3.13991188e+02
124             	3.14040891e+02
125             	3.14089693e+02
126             	3.14137940e+02
127             	3.14187178e+02
128             	3.14236275e+02
129             	3.14285525e+02
130             	3.14334584e+02
131             	3.14383173e+02
132             	3.14431935e+02
133             	3.14480000e+02
134             	3.14528013e+02
135             	3.14576393e+02
136             	3.14624928e+02
137             	3.14673343e+02
138             	3.14721276e+02
139             	3.14767512e+02
140             	3.14813153e+02
141             	3.14858499e+02
142             	3.14903518e+02
143             	3.14948273e+02
144             	3.14992670e+02
145             	3.15036423e+02
146             	3.15080180e+02
147             	3.15123533e+02
148             	3.15166429e+02
149             	3.15208674e+02
150             	3.15250657e+02
151             	3.15292484e+02
152             	3.15334330e+02
153             	3.15376360e+02
154             	3.15418532e+02
155             	3.15461368e+02
156             	3.15504834e+02
157             	3.15548931e+02
158             	3.15593230e+02
159             	3.15637302e+02
160             	3.15679955e+02
161             	3.15722767e+02
162             	3.15763948e+02
163             	3.15804532e+02
164             	3.15844959e+02
165             	3.15884873e+02
166             	3.15923807e+02
167             	3.15962458e+02
168             	3.16000398e+02
169             	3.16037898e+02
170             	3.16076115e+02
171             	3.16114435e+02
172             	3.16153006e+02
173             	3.16191796e+02
174             	3.16230583e+02
175             	3.16270128e+02
176             	3.16310667e+02
177             	3.16349348e+02
178             	3.16388585e+02
179             	3.16428678e+02
180             	3.16468430e+02
181             	3.16507798e+02
182             	3.16546665e+02
183             	3.16583839e+02
184             	3.16620841e+02
185             	3.16657431e+02
186             	3.16693829e+02
187             	3.16729757e+02
188             	3.16765141e+02
189             	3.16800240e+02
190             	3.16834517e+02
191             	3.16868212e+02
192             	3.16901964e+02
193             	3.16935791e+02
194             	3.16969474e+02
195             	3.17003296e+02
196             	3.17037179e+02
197             	3.17071528e+02
198             	3.17105939e+02
199             	3.17140154e+02
200             	3.17174490e+02
201             	3.17208754e+02
202             	3.17243229e+02
203             	3.17276924e+02
204             	3.17309759e+02
205             	3.17342146e+02
206             	3.17374544e+02
207             	3.17407036e+02
208             	3.17438491e+02
209             	3.17469258e+02
210             	3.17499871e+02
211             	3.17530299e+02
212             	3.17560445e+02
213             	3.17590811e+02
214             	3.17620340e+02
215             	3.17650109e+02
216             	3.17680024e+02
217             	3.17710192e+02
218             	3.17740381e+02
219             	3.17770469e+02
220             	3.17800939e+02
221             	3.17831636e+02
222             	3.17862122e+02
223             	3.17892942e+02
224             	3.17923386e+02
225             	3.17953447e+02
226             	3.17983720e+02
227             	3.18013639e+02
228             	3.18043319e+02
229             	3.18072629e+02
230             	3.18101186e+02
231             	3.18129309e+02
232             	3.18157349e+02
233             	3.18184602e+02
234             	3.18211278e+02
235             	3.18238107e+02
236             	3.18264497e+02
237             	3.18290276e+02
238             	3.18316147e+02
239             	3.18341536e+02
240             	3.18366477e+02
241             	3.18391449e+02
242             	3.18415910e+02
243             	3.18439980e+02
244             	3.18464136e+02
245             	3.18487926e+02
246             	3.18511609e+02
247             	3.18535037e+02
248             	3.18558053e+02
249             	3.18580618e+02
250             	3.18603045e+02
251             	3.18625054e+02
252             	3.18646783e+02
253             	3.18667786e+02
254             	3.18688350e+02
255             	3.18709130e+02
256             	3.18729333e+02
257             	3.18749113e+02
258             	3.18769011e+02
259             	3.18788470e+02
260             	3.18807451e+02
261             	3.18826395e+02
262             	3.18844710e+02
263             	3.18862842e+02
264             	3.18881084e+02
265             	3.18899255e+02
266             	3.18917326e+02
267             	3.18935388e+02
268             	3.18953507e+02
269             	3.18971674e+02
270             	3.18989422e+02
271             	3.19006745e+02
272             	3.19024135e+02
273             	3.19041065e+02
274             	3.19057716e+02
275             	3.19074650e+02
276             	3.19091218e+02
277             	3.19107648e+02
278             	3.19124466e+02
279             	3.19140938e+02
280             	3.19157269e+02
281             	3.19173701e+02
282             	3.19189597e+02
283             	3.19205313e+02
284             	3.19221282e+02
285             	3.19237030e+02
286             	3.19252661e+02
287             	3.19268036e+02
288             	3.19283095e+02
289             	3.19298190e+02
290             	3.19313223e+02
291             	3.19328167e+02
292             	3.19342965e+02
293             	3.19357566e+02
294             	3.19372093e+02
295             	3.19386533e+02
296             	3.19400840e+02
297             	3.19414898e+02
298             	3.19428763e+02
299             	3.19442342e+02
300             	3.19455735e+02
301             	3.19468864e+02
302             	3.19482008e+02
303             	3.19495729e+02
304             	3.19508899e+02
305             	3.19521858e+02
306             	3.19535100e+02
307             	3.19547952e+02
308             	3.19560645e+02
309             	3.19573562e+02
310             	3.19586316e+02
311             	3.19599059e+02
312             	3.19611593e+02
313             	3.19624240e+02
314             	3.19636675e+02
315             	3.19649163e+02
316             	3.19661925e+02
317             	3.19674402e+02
318             	3.19686539e+02
319             	3.19699270e+02
320             	3.19712026e+02
321             	3.19724805e+02
322             	3.19737577e+02
323             	3.19750150e+02
324             	3.19762448e+02
325             	3.19774354e+02
326             	3.19786570e+02
327             	3.19797958e+02
328             	3.19809157e+02
329             	3.19820234e+02
330             	3.19831624e+02
331             	3.19842890e+02
332             	3.19854171e+02
333             	3.19865569e+02
334             	3.19876534e+02
335             	3.19887505e+02
336             	3.19898913e+02
337             	3.19910253e+02
338             	3.19921741e+02
339             	3.19932888e+02
340             	3.19944452e+02
341             	3.19955613e+02
342             	3.19967998e+02
343             	3.19979635e+02
344             	3.19992122e+02
345             	3.20003978e+02
346             	3.20016330e+02
347             	3.20027622e+02
348             	3.20039609e+02
349             	3.20050561e+02
350             	3.20061768e+02
351             	3.20072320e+02
352             	3.20083301e+02
353             	3.20093371e+02
354             	3.20103562e+02
355             	3.20113581e+02
356             	3.20122566e+02
357             	3.20132051e+02
358             	3.20141464e+02
359             	3.20149930e+02
360             	3.20159008e+02
361             	3.20167388e+02
362             	3.20176269e+02
363             	3.20184875e+02
364             	3.20194007e+02
365             	3.20202696e+02
366             	3.20212483e+02
367             	3.20221573e+02
368             	3.20230969e+02
369             	3.20241035e+02
370             	3.20251176e+02
371             	3.20261359e+02
372             	3.20272069e+02
373             	3.20282741e+02
374             	3.20293412e+02
375             	3.20304504e+02
376             	3.20315363e+02
377             	3.20326243e+02
378             	3.20337259e+02
379             	3.20347866e+02
380             	3.20358207e+02
381             	3.20368588e+02
382             	3.20378426e+02
383             	3.20388046e+02
384             	3.20397699e+02
385             	3.20406925e+02
386             	3.20415825e+02
387             	3.20424933e+02
388             	3.20433724e+02
389             	3.20442388e+02
390             	3.20451310e+02
391             	3.20460106e+02
392             	3.20468850e+02
393             	3.20477843e+02
394             	3.20486761e+02
395             	3.20495639e+02
396             	3.20504619e+02
397             	3.20513577e+02
398             	3.20522452e+02
399             	3.20531231e+02
400             	3.20539884e+02
401             	3.20548482e+02
402             	3.20557003e+02
403             	3.20565441e+02
404             	3.20573800e+02
405             	3.20582070e+02
406             	3.20590261e+02
407             	3.20598374e+02
408             	3.20606404e+02
409             	3.20614345e+02
410             	3.20622206e+02
411             	3.20629989e+02
412             	3.20637693e+02
413             	3.20645318e+02
414             	3.20652874e+02
415             	3.20660355e+02
416             	3.20667755e+02
417             	3.20675088e+02
418             	3.20682352e+02
419             	3.20689545e+02
420             	3.20696670e+02
421             	3.20703728e+02
422             	3.20710725e+02
423             	3.20717654e+02
424             	3.20724524e+02
425             	3.20731336e+02
426             	3.20738096e+02
427             	3.20744799e+02
428             	3.20751446e+02
429             	3.20758042e+02
430             	3.20764580e+02
431             	3.20771062e+02
432             	3.20777490e+02
433             	3.20783861e+02
434             	3.20790175e+02
435             	3.20796433e+02
436             	3.20802637e+02
437             	3.20808787e+02
438             	3.20814880e+02
439             	3.20820919e+02
440             	3.20826900e+02
441             	3.20832805e+02
442             	3.20838671e+02
443             	3.20844488e+02
444             	3.20850247e+02
445             	3.20855948e+02
446             	3.20861590e+02
447             	3.20867173e+02
448             	3.20872701e+02
449             	3.20878170e+02
450             	3.20883590e+02
451             	3.20888956e+02
452             	3.20894267e+02
453             	3.20899514e+02
454             	3.20904713e+02
455             	3.20909863e+02
456             	3.20914965e+02
457             	3.20920017e+02
458             	3.20925022e+02
459             	3.20929981e+02
460             	3.20934895e+02
461             	3.20939765e+02
462             	3.20944595e+02
463             	3.20949380e+02
464             	3.20954129e+02
465             	3.20958842e+02
466             	3.20963514e+02
467             	3.20968148e+02
468             	3.20972744e+02
469             	3.20977301e+02
470             	3.20981818e+02
471             	3.20986298e+02
472             	3.20990741e+02
473             	3.20995123e+02
474             	3.20999486e+02
475             	3.21003823e+02
476             	3.21008120e+02
477             	3.21012382e+02
478             	3.21016605e+02
479             	3.21020784e+02
480             	3.21024925e+02
481             	3.21029029e+02
482             	3.21033092e+02
483             	3.21037118e+02
484             	3.21041094e+02
485             	3.21045032e+02
486             	3.21048938e+02
487             	3.21052805e+02
488             	3.21056634e+02
489             	3.21060427e+02
490             	3.21064501e+02
491             	3.21068681e+02
492             	3.21073228e+02
493             	3.21078096e+02
494             	3.21082958e+02
495             	3.21087736e+02
496             	3.21092410e+02
497             	3.21096840e+02
498             	3.21100835e+02
499             	3.21105576e+02
500             	3.21109047e+02
501             	3.21113209e+02
502             	3.21116711e+02
503             	3.21120939e+02
504             	3.21124326e+02
505             	3.21128765e+02
506             	3.21132483e+02
507             	3.21137009e+02
508             	3.21140877e+02
509             	3.21145586e+02
510             	3.21149193e+02
511             	3.21153740e+02
512             	3.21157484e+02
513             	3.21161833e+02
514             	3.21165352e+02
515             	3.21169701e+02
516             	3.21172938e+02
517             	3.21176925e+02
518             	3.21179803e+02
519             	3.21182651e+02
520             	3.21185404e+02
521             	3.21188091e+02
522             	3.21190509e+02
523             	3.21192717e+02
524             	3.21194735e+02
525             	3.21196427e+02
526             	3.21197902e+02
527             	3.21198992e+02
528             	3.21199668e+02
529             	3.21200026e+02
530             	3.21200003e+02
531             	3.21199633e+02
532             	3.21199874e+02
533             	3.21198903e+02
534             	3.21198137e+02
535             	3.21197411e+02
536             	3.21196316e+02
537             	3.21195029e+02
538             	3.21193628e+02
539             	3.21192136e+02
540             	3.21190619e+02
541             	3.21189083e+02
542             	3.21187613e+02
543             	3.21186254e+02
544             	3.21184931e+02
545             	3.21183659e+02
546             	3.21182418e+02
547             	3.21181193e+02
548             	3.21179991e+02
549             	3.21178871e+02
550             	3.21177813e+02
551             	3.21176799e+02
552             	3.21175825e+02
553             	3.21174884e+02
554             	3.21173976e+02
555             	3.21173103e+02
556             	3.21172268e+02
557             	3.21171478e+02
558             	3.21170728e+02
559             	3.21170025e+02
560             	3.21169370e+02
561             	3.21168757e+02
562             	3.21168194e+02
563             	3.21167685e+02
564             	3.21167229e+02
565             	3.21166825e+02
566             	3.21166485e+02
567             	3.21166214e+02
568             	3.21166023e+02
569             	3.21165911e+02
570             	3.21165881e+02
571             	3.21165930e+02
572             	3.21166058e+02
573             	3.21166257e+02
574             	3.21166514e+02
575             	3.21166814e+02
576             	3.21167141e+02
577             	3.21167487e+02
578             	3.21167845e+02
579             	3.21168210e+02
580             	3.21168583e+02
581             	3.21168954e+02
582             	3.21169343e+02
583             	3.21169720e+02
584             	3.21170076e+02
585             	3.21170397e+02
586             	3.21170675e+02
587             	3.21170922e+02
588             	3.21171129e+02
589             	3.21171312e+02
590             	3.21171497e+02
591             	3.21171648e+02
592             	3.21171747e+02
593             	3.21171794e+02
594             	3.21171796e+02
595             	3.21171773e+02
596             	3.21171742e+02
597             	3.21171695e+02
598             	3.21171636e+02
599             	3.21171569e+02
600             	3.21171493e+02
601             	3.21171414e+02
602             	3.21171312e+02
603             	3.21171192e+02
604             	3.21171066e+02
605             	3.21170946e+02
606             	3.21170837e+02
607             	3.21170735e+02
608             	3.21170643e+02
609             	3.21170561e+02
610             	3.21170484e+02
611             	3.21170406e+02
612             	3.21170327e+02
613             	3.21170243e+02
614             	3.21170150e+02
615             	3.21170044e+02
616             	3.21169932e+02
617             	3.21169820e+02
618             	3.21169702e+02
619             	3.21169583e+02
620             	3.21169460e+02
621             	3.21169335e+02
