# Region        : cellZone component_0
# Cells         : 112
# Volume        : 2.08587899e-01
# Time          	volAverage(T)
1               	3.00455818e+02
2               	3.00906955e+02
3               	3.01329263e+02
4               	3.01734774e+02
5               	3.02132286e+02
6               	3.02523977e+02
7               	3.02914152e+02
8               	3.03303247e+02
9               	3.03688288e+02
10              	3.04064940e+02
11              	3.04427633e+02
12              	3.04782783e+02
13              	3.05135524e+02
14              	3.05488532e+02
15              	3.05843137e+02
16              	3.06200265e+02
17              	3.06552284e+02
18              	3.06901539e+02
19              	3.07249094e+02
20              	3.07598590e+02
21              	3.07947660e+02
22              	3.08290104e+02
23              	3.08625984e+02
24              	3.08953354e+02
25              	3.09273820e+02
26              	3.09602777e+02
27              	3.09917361e+02
28              	3.10209571e+02
29              	3.10489364e+02
30              	3.10767469e+02
31              	3.11029251e+02
32              	3.11295735e+02
33              	3.11565278e+02
34              	3.11846466e+02
35              	3.12120859e+02
36              	3.12388640e+02
37              	3.12650929e+02
38              	3.12916251e+02
39              	3.13173577e+02
40              	3.13436059e+02
41              	3.13682567e+02
42              	3.13922368e+02
43              	3.14136402e+02
44              	3.14352400e+02
45              	3.14564504e+02
46              	3.14778042e+02
47              	3.14988171e+02
48              	3.15185439e+02
49              	3.15384589e+02
50              	3.15592859e+02
51              	3.15806137e+02
52              	3.16004326e+02
53              	3.16178229e+02
54              	3.16336648e+02
55              	3.16486051e+02
56              	3.16649577e+02
57              	3.16808008e+02
58              	3.16958936e+02
59              	3.17104553e+02
60              	3.17250065e+02
61              	3.17402212e+02
62              	3.17564024e+02
63              	3.17689379e+02
64              	3.17780753e+02
65              	3.17859803e+02
66              	3.17933723e+02
67              	3.18033298e+02
68              	3.18130378e+02
69              	3.18221760e+02
70              	3.18312230e+02
71              	3.18400098e+02
72              	3.18498798e+02
73              	3.18609885e+02
74              	3.18750159e+02
75              	3.18853876e+02
76              	3.18913530e+02
77              	3.18930265e+02
78              	3.18946361e+02
79              	3.18976807e+02
80              	3.19027482e+02
81              	3.19105877e+02
82              	3.19178091e+02
83              	3.19267912e+02
84              	3.19351892e+02
85              	3.19452965e+02
86              	3.19563170e+02
87              	3.19663856e+02
88              	3.19755671e+02
89              	3.19848454e+02
90              	3.19952134e+02
91              	3.20050602e+02
92              	3.20138674e+02
93              	3.20220512e+02
94              	3.20298885e+02
95              	3.20377581e+02
96              	3.20464624e+02
97              	3.20547536e+02
98              	3.20620756e+02
99              	3.20684478e+02
100             	3.20751372e+02
101             	3.20805993e+02
102             	3.20872172e+02
103             	3.20934296e+02
104             	3.21008373e+02
105             	3.21074142e+02
106             	3.21148800e+02
107             	3.21226439e+02
108             	3.21305919e+02
109             	3.21390421e+02
110             	3.21473436e+02
111             	3.21552415e+02
112             	3.21625512e+02
113             	3.21686226e+02
114             	3.21738588e+02
115             	3.21796791e+02
116             	3.21854661e+02
117             	3.21911437e+02
118             	3.21968643e+02
119             	3.22026503e+02
120             	3.22089072e+02
121             	3.22152582e+02
122             	3.22216845e+02
123             	3.22285034e+02
124             	3.22351456e+02
125             	3.22418409e+02
126             	3.22466184e+02
127             	3.22514547e+02
128             	3.22569791e+02
129             	3.22626636e+02
130             	3.22677414e+02
131             	3.22731657e+02
132             	3.22780261e+02
133             	3.22832749e+02
134             	3.22889327e+02
135             	3.22945831e+02
136             	3.22994907e+02
137             	3.23034531e+02
138             	3.23075572e+02
139             	3.23121106e+02
140             	3.23169966e+02
141             	3.23217631e+02
142             	3.23258015e+02
143             	3.23299186e+02
144             	3.23338682e+02
145             	3.23379649e+02
146             	3.23420046e+02
147             	3.23461169e+02
148             	3.23499969e+02
149             	3.23540445e+02
150             	3.23583114e+02
151             	3.23626531e+02
152             	3.23667043e+02
153             	3.23704982e+02
154             	3.23742218e+02
155             	3.23768369e+02
156             	3.23798514e+02
157             	3.23826749e+02
158             	3.23854714e+02
159             	3.23882544e+02
160             	3.23911649e+02
161             	3.23941373e+02
162             	3.23972078e+02
163             	3.24003628e+02
164             	3.24034597e+02
165             	3.24067641e+02
166             	3.24103323e+02
167             	3.24137394e+02
168             	3.24167656e+02
169             	3.24194307e+02
170             	3.24213986e+02
171             	3.24233367e+02
172             	3.24254789e+02
173             	3.24278645e+02
174             	3.24303290e+02
175             	3.24327589e+02
176             	3.24352979e+02
177             	3.24376792e+02
178             	3.24405751e+02
179             	3.24436159e+02
180             	3.24463144e+02
181             	3.24488552e+02
182             	3.24509449e+02
183             	3.24533400e+02
184             	3.24556103e+02
185             	3.24579050e+02
186             	3.24601161e+02
187             	3.24622135e+02
188             	3.24641831e+02
189             	3.24660508e+02
190             	3.24681306e+02
191             	3.24702395e+02
192             	3.24725519e+02
193             	3.24746416e+02
194             	3.24766794e+02
195             	3.24787343e+02
196             	3.24806509e+02
197             	3.24827525e+02
198             	3.24841995e+02
199             	3.24858986e+02
200             	3.24877955e+02
201             	3.24896637e+02
202             	3.24914889e+02
203             	3.24935057e+02
204             	3.24953433e+02
205             	3.24970893e+02
206             	3.24989200e+02
207             	3.25008502e+02
208             	3.25027153e+02
209             	3.25045272e+02
210             	3.25064064e+02
211             	3.25083058e+02
212             	3.25099560e+02
213             	3.25114207e+02
214             	3.25128347e+02
215             	3.25143780e+02
216             	3.25158949e+02
217             	3.25175769e+02
218             	3.25190348e+02
219             	3.25203905e+02
220             	3.25217325e+02
221             	3.25230813e+02
222             	3.25244059e+02
223             	3.25256943e+02
224             	3.25270307e+02
225             	3.25283552e+02
226             	3.25296464e+02
227             	3.25309219e+02
228             	3.25322064e+02
229             	3.25335105e+02
230             	3.25348130e+02
231             	3.25361797e+02
232             	3.25373295e+02
233             	3.25386070e+02
234             	3.25399038e+02
235             	3.25411709e+02
236             	3.25424045e+02
237             	3.25436152e+02
238             	3.25448074e+02
239             	3.25459815e+02
240             	3.25471404e+02
241             	3.25482775e+02
242             	3.25493881e+02
243             	3.25504673e+02
244             	3.25516270e+02
245             	3.25527191e+02
246             	3.25537540e+02
247             	3.25547694e+02
248             	3.25557644e+02
249             	3.25567373e+02
250             	3.25576952e+02
251             	3.25586388e+02
252             	3.25595647e+02
253             	3.25604722e+02
254             	3.25613692e+02
255             	3.25622579e+02
256             	3.25631468e+02
257             	3.25639543e+02
258             	3.25647052e+02
259             	3.25655143e+02
260             	3.25663460e+02
261             	3.25671590e+02
262             	3.25678680e+02
263             	3.25685388e+02
264             	3.25692472e+02
265             	3.25700202e+02
266             	3.25707659e+02
267             	3.25715006e+02
268             	3.25723104e+02
269             	3.25732445e+02
270             	3.25740985e+02
271             	3.25749753e+02
272             	3.25758749e+02
273             	3.25767239e+02
274             	3.25776479e+02
275             	3.25785709e+02
276             	3.25793447e+02
277             	3.25801367e+02
278             	3.25809282e+02
279             	3.25816750e+02
280             	3.25823506e+02
281             	3.25827544e+02
282             	3.25831591e+02
283             	3.25837801e+02
284             	3.25843267e+02
285             	3.25848210e+02
286             	3.25853361e+02
287             	3.25858335e+02
288             	3.25863297e+02
289             	3.25869352e+02
290             	3.25875735e+02
291             	3.25881728e+02
292             	3.25889928e+02
293             	3.25898353e+02
294             	3.25906383e+02
295             	3.25914490e+02
296             	3.25920959e+02
297             	3.25922614e+02
298             	3.25927631e+02
299             	3.25930834e+02
300             	3.25934995e+02
301             	3.25938529e+02
302             	3.25941701e+02
303             	3.25945541e+02
304             	3.25949766e+02
305             	3.25953101e+02
306             	3.25956609e+02
307             	3.25960682e+02
308             	3.25965276e+02
309             	3.25970003e+02
310             	3.25974591e+02
311             	3.25977848e+02
312             	3.25981187e+02
313             	3.25985436e+02
314             	3.25990296e+02
315             	3.25995421e+02
316             	3.26000151e+02
317             	3.26004309e+02
318             	3.26008724e+02
319             	3.26013397e+02
320             	3.26017720e+02
321             	3.26021546e+02
322             	3.26025078e+02
323             	3.26028386e+02
324             	3.26032769e+02
325             	3.26036593e+02
326             	3.26039304e+02
327             	3.26042228e+02
328             	3.26045350e+02
329             	3.26048797e+02
330             	3.26052095e+02
331             	3.26055325e+02
332             	3.26058570e+02
333             	3.26061851e+02
334             	3.26060363e+02
335             	3.26061102e+02
336             	3.26062821e+02
337             	3.26064453e+02
338             	3.26065518e+02
339             	3.26065908e+02
340             	3.26066260e+02
341             	3.26067437e+02
342             	3.26068717e+02
343             	3.26071440e+02
344             	3.26074766e+02
345             	3.26079208e+02
346             	3.26084689e+02
347             	3.26088980e+02
348             	3.26094088e+02
349             	3.26097248e+02
350             	3.26098912e+02
351             	3.26100447e+02
352             	3.26100968e+02
353             	3.26101848e+02
354             	3.26102909e+02
355             	3.26105241e+02
356             	3.26107702e+02
357             	3.26109771e+02
358             	3.26111662e+02
359             	3.26113686e+02
360             	3.26118590e+02
361             	3.26122809e+02
362             	3.26126923e+02
363             	3.26126622e+02
364             	3.26126557e+02
365             	3.26127615e+02
366             	3.26128599e+02
367             	3.26129126e+02
368             	3.26129434e+02
369             	3.26129775e+02
370             	3.26130004e+02
371             	3.26130575e+02
372             	3.26131160e+02
373             	3.26131335e+02
374             	3.26132280e+02
375             	3.26133695e+02
376             	3.26135341e+02
377             	3.26137138e+02
378             	3.26135734e+02
379             	3.26134836e+02
380             	3.26134344e+02
381             	3.26133971e+02
382             	3.26133627e+02
383             	3.26133136e+02
384             	3.26132616e+02
385             	3.26132236e+02
386             	3.26132229e+02
387             	3.26132608e+02
388             	3.26135355e+02
389             	3.26137261e+02
390             	3.26138645e+02
391             	3.26140014e+02
392             	3.26141357e+02
393             	3.26143140e+02
394             	3.26145232e+02
395             	3.26147510e+02
396             	3.26149809e+02
397             	3.26152318e+02
398             	3.26154958e+02
399             	3.26156440e+02
400             	3.26158828e+02
401             	3.26161703e+02
402             	3.26164596e+02
403             	3.26167480e+02
404             	3.26169847e+02
405             	3.26172163e+02
406             	3.26174908e+02
407             	3.26177243e+02
408             	3.26179350e+02
409             	3.26181248e+02
410             	3.26182927e+02
411             	3.26185593e+02
412             	3.26187569e+02
413             	3.26189109e+02
414             	3.26190559e+02
415             	3.26192051e+02
416             	3.26193597e+02
417             	3.26194967e+02
418             	3.26196358e+02
419             	3.26197991e+02
420             	3.26199694e+02
421             	3.26201317e+02
422             	3.26202856e+02
423             	3.26204338e+02
424             	3.26205806e+02
425             	3.26207178e+02
426             	3.26208438e+02
427             	3.26209590e+02
428             	3.26210657e+02
429             	3.26211848e+02
430             	3.26213172e+02
431             	3.26214105e+02
432             	3.26214805e+02
433             	3.26215412e+02
434             	3.26216979e+02
435             	3.26218180e+02
436             	3.26219216e+02
437             	3.26220295e+02
438             	3.26221261e+02
439             	3.26219885e+02
440             	3.26219644e+02
441             	3.26219813e+02
442             	3.26219663e+02
443             	3.26219119e+02
444             	3.26218392e+02
445             	3.26218023e+02
446             	3.26217969e+02
447             	3.26218115e+02
448             	3.26218157e+02
449             	3.26218330e+02
450             	3.26218748e+02
451             	3.26219316e+02
452             	3.26219985e+02
453             	3.26220029e+02
454             	3.26220212e+02
455             	3.26220439e+02
456             	3.26220572e+02
457             	3.26220387e+02
458             	3.26220372e+02
459             	3.26220306e+02
460             	3.26220375e+02
461             	3.26220600e+02
462             	3.26220891e+02
463             	3.26221187e+02
464             	3.26221504e+02
465             	3.26221765e+02
466             	3.26221938e+02
467             	3.26222005e+02
468             	3.26222018e+02
469             	3.26222062e+02
470             	3.26222142e+02
471             	3.26222245e+02
472             	3.26222337e+02
473             	3.26222500e+02
474             	3.26222734e+02
475             	3.26223012e+02
476             	3.26223350e+02
477             	3.26223712e+02
478             	3.26224051e+02
479             	3.26224376e+02
480             	3.26224722e+02
481             	3.26225107e+02
482             	3.26225551e+02
483             	3.26226082e+02
484             	3.26226679e+02
485             	3.26227386e+02
486             	3.26228195e+02
487             	3.26229077e+02
488             	3.26230061e+02
489             	3.26231172e+02
490             	3.26232398e+02
491             	3.26233731e+02
492             	3.26234750e+02
493             	3.26235886e+02
494             	3.26237070e+02
495             	3.26238101e+02
496             	3.26239048e+02
497             	3.26239859e+02
498             	3.26240645e+02
499             	3.26241380e+02
500             	3.26242040e+02
501             	3.26242657e+02
502             	3.26243283e+02
503             	3.26243929e+02
504             	3.26244613e+02
505             	3.26245334e+02
506             	3.26246045e+02
507             	3.26246765e+02
508             	3.26247509e+02
509             	3.26248254e+02
510             	3.26249009e+02
511             	3.26249723e+02
512             	3.26250485e+02
513             	3.26251271e+02
514             	3.26252079e+02
515             	3.26252881e+02
516             	3.26253662e+02
517             	3.26254429e+02
518             	3.26253979e+02
519             	3.26253863e+02
520             	3.26253815e+02
521             	3.26253631e+02
522             	3.26254216e+02
523             	3.26254461e+02
524             	3.26254530e+02
525             	3.26254684e+02
526             	3.26254985e+02
527             	3.26255446e+02
528             	3.26256094e+02
529             	3.26256914e+02
530             	3.26257856e+02
531             	3.26258808e+02
532             	3.26259778e+02
533             	3.26260772e+02
534             	3.26261844e+02
535             	3.26262978e+02
536             	3.26263379e+02
537             	3.26264087e+02
538             	3.26264961e+02
539             	3.26265744e+02
540             	3.26266373e+02
541             	3.26266834e+02
542             	3.26267222e+02
543             	3.26267474e+02
544             	3.26267619e+02
545             	3.26267658e+02
546             	3.26267563e+02
547             	3.26267317e+02
548             	3.26266986e+02
549             	3.26266518e+02
550             	3.26265963e+02
551             	3.26265327e+02
552             	3.26264630e+02
553             	3.26263862e+02
554             	3.26263017e+02
555             	3.26262108e+02
556             	3.26261149e+02
557             	3.26260188e+02
558             	3.26259247e+02
559             	3.26258331e+02
560             	3.26257420e+02
561             	3.26256568e+02
562             	3.26255774e+02
563             	3.26255051e+02
564             	3.26254411e+02
565             	3.26253873e+02
566             	3.26253398e+02
567             	3.26252985e+02
568             	3.26252637e+02
569             	3.26252356e+02
570             	3.26252149e+02
571             	3.26251982e+02
572             	3.26251891e+02
573             	3.26251889e+02
574             	3.26251955e+02
575             	3.26252095e+02
576             	3.26252256e+02
577             	3.26252437e+02
578             	3.26252631e+02
579             	3.26252843e+02
580             	3.26253081e+02
581             	3.26253341e+02
582             	3.26253679e+02
583             	3.26254072e+02
584             	3.26254526e+02
585             	3.26255078e+02
586             	3.26255727e+02
587             	3.26256484e+02
588             	3.26257340e+02
589             	3.26258291e+02
590             	3.26259323e+02
591             	3.26260395e+02
592             	3.26261280e+02
593             	3.26262282e+02
594             	3.26263343e+02
595             	3.26264361e+02
596             	3.26265275e+02
597             	3.26266141e+02
598             	3.26266900e+02
599             	3.26267586e+02
600             	3.26268196e+02
601             	3.26268705e+02
602             	3.26269080e+02
603             	3.26269345e+02
604             	3.26269488e+02
605             	3.26269517e+02
606             	3.26269406e+02
607             	3.26269175e+02
608             	3.26268819e+02
609             	3.26268340e+02
610             	3.26267774e+02
611             	3.26268133e+02
612             	3.26268179e+02
613             	3.26267998e+02
614             	3.26267933e+02
615             	3.26267969e+02
616             	3.26267729e+02
617             	3.26267859e+02
618             	3.26268288e+02
619             	3.26268907e+02
620             	3.26268298e+02
621             	3.26268338e+02
