# Region        : cellZone component_4
# Cells         : 145
# Volume        : 2.63027444e-01
# Time          	volAverage(T)
1               	3.01141578e+02
2               	3.02258280e+02
3               	3.03203436e+02
4               	3.04046618e+02
5               	3.04871181e+02
6               	3.05697307e+02
7               	3.06509278e+02
8               	3.07306219e+02
9               	3.08092536e+02
10              	3.08861874e+02
11              	3.09620555e+02
12              	3.10354722e+02
13              	3.11060277e+02
14              	3.11747161e+02
15              	3.12397810e+02
16              	3.13006224e+02
17              	3.13574344e+02
18              	3.14099570e+02
19              	3.14602349e+02
20              	3.15117425e+02
21              	3.15631070e+02
22              	3.16114720e+02
23              	3.16553777e+02
24              	3.16978550e+02
25              	3.17376929e+02
26              	3.17800913e+02
27              	3.18210400e+02
28              	3.18603370e+02
29              	3.19007464e+02
30              	3.19390618e+02
31              	3.19782422e+02
32              	3.20130807e+02
33              	3.20436087e+02
34              	3.20718545e+02
35              	3.20985011e+02
36              	3.21243763e+02
37              	3.21506731e+02
38              	3.21831416e+02
39              	3.22111768e+02
40              	3.22354391e+02
41              	3.22572382e+02
42              	3.22779839e+02
43              	3.22985692e+02
44              	3.23204279e+02
45              	3.23441929e+02
46              	3.23689759e+02
47              	3.23969739e+02
48              	3.24241228e+02
49              	3.24455001e+02
50              	3.24583070e+02
51              	3.24643227e+02
52              	3.24706378e+02
53              	3.24898080e+02
54              	3.25096642e+02
55              	3.25268857e+02
56              	3.25415374e+02
57              	3.25531652e+02
58              	3.25643292e+02
59              	3.25786052e+02
60              	3.25967297e+02
61              	3.26171175e+02
62              	3.26336248e+02
63              	3.26458397e+02
64              	3.26534910e+02
65              	3.26585953e+02
66              	3.26694395e+02
67              	3.26848434e+02
68              	3.26978480e+02
69              	3.27064645e+02
70              	3.27119561e+02
71              	3.27190107e+02
72              	3.27292778e+02
73              	3.27419772e+02
74              	3.27587161e+02
75              	3.27768694e+02
76              	3.27891762e+02
77              	3.28000889e+02
78              	3.28092460e+02
79              	3.28240158e+02
80              	3.28392648e+02
81              	3.28522452e+02
82              	3.28645906e+02
83              	3.28774638e+02
84              	3.28902107e+02
85              	3.29034599e+02
86              	3.29177772e+02
87              	3.29336043e+02
88              	3.29495731e+02
89              	3.29673604e+02
90              	3.29847713e+02
91              	3.30026917e+02
92              	3.30207927e+02
93              	3.30377738e+02
94              	3.30533868e+02
95              	3.30681042e+02
96              	3.30822145e+02
97              	3.30960346e+02
98              	3.31097351e+02
99              	3.31226265e+02
100             	3.31338328e+02
101             	3.31452599e+02
102             	3.31555052e+02
103             	3.31646040e+02
104             	3.31740432e+02
105             	3.31840299e+02
106             	3.31946915e+02
107             	3.32059715e+02
108             	3.32182875e+02
109             	3.32320746e+02
110             	3.32466064e+02
111             	3.32600250e+02
112             	3.32721921e+02
113             	3.32832377e+02
114             	3.32916871e+02
115             	3.32973560e+02
116             	3.33007011e+02
117             	3.33017841e+02
118             	3.33030225e+02
119             	3.33057266e+02
120             	3.33089059e+02
121             	3.33132892e+02
122             	3.33183645e+02
123             	3.33238228e+02
124             	3.33305641e+02
125             	3.33380153e+02
126             	3.33466393e+02
127             	3.33563190e+02
128             	3.33664198e+02
129             	3.33763011e+02
130             	3.33855387e+02
131             	3.33940519e+02
132             	3.34020400e+02
133             	3.34085258e+02
134             	3.34141718e+02
135             	3.34192228e+02
136             	3.34238854e+02
137             	3.34282609e+02
138             	3.34328493e+02
139             	3.34379123e+02
140             	3.34434356e+02
141             	3.34493097e+02
142             	3.34555415e+02
143             	3.34622481e+02
144             	3.34694932e+02
145             	3.34773875e+02
146             	3.34858934e+02
147             	3.34926502e+02
148             	3.34989123e+02
149             	3.35034750e+02
150             	3.35059355e+02
151             	3.35074796e+02
152             	3.35086202e+02
153             	3.35099411e+02
154             	3.35115729e+02
155             	3.35138776e+02
156             	3.35171874e+02
157             	3.35212645e+02
158             	3.35251408e+02
159             	3.35297392e+02
160             	3.35342108e+02
161             	3.35394338e+02
162             	3.35437491e+02
163             	3.35479377e+02
164             	3.35521619e+02
165             	3.35558859e+02
166             	3.35594033e+02
167             	3.35625672e+02
168             	3.35664429e+02
169             	3.35708174e+02
170             	3.35745241e+02
171             	3.35788338e+02
172             	3.35834348e+02
173             	3.35887837e+02
174             	3.35932924e+02
175             	3.35970275e+02
176             	3.36002597e+02
177             	3.36028816e+02
178             	3.36057265e+02
179             	3.36086681e+02
180             	3.36112933e+02
181             	3.36137118e+02
182             	3.36159609e+02
183             	3.36184583e+02
184             	3.36213897e+02
185             	3.36247727e+02
186             	3.36290122e+02
187             	3.36337247e+02
188             	3.36388804e+02
189             	3.36442009e+02
190             	3.36493818e+02
191             	3.36541581e+02
192             	3.36585212e+02
193             	3.36624124e+02
194             	3.36658390e+02
195             	3.36690119e+02
196             	3.36721685e+02
197             	3.36753281e+02
198             	3.36785705e+02
199             	3.36820892e+02
200             	3.36858489e+02
201             	3.36900199e+02
202             	3.36944765e+02
203             	3.36983472e+02
204             	3.37014187e+02
205             	3.37039550e+02
206             	3.37052792e+02
207             	3.37063849e+02
208             	3.37077113e+02
209             	3.37089500e+02
210             	3.37101391e+02
211             	3.37114751e+02
212             	3.37129617e+02
213             	3.37145501e+02
214             	3.37163335e+02
215             	3.37182484e+02
216             	3.37203943e+02
217             	3.37226850e+02
218             	3.37250851e+02
219             	3.37272544e+02
220             	3.37293856e+02
221             	3.37313917e+02
222             	3.37333663e+02
223             	3.37352028e+02
224             	3.37372289e+02
225             	3.37393290e+02
226             	3.37414742e+02
227             	3.37436677e+02
228             	3.37458552e+02
229             	3.37480901e+02
230             	3.37503801e+02
231             	3.37526412e+02
232             	3.37548055e+02
233             	3.37568887e+02
234             	3.37592010e+02
235             	3.37617906e+02
236             	3.37645742e+02
237             	3.37676193e+02
238             	3.37708531e+02
239             	3.37740147e+02
240             	3.37771657e+02
241             	3.37803010e+02
242             	3.37834282e+02
243             	3.37865963e+02
244             	3.37897646e+02
245             	3.37928824e+02
246             	3.37960028e+02
247             	3.37991756e+02
248             	3.38023509e+02
249             	3.38053246e+02
250             	3.38081110e+02
251             	3.38107031e+02
252             	3.38132306e+02
253             	3.38156309e+02
254             	3.38178628e+02
255             	3.38200659e+02
256             	3.38222141e+02
257             	3.38242861e+02
258             	3.38263727e+02
259             	3.38284395e+02
260             	3.38303350e+02
261             	3.38320061e+02
262             	3.38335321e+02
263             	3.38348951e+02
264             	3.38358796e+02
265             	3.38365773e+02
266             	3.38374403e+02
267             	3.38384192e+02
268             	3.38393043e+02
269             	3.38403177e+02
270             	3.38412888e+02
271             	3.38421933e+02
272             	3.38428297e+02
273             	3.38433076e+02
274             	3.38437955e+02
275             	3.38444902e+02
276             	3.38453075e+02
277             	3.38464269e+02
278             	3.38477256e+02
279             	3.38490906e+02
280             	3.38505349e+02
281             	3.38517926e+02
282             	3.38530732e+02
283             	3.38543876e+02
284             	3.38556126e+02
285             	3.38568126e+02
286             	3.38579925e+02
287             	3.38591453e+02
288             	3.38602833e+02
289             	3.38614147e+02
290             	3.38626511e+02
291             	3.38639181e+02
292             	3.38652675e+02
293             	3.38666916e+02
294             	3.38680725e+02
295             	3.38694972e+02
296             	3.38709977e+02
297             	3.38725320e+02
298             	3.38740579e+02
299             	3.38755418e+02
300             	3.38770281e+02
301             	3.38785323e+02
302             	3.38800474e+02
303             	3.38815267e+02
304             	3.38829773e+02
305             	3.38843137e+02
306             	3.38855473e+02
307             	3.38867586e+02
308             	3.38879589e+02
309             	3.38891168e+02
310             	3.38900076e+02
311             	3.38906136e+02
312             	3.38910185e+02
313             	3.38910916e+02
314             	3.38909500e+02
315             	3.38904159e+02
316             	3.38899782e+02
317             	3.38896784e+02
318             	3.38896194e+02
319             	3.38897297e+02
320             	3.38898456e+02
321             	3.38899148e+02
322             	3.38899090e+02
323             	3.38898455e+02
324             	3.38898442e+02
325             	3.38898604e+02
326             	3.38897576e+02
327             	3.38896389e+02
328             	3.38895556e+02
329             	3.38896515e+02
330             	3.38899521e+02
331             	3.38903781e+02
332             	3.38909219e+02
333             	3.38915431e+02
334             	3.38921268e+02
335             	3.38926584e+02
336             	3.38932264e+02
337             	3.38938942e+02
338             	3.38946158e+02
339             	3.38954439e+02
340             	3.38963854e+02
341             	3.38974562e+02
342             	3.38986752e+02
343             	3.38999817e+02
344             	3.39013288e+02
345             	3.39026372e+02
346             	3.39039327e+02
347             	3.39052200e+02
348             	3.39064969e+02
349             	3.39077904e+02
350             	3.39090631e+02
351             	3.39102445e+02
352             	3.39113378e+02
353             	3.39123509e+02
354             	3.39133303e+02
355             	3.39142198e+02
356             	3.39150185e+02
357             	3.39156591e+02
358             	3.39163135e+02
359             	3.39168630e+02
360             	3.39172434e+02
361             	3.39174204e+02
362             	3.39174066e+02
363             	3.39172158e+02
364             	3.39168750e+02
365             	3.39164309e+02
366             	3.39159232e+02
367             	3.39153525e+02
368             	3.39147720e+02
369             	3.39142345e+02
370             	3.39136925e+02
371             	3.39131723e+02
372             	3.39126839e+02
373             	3.39122398e+02
374             	3.39118458e+02
375             	3.39114980e+02
376             	3.39112329e+02
377             	3.39110691e+02
378             	3.39109749e+02
379             	3.39109583e+02
380             	3.39110111e+02
381             	3.39111399e+02
382             	3.39113515e+02
383             	3.39116568e+02
384             	3.39120681e+02
385             	3.39125771e+02
386             	3.39131466e+02
387             	3.39139166e+02
388             	3.39148653e+02
389             	3.39159570e+02
390             	3.39171676e+02
391             	3.39184264e+02
392             	3.39196629e+02
393             	3.39208585e+02
394             	3.39219377e+02
395             	3.39229841e+02
396             	3.39240541e+02
397             	3.39251236e+02
398             	3.39261779e+02
399             	3.39272046e+02
400             	3.39282048e+02
401             	3.39291649e+02
402             	3.39300566e+02
403             	3.39308764e+02
404             	3.39316429e+02
405             	3.39323605e+02
406             	3.39329803e+02
407             	3.39335197e+02
408             	3.39338681e+02
409             	3.39340526e+02
410             	3.39340952e+02
411             	3.39339830e+02
412             	3.39337510e+02
413             	3.39333772e+02
414             	3.39328696e+02
415             	3.39322851e+02
416             	3.39316464e+02
417             	3.39309539e+02
418             	3.39302628e+02
419             	3.39295901e+02
420             	3.39290069e+02
421             	3.39284068e+02
422             	3.39278045e+02
423             	3.39272669e+02
424             	3.39267747e+02
425             	3.39261507e+02
426             	3.39256561e+02
427             	3.39252683e+02
428             	3.39248904e+02
429             	3.39245158e+02
430             	3.39241969e+02
431             	3.39240206e+02
432             	3.39239797e+02
433             	3.39240375e+02
434             	3.39242154e+02
435             	3.39244135e+02
436             	3.39246761e+02
437             	3.39250834e+02
438             	3.39255707e+02
439             	3.39260828e+02
440             	3.39266865e+02
441             	3.39273450e+02
442             	3.39279935e+02
443             	3.39286034e+02
444             	3.39292034e+02
445             	3.39298753e+02
446             	3.39306341e+02
447             	3.39314457e+02
448             	3.39322813e+02
449             	3.39331252e+02
450             	3.39339610e+02
451             	3.39347151e+02
452             	3.39354424e+02
453             	3.39360907e+02
454             	3.39365637e+02
455             	3.39370712e+02
456             	3.39374520e+02
457             	3.39376142e+02
458             	3.39375854e+02
459             	3.39374701e+02
460             	3.39372548e+02
461             	3.39369212e+02
462             	3.39364285e+02
463             	3.39358350e+02
464             	3.39352009e+02
465             	3.39344861e+02
466             	3.39337050e+02
467             	3.39328384e+02
468             	3.39319402e+02
469             	3.39310465e+02
470             	3.39301916e+02
471             	3.39293841e+02
472             	3.39286335e+02
473             	3.39279430e+02
474             	3.39273485e+02
475             	3.39268747e+02
476             	3.39262787e+02
477             	3.39258667e+02
478             	3.39256261e+02
479             	3.39255129e+02
480             	3.39254522e+02
481             	3.39254825e+02
482             	3.39256222e+02
483             	3.39258867e+02
484             	3.39262469e+02
485             	3.39265982e+02
486             	3.39269317e+02
487             	3.39272774e+02
488             	3.39277664e+02
489             	3.39283655e+02
490             	3.39290296e+02
491             	3.39297795e+02
492             	3.39306035e+02
493             	3.39314588e+02
494             	3.39322194e+02
495             	3.39330511e+02
496             	3.39339386e+02
497             	3.39347798e+02
498             	3.39356180e+02
499             	3.39363655e+02
500             	3.39370474e+02
501             	3.39376874e+02
502             	3.39382870e+02
503             	3.39388493e+02
504             	3.39393099e+02
505             	3.39397172e+02
506             	3.39398839e+02
507             	3.39400205e+02
508             	3.39398946e+02
509             	3.39396275e+02
510             	3.39391736e+02
511             	3.39387365e+02
512             	3.39382827e+02
513             	3.39378399e+02
514             	3.39374073e+02
515             	3.39367962e+02
516             	3.39361283e+02
517             	3.39352416e+02
518             	3.39344212e+02
519             	3.39337323e+02
520             	3.39331869e+02
521             	3.39327030e+02
522             	3.39322036e+02
523             	3.39317333e+02
524             	3.39312748e+02
525             	3.39308232e+02
526             	3.39304604e+02
527             	3.39303034e+02
528             	3.39303595e+02
529             	3.39305346e+02
530             	3.39308479e+02
531             	3.39311611e+02
532             	3.39314013e+02
533             	3.39315767e+02
534             	3.39317801e+02
535             	3.39320393e+02
536             	3.39323464e+02
537             	3.39327375e+02
538             	3.39332476e+02
539             	3.39338811e+02
540             	3.39345730e+02
541             	3.39354099e+02
542             	3.39362573e+02
543             	3.39370791e+02
544             	3.39378863e+02
545             	3.39386503e+02
546             	3.39393902e+02
547             	3.39400641e+02
548             	3.39406895e+02
549             	3.39412321e+02
550             	3.39417236e+02
551             	3.39421840e+02
552             	3.39425130e+02
553             	3.39427862e+02
554             	3.39431086e+02
555             	3.39434239e+02
556             	3.39437006e+02
557             	3.39437921e+02
558             	3.39437121e+02
559             	3.39434770e+02
560             	3.39431135e+02
561             	3.39426787e+02
562             	3.39421761e+02
563             	3.39416118e+02
564             	3.39410072e+02
565             	3.39403870e+02
566             	3.39397771e+02
567             	3.39391984e+02
568             	3.39384663e+02
569             	3.39378251e+02
570             	3.39372145e+02
571             	3.39366142e+02
572             	3.39360492e+02
573             	3.39355273e+02
574             	3.39350524e+02
575             	3.39346185e+02
576             	3.39342458e+02
577             	3.39339741e+02
578             	3.39338140e+02
579             	3.39338191e+02
580             	3.39339219e+02
581             	3.39340234e+02
582             	3.39341136e+02
583             	3.39342265e+02
584             	3.39344065e+02
585             	3.39347151e+02
586             	3.39351381e+02
587             	3.39356722e+02
588             	3.39362844e+02
589             	3.39369361e+02
590             	3.39377304e+02
591             	3.39384865e+02
592             	3.39393183e+02
593             	3.39402356e+02
594             	3.39411424e+02
595             	3.39419943e+02
596             	3.39428100e+02
597             	3.39435931e+02
598             	3.39443607e+02
599             	3.39450953e+02
600             	3.39457961e+02
601             	3.39464637e+02
602             	3.39471037e+02
603             	3.39477032e+02
604             	3.39481974e+02
605             	3.39485706e+02
606             	3.39489400e+02
607             	3.39491592e+02
608             	3.39491645e+02
609             	3.39490459e+02
610             	3.39488178e+02
611             	3.39484933e+02
612             	3.39480928e+02
613             	3.39476595e+02
614             	3.39471624e+02
615             	3.39465832e+02
616             	3.39459539e+02
617             	3.39452925e+02
618             	3.39445981e+02
619             	3.39438361e+02
620             	3.39430440e+02
621             	3.39422362e+02
