# Region        : cellZone component_3
# Cells         : 117
# Volume        : 2.00711546e-01
# Time          	volAverage(T)
1               	3.00307971e+02
2               	3.00610856e+02
3               	3.00889945e+02
4               	3.01153123e+02
5               	3.01408375e+02
6               	3.01658207e+02
7               	3.01904012e+02
8               	3.02144697e+02
9               	3.02384535e+02
10              	3.02617043e+02
11              	3.02843718e+02
12              	3.03054981e+02
13              	3.03253351e+02
14              	3.03448270e+02
15              	3.03635596e+02
16              	3.03816648e+02
17              	3.03994925e+02
18              	3.04171208e+02
19              	3.04336756e+02
20              	3.04517718e+02
21              	3.04693973e+02
22              	3.04865917e+02
23              	3.05033318e+02
24              	3.05197865e+02
25              	3.05361524e+02
26              	3.05521510e+02
27              	3.05679519e+02
28              	3.05828985e+02
29              	3.05971996e+02
30              	3.06110223e+02
31              	3.06248634e+02
32              	3.06393291e+02
33              	3.06518665e+02
34              	3.06629511e+02
35              	3.06726535e+02
36              	3.06816037e+02
37              	3.06891693e+02
38              	3.06966407e+02
39              	3.07052712e+02
40              	3.07146258e+02
41              	3.07235398e+02
42              	3.07319966e+02
43              	3.07401385e+02
44              	3.07482267e+02
45              	3.07563578e+02
46              	3.07648139e+02
47              	3.07733580e+02
48              	3.07823794e+02
49              	3.07916192e+02
50              	3.08008333e+02
51              	3.08093972e+02
52              	3.08174199e+02
53              	3.08244571e+02
54              	3.08310778e+02
55              	3.08371978e+02
56              	3.08442574e+02
57              	3.08517473e+02
58              	3.08596641e+02
59              	3.08677465e+02
60              	3.08756060e+02
61              	3.08832501e+02
62              	3.08905625e+02
63              	3.08976162e+02
64              	3.09041746e+02
65              	3.09103749e+02
66              	3.09165107e+02
67              	3.09229146e+02
68              	3.09301744e+02
69              	3.09384395e+02
70              	3.09439628e+02
71              	3.09472650e+02
72              	3.09503459e+02
73              	3.09541057e+02
74              	3.09597626e+02
75              	3.09653078e+02
76              	3.09702931e+02
77              	3.09754343e+02
78              	3.09808053e+02
79              	3.09858116e+02
80              	3.09910604e+02
81              	3.09963102e+02
82              	3.10010893e+02
83              	3.10063214e+02
84              	3.10112925e+02
85              	3.10169422e+02
86              	3.10223489e+02
87              	3.10278140e+02
88              	3.10331631e+02
89              	3.10381045e+02
90              	3.10429594e+02
91              	3.10476942e+02
92              	3.10521029e+02
93              	3.10562616e+02
94              	3.10600411e+02
95              	3.10635840e+02
96              	3.10671847e+02
97              	3.10704896e+02
98              	3.10736838e+02
99              	3.10772140e+02
100             	3.10810586e+02
101             	3.10852945e+02
102             	3.10899704e+02
103             	3.10949051e+02
104             	3.11002310e+02
105             	3.11051086e+02
106             	3.11096524e+02
107             	3.11141598e+02
108             	3.11184887e+02
109             	3.11222345e+02
110             	3.11255001e+02
111             	3.11286125e+02
112             	3.11316103e+02
113             	3.11345917e+02
114             	3.11373980e+02
115             	3.11402182e+02
116             	3.11430484e+02
117             	3.11459675e+02
118             	3.11488644e+02
119             	3.11519514e+02
120             	3.11552766e+02
121             	3.11589702e+02
122             	3.11624749e+02
123             	3.11659263e+02
124             	3.11692277e+02
125             	3.11723966e+02
126             	3.11753397e+02
127             	3.11781039e+02
128             	3.11808233e+02
129             	3.11835353e+02
130             	3.11862117e+02
131             	3.11887272e+02
132             	3.11911122e+02
133             	3.11936395e+02
134             	3.11962164e+02
135             	3.11989261e+02
136             	3.12017575e+02
137             	3.12047822e+02
138             	3.12080012e+02
139             	3.12112849e+02
140             	3.12147008e+02
141             	3.12176055e+02
142             	3.12207937e+02
143             	3.12239367e+02
144             	3.12268352e+02
145             	3.12295717e+02
146             	3.12321102e+02
147             	3.12345352e+02
148             	3.12366873e+02
149             	3.12386912e+02
150             	3.12407117e+02
151             	3.12426677e+02
152             	3.12446657e+02
153             	3.12468258e+02
154             	3.12491972e+02
155             	3.12516522e+02
156             	3.12542419e+02
157             	3.12568823e+02
158             	3.12595364e+02
159             	3.12622232e+02
160             	3.12649424e+02
161             	3.12677279e+02
162             	3.12704787e+02
163             	3.12729306e+02
164             	3.12755043e+02
165             	3.12779038e+02
166             	3.12802500e+02
167             	3.12823806e+02
168             	3.12843315e+02
169             	3.12861340e+02
170             	3.12878637e+02
171             	3.12895459e+02
172             	3.12913775e+02
173             	3.12932810e+02
174             	3.12952350e+02
175             	3.12973050e+02
176             	3.12996693e+02
177             	3.13018785e+02
178             	3.13042293e+02
179             	3.13064948e+02
180             	3.13088231e+02
181             	3.13110277e+02
182             	3.13131484e+02
183             	3.13153169e+02
184             	3.13173279e+02
185             	3.13192015e+02
186             	3.13209793e+02
187             	3.13227195e+02
188             	3.13244712e+02
189             	3.13261714e+02
190             	3.13280081e+02
191             	3.13300814e+02
192             	3.13321325e+02
193             	3.13341211e+02
194             	3.13362210e+02
195             	3.13384509e+02
196             	3.13408862e+02
197             	3.13432876e+02
198             	3.13451967e+02
199             	3.13471763e+02
200             	3.13490762e+02
201             	3.13507430e+02
202             	3.13522728e+02
203             	3.13536140e+02
204             	3.13547767e+02
205             	3.13559375e+02
206             	3.13571153e+02
207             	3.13580938e+02
208             	3.13591428e+02
209             	3.13604316e+02
210             	3.13619352e+02
211             	3.13633455e+02
212             	3.13648549e+02
213             	3.13664863e+02
214             	3.13680653e+02
215             	3.13695938e+02
216             	3.13711469e+02
217             	3.13726403e+02
218             	3.13741922e+02
219             	3.13758278e+02
220             	3.13774098e+02
221             	3.13787772e+02
222             	3.13801454e+02
223             	3.13816315e+02
224             	3.13830647e+02
225             	3.13845025e+02
226             	3.13859174e+02
227             	3.13873383e+02
228             	3.13887992e+02
229             	3.13903197e+02
230             	3.13918192e+02
231             	3.13932716e+02
232             	3.13945741e+02
233             	3.13957673e+02
234             	3.13970192e+02
235             	3.13981519e+02
236             	3.13992218e+02
237             	3.14002214e+02
238             	3.14011918e+02
239             	3.14021204e+02
240             	3.14030379e+02
241             	3.14039560e+02
242             	3.14048698e+02
243             	3.14058022e+02
244             	3.14067765e+02
245             	3.14077873e+02
246             	3.14088305e+02
247             	3.14098905e+02
248             	3.14109482e+02
249             	3.14120492e+02
250             	3.14131393e+02
251             	3.14142263e+02
252             	3.14153487e+02
253             	3.14164832e+02
254             	3.14174924e+02
255             	3.14183610e+02
256             	3.14191570e+02
257             	3.14199260e+02
258             	3.14206607e+02
259             	3.14213175e+02
260             	3.14218693e+02
261             	3.14223681e+02
262             	3.14228049e+02
263             	3.14232087e+02
264             	3.14235976e+02
265             	3.14239846e+02
266             	3.14244243e+02
267             	3.14248401e+02
268             	3.14252812e+02
269             	3.14257984e+02
270             	3.14263410e+02
271             	3.14269262e+02
272             	3.14275712e+02
273             	3.14282387e+02
274             	3.14289383e+02
275             	3.14296479e+02
276             	3.14303557e+02
277             	3.14310818e+02
278             	3.14318378e+02
279             	3.14325945e+02
280             	3.14333161e+02
281             	3.14340090e+02
282             	3.14346561e+02
283             	3.14352614e+02
284             	3.14358342e+02
285             	3.14363524e+02
286             	3.14368223e+02
287             	3.14372709e+02
288             	3.14376873e+02
289             	3.14380704e+02
290             	3.14384083e+02
291             	3.14387138e+02
292             	3.14390067e+02
293             	3.14392959e+02
294             	3.14395978e+02
295             	3.14399097e+02
296             	3.14402319e+02
297             	3.14405571e+02
298             	3.14409031e+02
299             	3.14412880e+02
300             	3.14416944e+02
301             	3.14421399e+02
302             	3.14426182e+02
303             	3.14431124e+02
304             	3.14436079e+02
305             	3.14440990e+02
306             	3.14445935e+02
307             	3.14450853e+02
308             	3.14455796e+02
309             	3.14460574e+02
310             	3.14465222e+02
311             	3.14469665e+02
312             	3.14474018e+02
313             	3.14478132e+02
314             	3.14482197e+02
315             	3.14486100e+02
316             	3.14489386e+02
317             	3.14492710e+02
318             	3.14495945e+02
319             	3.14499032e+02
320             	3.14502000e+02
321             	3.14504872e+02
322             	3.14507622e+02
323             	3.14510277e+02
324             	3.14512872e+02
325             	3.14515722e+02
326             	3.14518387e+02
327             	3.14520975e+02
328             	3.14523574e+02
329             	3.14526283e+02
330             	3.14528945e+02
331             	3.14531659e+02
332             	3.14534307e+02
333             	3.14536949e+02
334             	3.14539589e+02
335             	3.14542157e+02
336             	3.14544721e+02
337             	3.14547170e+02
338             	3.14549618e+02
339             	3.14552009e+02
340             	3.14554354e+02
341             	3.14556655e+02
342             	3.14558877e+02
343             	3.14560934e+02
344             	3.14562970e+02
345             	3.14564974e+02
346             	3.14566969e+02
347             	3.14568922e+02
348             	3.14570788e+02
349             	3.14572631e+02
350             	3.14574473e+02
351             	3.14576300e+02
352             	3.14578118e+02
353             	3.14579859e+02
354             	3.14581625e+02
355             	3.14583354e+02
356             	3.14585023e+02
357             	3.14586630e+02
358             	3.14588177e+02
359             	3.14589660e+02
360             	3.14591065e+02
361             	3.14592427e+02
362             	3.14593698e+02
363             	3.14594943e+02
364             	3.14596118e+02
365             	3.14597249e+02
366             	3.14598361e+02
367             	3.14599463e+02
368             	3.14600575e+02
369             	3.14601662e+02
370             	3.14602775e+02
371             	3.14603825e+02
372             	3.14604900e+02
373             	3.14605991e+02
374             	3.14607071e+02
375             	3.14608198e+02
376             	3.14609245e+02
377             	3.14610281e+02
378             	3.14611310e+02
379             	3.14612358e+02
380             	3.14613404e+02
381             	3.14614453e+02
382             	3.14615502e+02
383             	3.14616548e+02
384             	3.14617594e+02
385             	3.14618632e+02
386             	3.14619672e+02
387             	3.14620702e+02
388             	3.14621720e+02
389             	3.14622722e+02
390             	3.14623715e+02
391             	3.14624716e+02
392             	3.14625707e+02
393             	3.14626671e+02
394             	3.14627614e+02
395             	3.14628545e+02
396             	3.14629457e+02
397             	3.14630316e+02
398             	3.14631177e+02
399             	3.14631997e+02
400             	3.14632800e+02
401             	3.14633587e+02
402             	3.14634331e+02
403             	3.14635105e+02
404             	3.14635812e+02
405             	3.14636503e+02
406             	3.14637175e+02
407             	3.14637945e+02
408             	3.14638602e+02
409             	3.14639226e+02
410             	3.14639841e+02
411             	3.14640455e+02
412             	3.14641037e+02
413             	3.14641603e+02
414             	3.14642132e+02
415             	3.14642670e+02
416             	3.14643159e+02
417             	3.14643703e+02
418             	3.14644234e+02
419             	3.14644802e+02
420             	3.14645328e+02
421             	3.14645874e+02
422             	3.14646430e+02
423             	3.14646978e+02
424             	3.14647501e+02
425             	3.14648034e+02
426             	3.14648573e+02
427             	3.14649104e+02
428             	3.14649615e+02
429             	3.14650116e+02
430             	3.14650602e+02
431             	3.14651099e+02
432             	3.14651569e+02
433             	3.14652043e+02
434             	3.14652490e+02
435             	3.14652913e+02
436             	3.14653311e+02
437             	3.14653708e+02
438             	3.14654063e+02
439             	3.14654407e+02
440             	3.14654734e+02
441             	3.14655046e+02
442             	3.14655345e+02
443             	3.14655602e+02
444             	3.14655860e+02
445             	3.14656117e+02
446             	3.14656351e+02
447             	3.14656670e+02
448             	3.14656929e+02
449             	3.14657184e+02
450             	3.14657466e+02
451             	3.14657777e+02
452             	3.14658098e+02
453             	3.14658442e+02
454             	3.14658792e+02
455             	3.14659152e+02
456             	3.14659510e+02
457             	3.14659863e+02
458             	3.14660177e+02
459             	3.14660539e+02
460             	3.14660905e+02
461             	3.14661270e+02
462             	3.14661619e+02
463             	3.14661965e+02
464             	3.14662285e+02
465             	3.14662599e+02
466             	3.14662894e+02
467             	3.14663173e+02
468             	3.14663428e+02
469             	3.14663677e+02
470             	3.14663896e+02
471             	3.14664172e+02
472             	3.14664367e+02
473             	3.14664526e+02
474             	3.14664675e+02
475             	3.14664823e+02
476             	3.14664967e+02
477             	3.14665107e+02
478             	3.14665237e+02
479             	3.14665368e+02
480             	3.14665509e+02
481             	3.14665665e+02
482             	3.14665844e+02
483             	3.14666021e+02
484             	3.14666228e+02
485             	3.14666477e+02
486             	3.14666742e+02
487             	3.14667024e+02
488             	3.14667310e+02
489             	3.14667569e+02
490             	3.14667864e+02
491             	3.14668137e+02
492             	3.14668417e+02
493             	3.14668660e+02
494             	3.14668866e+02
495             	3.14669049e+02
496             	3.14669194e+02
497             	3.14669312e+02
498             	3.14669382e+02
499             	3.14669422e+02
500             	3.14669429e+02
501             	3.14669415e+02
502             	3.14669391e+02
503             	3.14669364e+02
504             	3.14669323e+02
505             	3.14669289e+02
506             	3.14669276e+02
507             	3.14669296e+02
508             	3.14669336e+02
509             	3.14669414e+02
510             	3.14669497e+02
511             	3.14669612e+02
512             	3.14669753e+02
513             	3.14669930e+02
514             	3.14670121e+02
515             	3.14670332e+02
516             	3.14670546e+02
517             	3.14670761e+02
518             	3.14670977e+02
519             	3.14671185e+02
520             	3.14671386e+02
521             	3.14671532e+02
522             	3.14671692e+02
523             	3.14671821e+02
524             	3.14671953e+02
525             	3.14672068e+02
526             	3.14672166e+02
527             	3.14672265e+02
528             	3.14672359e+02
529             	3.14672469e+02
530             	3.14672591e+02
531             	3.14672751e+02
532             	3.14672883e+02
533             	3.14672990e+02
534             	3.14673079e+02
535             	3.14673187e+02
536             	3.14673289e+02
537             	3.14673383e+02
538             	3.14673449e+02
539             	3.14673509e+02
540             	3.14673548e+02
541             	3.14673574e+02
542             	3.14673588e+02
543             	3.14673598e+02
544             	3.14673603e+02
545             	3.14673612e+02
546             	3.14673624e+02
547             	3.14673648e+02
548             	3.14673685e+02
549             	3.14673737e+02
550             	3.14673811e+02
551             	3.14673893e+02
552             	3.14673994e+02
553             	3.14674111e+02
554             	3.14674240e+02
555             	3.14674376e+02
556             	3.14674529e+02
557             	3.14674687e+02
558             	3.14674845e+02
559             	3.14675006e+02
560             	3.14675141e+02
561             	3.14675262e+02
562             	3.14675374e+02
563             	3.14675479e+02
564             	3.14675567e+02
565             	3.14675633e+02
566             	3.14675689e+02
567             	3.14675732e+02
568             	3.14675770e+02
569             	3.14675784e+02
570             	3.14675803e+02
571             	3.14675824e+02
572             	3.14675845e+02
573             	3.14675870e+02
574             	3.14675896e+02
575             	3.14675921e+02
576             	3.14675937e+02
577             	3.14675954e+02
578             	3.14675958e+02
579             	3.14675969e+02
580             	3.14675955e+02
581             	3.14675928e+02
582             	3.14675892e+02
583             	3.14675841e+02
584             	3.14675783e+02
585             	3.14675711e+02
586             	3.14675637e+02
587             	3.14675561e+02
588             	3.14675489e+02
589             	3.14675460e+02
590             	3.14675403e+02
591             	3.14675343e+02
592             	3.14675301e+02
593             	3.14675282e+02
594             	3.14675286e+02
595             	3.14675300e+02
596             	3.14675335e+02
597             	3.14675400e+02
598             	3.14675431e+02
599             	3.14675527e+02
600             	3.14675620e+02
601             	3.14675723e+02
602             	3.14675826e+02
603             	3.14675936e+02
604             	3.14676041e+02
605             	3.14676144e+02
606             	3.14676244e+02
607             	3.14676316e+02
608             	3.14676395e+02
609             	3.14676439e+02
610             	3.14676483e+02
611             	3.14676516e+02
612             	3.14676519e+02
613             	3.14676526e+02
614             	3.14676496e+02
615             	3.14676457e+02
616             	3.14676393e+02
617             	3.14676351e+02
618             	3.14676303e+02
619             	3.14676261e+02
620             	3.14676235e+02
621             	3.14676218e+02
