# Region        : cellZone pcb
# Cells         : 505
# Volume        : 1.08731551e+00
# Time          	volAverage(T)
1               	3.00005505e+02
2               	3.00016284e+02
3               	3.00031544e+02
4               	3.00050841e+02
5               	3.00072189e+02
6               	3.00095548e+02
7               	3.00121657e+02
8               	3.00150888e+02
9               	3.00182276e+02
10              	3.00215072e+02
11              	3.00249984e+02
12              	3.00287701e+02
13              	3.00327124e+02
14              	3.00369055e+02
15              	3.00410478e+02
16              	3.00450379e+02
17              	3.00493076e+02
18              	3.00537235e+02
19              	3.00581228e+02
20              	3.00626136e+02
21              	3.00672548e+02
22              	3.00718592e+02
23              	3.00764902e+02
24              	3.00812641e+02
25              	3.00859201e+02
26              	3.00904824e+02
27              	3.00949669e+02
28              	3.00997551e+02
29              	3.01047405e+02
30              	3.01098313e+02
31              	3.01149389e+02
32              	3.01200228e+02
33              	3.01251570e+02
34              	3.01302687e+02
35              	3.01354276e+02
36              	3.01403948e+02
37              	3.01453314e+02
38              	3.01500802e+02
39              	3.01549006e+02
40              	3.01596114e+02
41              	3.01640709e+02
42              	3.01685543e+02
43              	3.01732004e+02
44              	3.01779590e+02
45              	3.01826057e+02
46              	3.01871365e+02
47              	3.01916247e+02
48              	3.01960959e+02
49              	3.02006915e+02
50              	3.02052252e+02
51              	3.02096888e+02
52              	3.02141120e+02
53              	3.02185418e+02
54              	3.02230062e+02
55              	3.02274837e+02
56              	3.02315672e+02
57              	3.02357938e+02
58              	3.02398123e+02
59              	3.02434099e+02
60              	3.02469740e+02
61              	3.02506709e+02
62              	3.02544161e+02
63              	3.02583637e+02
64              	3.02620768e+02
65              	3.02658437e+02
66              	3.02694147e+02
67              	3.02730601e+02
68              	3.02766955e+02
69              	3.02803650e+02
70              	3.02836155e+02
71              	3.02866695e+02
72              	3.02898108e+02
73              	3.02930219e+02
74              	3.02964121e+02
75              	3.02997713e+02
76              	3.03025182e+02
77              	3.03058189e+02
78              	3.03090932e+02
79              	3.03118145e+02
80              	3.03147252e+02
81              	3.03173720e+02
82              	3.03203845e+02
83              	3.03235963e+02
84              	3.03261037e+02
85              	3.03282953e+02
86              	3.03305670e+02
87              	3.03329058e+02
88              	3.03355248e+02
89              	3.03376871e+02
90              	3.03397483e+02
91              	3.03420973e+02
92              	3.03441930e+02
93              	3.03462914e+02
94              	3.03482396e+02
95              	3.03504566e+02
96              	3.03529156e+02
97              	3.03550294e+02
98              	3.03569672e+02
99              	3.03589762e+02
100             	3.03608835e+02
101             	3.03627066e+02
102             	3.03640795e+02
103             	3.03651739e+02
104             	3.03663529e+02
105             	3.03676252e+02
106             	3.03690976e+02
107             	3.03707983e+02
108             	3.03726499e+02
109             	3.03743802e+02
110             	3.03760206e+02
111             	3.03776899e+02
112             	3.03793486e+02
113             	3.03808082e+02
114             	3.03822551e+02
115             	3.03837602e+02
116             	3.03852980e+02
117             	3.03868889e+02
118             	3.03883816e+02
119             	3.03898782e+02
120             	3.03915308e+02
121             	3.03929081e+02
122             	3.03943480e+02
123             	3.03953027e+02
124             	3.03961924e+02
125             	3.03972350e+02
126             	3.03982978e+02
127             	3.03993790e+02
128             	3.04004730e+02
129             	3.04016588e+02
130             	3.04029115e+02
131             	3.04043025e+02
132             	3.04057642e+02
133             	3.04070898e+02
134             	3.04084544e+02
135             	3.04098116e+02
136             	3.04111639e+02
137             	3.04125242e+02
138             	3.04138595e+02
139             	3.04149420e+02
140             	3.04159542e+02
141             	3.04170021e+02
142             	3.04180128e+02
143             	3.04191042e+02
144             	3.04203183e+02
145             	3.04215434e+02
146             	3.04228600e+02
147             	3.04240816e+02
148             	3.04254234e+02
149             	3.04270601e+02
150             	3.04285849e+02
151             	3.04297969e+02
152             	3.04308801e+02
153             	3.04319673e+02
154             	3.04330549e+02
155             	3.04341835e+02
156             	3.04353056e+02
157             	3.04363974e+02
158             	3.04374544e+02
159             	3.04384712e+02
160             	3.04393114e+02
161             	3.04401278e+02
162             	3.04409477e+02
163             	3.04417594e+02
164             	3.04425960e+02
165             	3.04434973e+02
166             	3.04444097e+02
167             	3.04453167e+02
168             	3.04462535e+02
169             	3.04472083e+02
170             	3.04481550e+02
171             	3.04491219e+02
172             	3.04501103e+02
173             	3.04510319e+02
174             	3.04519026e+02
175             	3.04528506e+02
176             	3.04537801e+02
177             	3.04546692e+02
178             	3.04555356e+02
179             	3.04563789e+02
180             	3.04572054e+02
181             	3.04579705e+02
182             	3.04587453e+02
183             	3.04595702e+02
184             	3.04604046e+02
185             	3.04611167e+02
186             	3.04618743e+02
187             	3.04625312e+02
188             	3.04631760e+02
189             	3.04637983e+02
190             	3.04644496e+02
191             	3.04651106e+02
192             	3.04657792e+02
193             	3.04664553e+02
194             	3.04671336e+02
195             	3.04678830e+02
196             	3.04686864e+02
197             	3.04695210e+02
198             	3.04703598e+02
199             	3.04710994e+02
200             	3.04717391e+02
201             	3.04723668e+02
202             	3.04729842e+02
203             	3.04735864e+02
204             	3.04741785e+02
205             	3.04747275e+02
206             	3.04752493e+02
207             	3.04757829e+02
208             	3.04763292e+02
209             	3.04768911e+02
210             	3.04774500e+02
211             	3.04780198e+02
212             	3.04785784e+02
213             	3.04790950e+02
214             	3.04795936e+02
215             	3.04800719e+02
216             	3.04805788e+02
217             	3.04810559e+02
218             	3.04815010e+02
219             	3.04819268e+02
220             	3.04823495e+02
221             	3.04827789e+02
222             	3.04832233e+02
223             	3.04836593e+02
224             	3.04841000e+02
225             	3.04845634e+02
226             	3.04850165e+02
227             	3.04854524e+02
228             	3.04858596e+02
229             	3.04862571e+02
230             	3.04866664e+02
231             	3.04870814e+02
232             	3.04875162e+02
233             	3.04879213e+02
234             	3.04883073e+02
235             	3.04887278e+02
236             	3.04891583e+02
237             	3.04895797e+02
238             	3.04899817e+02
239             	3.04903781e+02
240             	3.04907171e+02
241             	3.04911599e+02
242             	3.04914829e+02
243             	3.04917724e+02
244             	3.04920312e+02
245             	3.04923202e+02
246             	3.04926187e+02
247             	3.04929193e+02
248             	3.04932622e+02
249             	3.04936227e+02
250             	3.04939909e+02
251             	3.04943172e+02
252             	3.04946396e+02
253             	3.04949785e+02
254             	3.04952984e+02
255             	3.04955884e+02
256             	3.04958469e+02
257             	3.04961159e+02
258             	3.04963201e+02
259             	3.04964856e+02
260             	3.04966417e+02
261             	3.04967965e+02
262             	3.04969782e+02
263             	3.04971888e+02
264             	3.04974050e+02
265             	3.04976805e+02
266             	3.04980256e+02
267             	3.04983468e+02
268             	3.04986334e+02
269             	3.04989131e+02
270             	3.04991634e+02
271             	3.04994061e+02
272             	3.04996435e+02
273             	3.04998893e+02
274             	3.05001597e+02
275             	3.05004588e+02
276             	3.05007331e+02
277             	3.05009586e+02
278             	3.05011583e+02
279             	3.05013634e+02
280             	3.05015720e+02
281             	3.05017601e+02
282             	3.05019513e+02
283             	3.05021502e+02
284             	3.05023386e+02
285             	3.05025222e+02
286             	3.05027039e+02
287             	3.05028708e+02
288             	3.05030293e+02
289             	3.05031451e+02
290             	3.05032551e+02
291             	3.05033704e+02
292             	3.05034846e+02
293             	3.05036009e+02
294             	3.05037388e+02
295             	3.05039007e+02
296             	3.05040711e+02
297             	3.05042585e+02
298             	3.05044247e+02
299             	3.05045960e+02
300             	3.05047710e+02
301             	3.05049374e+02
302             	3.05051032e+02
303             	3.05052588e+02
304             	3.05054012e+02
305             	3.05055375e+02
306             	3.05056739e+02
307             	3.05057945e+02
308             	3.05059025e+02
309             	3.05060207e+02
310             	3.05061444e+02
311             	3.05062626e+02
312             	3.05063669e+02
313             	3.05064655e+02
314             	3.05065677e+02
315             	3.05066760e+02
316             	3.05068001e+02
317             	3.05069314e+02
318             	3.05070677e+02
319             	3.05072005e+02
320             	3.05073273e+02
321             	3.05074273e+02
322             	3.05075027e+02
323             	3.05075671e+02
324             	3.05076298e+02
325             	3.05076896e+02
326             	3.05077473e+02
327             	3.05078178e+02
328             	3.05079079e+02
329             	3.05080002e+02
330             	3.05080835e+02
331             	3.05081646e+02
332             	3.05082374e+02
333             	3.05083079e+02
334             	3.05083808e+02
335             	3.05084568e+02
336             	3.05085292e+02
337             	3.05085972e+02
338             	3.05086590e+02
339             	3.05087086e+02
340             	3.05087602e+02
341             	3.05088076e+02
342             	3.05088755e+02
343             	3.05089394e+02
344             	3.05090201e+02
345             	3.05090966e+02
346             	3.05091735e+02
347             	3.05092688e+02
348             	3.05093548e+02
349             	3.05094464e+02
350             	3.05095405e+02
351             	3.05096291e+02
352             	3.05096975e+02
353             	3.05097588e+02
354             	3.05098191e+02
355             	3.05098646e+02
356             	3.05099004e+02
357             	3.05099166e+02
358             	3.05099394e+02
359             	3.05099598e+02
360             	3.05099800e+02
361             	3.05100001e+02
362             	3.05100275e+02
363             	3.05100622e+02
364             	3.05101043e+02
365             	3.05101546e+02
366             	3.05101991e+02
367             	3.05102425e+02
368             	3.05102872e+02
369             	3.05103339e+02
370             	3.05103818e+02
371             	3.05104194e+02
372             	3.05104647e+02
373             	3.05105152e+02
374             	3.05105698e+02
375             	3.05106320e+02
376             	3.05106919e+02
377             	3.05107639e+02
378             	3.05108331e+02
379             	3.05108921e+02
380             	3.05109455e+02
381             	3.05109959e+02
382             	3.05110407e+02
383             	3.05110828e+02
384             	3.05111269e+02
385             	3.05111733e+02
386             	3.05112225e+02
387             	3.05112672e+02
388             	3.05113053e+02
389             	3.05113227e+02
390             	3.05113117e+02
391             	3.05112966e+02
392             	3.05112840e+02
393             	3.05112773e+02
394             	3.05112831e+02
395             	3.05112905e+02
396             	3.05113044e+02
397             	3.05113253e+02
398             	3.05113491e+02
399             	3.05113745e+02
400             	3.05114016e+02
401             	3.05114304e+02
402             	3.05114619e+02
403             	3.05114942e+02
404             	3.05115270e+02
405             	3.05115599e+02
406             	3.05116010e+02
407             	3.05116470e+02
408             	3.05116918e+02
409             	3.05117350e+02
410             	3.05117846e+02
411             	3.05118355e+02
412             	3.05118846e+02
413             	3.05119187e+02
414             	3.05119476e+02
415             	3.05119787e+02
416             	3.05120097e+02
417             	3.05120357e+02
418             	3.05120463e+02
419             	3.05120516e+02
420             	3.05120553e+02
421             	3.05120507e+02
422             	3.05120407e+02
423             	3.05120331e+02
424             	3.05120289e+02
425             	3.05120269e+02
426             	3.05120273e+02
427             	3.05120273e+02
428             	3.05120252e+02
429             	3.05120267e+02
430             	3.05120300e+02
431             	3.05120355e+02
432             	3.05120469e+02
433             	3.05120603e+02
434             	3.05120728e+02
435             	3.05120824e+02
436             	3.05120938e+02
437             	3.05121088e+02
438             	3.05121338e+02
439             	3.05121639e+02
440             	3.05121925e+02
441             	3.05122208e+02
442             	3.05122567e+02
443             	3.05122907e+02
444             	3.05123343e+02
445             	3.05123793e+02
446             	3.05124151e+02
447             	3.05124508e+02
448             	3.05124852e+02
449             	3.05125151e+02
450             	3.05125401e+02
451             	3.05125613e+02
452             	3.05125811e+02
453             	3.05125955e+02
454             	3.05126074e+02
455             	3.05126198e+02
456             	3.05126321e+02
457             	3.05126468e+02
458             	3.05126601e+02
459             	3.05126737e+02
460             	3.05126857e+02
461             	3.05126958e+02
462             	3.05127082e+02
463             	3.05127172e+02
464             	3.05127236e+02
465             	3.05127314e+02
466             	3.05127372e+02
467             	3.05127468e+02
468             	3.05127588e+02
469             	3.05127725e+02
470             	3.05127876e+02
471             	3.05128039e+02
472             	3.05128212e+02
473             	3.05128355e+02
474             	3.05128509e+02
475             	3.05128663e+02
476             	3.05128826e+02
477             	3.05129018e+02
478             	3.05129186e+02
479             	3.05129345e+02
480             	3.05129501e+02
481             	3.05129637e+02
482             	3.05129790e+02
483             	3.05129975e+02
484             	3.05130114e+02
485             	3.05130290e+02
486             	3.05130483e+02
487             	3.05130697e+02
488             	3.05130928e+02
489             	3.05131171e+02
490             	3.05131405e+02
491             	3.05131632e+02
492             	3.05131795e+02
493             	3.05131986e+02
494             	3.05132173e+02
495             	3.05132315e+02
496             	3.05132413e+02
497             	3.05132476e+02
498             	3.05132531e+02
499             	3.05132598e+02
500             	3.05132651e+02
501             	3.05132705e+02
502             	3.05132780e+02
503             	3.05132869e+02
504             	3.05132950e+02
505             	3.05133016e+02
506             	3.05133075e+02
507             	3.05133140e+02
508             	3.05133200e+02
509             	3.05133244e+02
510             	3.05133289e+02
511             	3.05133274e+02
512             	3.05133291e+02
513             	3.05133344e+02
514             	3.05133427e+02
515             	3.05133530e+02
516             	3.05133671e+02
517             	3.05133804e+02
518             	3.05133916e+02
519             	3.05134011e+02
520             	3.05134101e+02
521             	3.05134209e+02
522             	3.05134319e+02
523             	3.05134385e+02
524             	3.05134482e+02
525             	3.05134582e+02
526             	3.05134662e+02
527             	3.05134720e+02
528             	3.05134765e+02
529             	3.05134808e+02
530             	3.05134827e+02
531             	3.05134855e+02
532             	3.05134852e+02
533             	3.05134839e+02
534             	3.05134839e+02
535             	3.05134832e+02
536             	3.05134827e+02
537             	3.05134816e+02
538             	3.05134816e+02
539             	3.05134842e+02
540             	3.05134853e+02
541             	3.05134882e+02
542             	3.05134937e+02
543             	3.05134999e+02
544             	3.05135059e+02
545             	3.05135111e+02
546             	3.05135153e+02
547             	3.05135192e+02
548             	3.05135223e+02
549             	3.05135249e+02
550             	3.05135279e+02
551             	3.05135311e+02
552             	3.05135347e+02
553             	3.05135372e+02
554             	3.05135391e+02
555             	3.05135412e+02
556             	3.05135430e+02
557             	3.05135463e+02
558             	3.05135507e+02
559             	3.05135551e+02
560             	3.05135581e+02
561             	3.05135597e+02
562             	3.05135605e+02
563             	3.05135612e+02
564             	3.05135617e+02
565             	3.05135620e+02
566             	3.05135630e+02
567             	3.05135646e+02
568             	3.05135665e+02
569             	3.05135694e+02
570             	3.05135741e+02
571             	3.05135779e+02
572             	3.05135802e+02
573             	3.05135820e+02
574             	3.05135848e+02
575             	3.05135868e+02
576             	3.05135869e+02
577             	3.05135862e+02
578             	3.05135848e+02
579             	3.05135836e+02
580             	3.05135825e+02
581             	3.05135811e+02
582             	3.05135789e+02
583             	3.05135787e+02
584             	3.05135797e+02
585             	3.05135807e+02
586             	3.05135810e+02
587             	3.05135810e+02
588             	3.05135815e+02
589             	3.05135834e+02
590             	3.05135861e+02
591             	3.05135892e+02
592             	3.05135927e+02
593             	3.05135978e+02
594             	3.05136012e+02
595             	3.05136041e+02
596             	3.05136059e+02
597             	3.05136086e+02
598             	3.05136122e+02
599             	3.05136176e+02
600             	3.05136206e+02
601             	3.05136211e+02
602             	3.05136209e+02
603             	3.05136199e+02
604             	3.05136182e+02
605             	3.05136163e+02
606             	3.05136133e+02
607             	3.05136098e+02
608             	3.05136062e+02
609             	3.05136027e+02
610             	3.05135995e+02
611             	3.05135977e+02
612             	3.05135955e+02
613             	3.05135937e+02
614             	3.05135931e+02
615             	3.05135936e+02
616             	3.05135952e+02
617             	3.05135967e+02
618             	3.05135981e+02
619             	3.05135998e+02
620             	3.05136025e+02
621             	3.05136067e+02
