# Region        : cellZone component_4
# Cells         : 272
# Volume        : 5.56830498e-01
# Time          	volAverage(T)
1               	3.00204170e+02
2               	3.00406855e+02
3               	3.00600904e+02
4               	3.00789483e+02
5               	3.00974657e+02
6               	3.01157332e+02
7               	3.01337818e+02
8               	3.01516693e+02
9               	3.01694181e+02
10              	3.01870639e+02
11              	3.02045688e+02
12              	3.02219192e+02
13              	3.02390860e+02
14              	3.02561585e+02
15              	3.02730955e+02
16              	3.02898008e+02
17              	3.03062448e+02
18              	3.03225185e+02
19              	3.03386719e+02
20              	3.03548750e+02
21              	3.03712029e+02
22              	3.03871351e+02
23              	3.04026918e+02
24              	3.04180832e+02
25              	3.04333487e+02
26              	3.04487237e+02
27              	3.04641376e+02
28              	3.04793206e+02
29              	3.04942447e+02
30              	3.05090002e+02
31              	3.05235964e+02
32              	3.05380885e+02
33              	3.05524529e+02
34              	3.05665552e+02
35              	3.05804180e+02
36              	3.05939887e+02
37              	3.06072614e+02
38              	3.06203214e+02
39              	3.06332104e+02
40              	3.06460399e+02
41              	3.06589078e+02
42              	3.06720135e+02
43              	3.06852760e+02
44              	3.06982035e+02
45              	3.07107237e+02
46              	3.07231516e+02
47              	3.07354619e+02
48              	3.07475993e+02
49              	3.07595255e+02
50              	3.07712239e+02
51              	3.07829703e+02
52              	3.07945419e+02
53              	3.08059108e+02
54              	3.08172690e+02
55              	3.08284803e+02
56              	3.08392015e+02
57              	3.08499494e+02
58              	3.08604277e+02
59              	3.08705520e+02
60              	3.08805282e+02
61              	3.08904833e+02
62              	3.09002085e+02
63              	3.09096655e+02
64              	3.09191078e+02
65              	3.09284337e+02
66              	3.09381558e+02
67              	3.09478837e+02
68              	3.09576408e+02
69              	3.09672774e+02
70              	3.09770351e+02
71              	3.09868228e+02
72              	3.09965458e+02
73              	3.10062581e+02
74              	3.10158252e+02
75              	3.10255001e+02
76              	3.10349126e+02
77              	3.10441444e+02
78              	3.10532308e+02
79              	3.10621503e+02
80              	3.10708874e+02
81              	3.10794761e+02
82              	3.10879378e+02
83              	3.10963519e+02
84              	3.11045808e+02
85              	3.11126484e+02
86              	3.11205600e+02
87              	3.11284438e+02
88              	3.11363612e+02
89              	3.11442660e+02
90              	3.11521991e+02
91              	3.11600640e+02
92              	3.11678274e+02
93              	3.11754465e+02
94              	3.11828617e+02
95              	3.11900846e+02
96              	3.11971239e+02
97              	3.12040185e+02
98              	3.12107426e+02
99              	3.12173082e+02
100             	3.12237446e+02
101             	3.12300578e+02
102             	3.12362457e+02
103             	3.12422284e+02
104             	3.12481402e+02
105             	3.12540834e+02
106             	3.12600577e+02
107             	3.12660910e+02
108             	3.12721505e+02
109             	3.12782763e+02
110             	3.12844373e+02
111             	3.12905983e+02
112             	3.12967671e+02
113             	3.13028183e+02
114             	3.13087720e+02
115             	3.13145569e+02
116             	3.13202109e+02
117             	3.13257378e+02
118             	3.13312117e+02
119             	3.13366394e+02
120             	3.13420825e+02
121             	3.13474430e+02
122             	3.13528770e+02
123             	3.13584028e+02
124             	3.13639563e+02
125             	3.13696369e+02
126             	3.13753428e+02
127             	3.13810401e+02
128             	3.13866354e+02
129             	3.13920622e+02
130             	3.13972931e+02
131             	3.14023399e+02
132             	3.14072408e+02
133             	3.14119675e+02
134             	3.14165627e+02
135             	3.14211354e+02
136             	3.14256916e+02
137             	3.14301292e+02
138             	3.14345037e+02
139             	3.14389055e+02
140             	3.14433747e+02
141             	3.14478748e+02
142             	3.14524341e+02
143             	3.14570770e+02
144             	3.14616748e+02
145             	3.14662592e+02
146             	3.14707403e+02
147             	3.14751049e+02
148             	3.14793888e+02
149             	3.14835431e+02
150             	3.14876340e+02
151             	3.14915807e+02
152             	3.14954685e+02
153             	3.14993711e+02
154             	3.15033341e+02
155             	3.15073330e+02
156             	3.15113344e+02
157             	3.15152974e+02
158             	3.15192791e+02
159             	3.15233198e+02
160             	3.15273489e+02
161             	3.15313019e+02
162             	3.15351990e+02
163             	3.15390034e+02
164             	3.15427417e+02
165             	3.15464172e+02
166             	3.15500340e+02
167             	3.15536074e+02
168             	3.15571415e+02
169             	3.15605162e+02
170             	3.15638659e+02
171             	3.15671646e+02
172             	3.15705349e+02
173             	3.15738801e+02
174             	3.15772331e+02
175             	3.15805831e+02
176             	3.15838771e+02
177             	3.15872057e+02
178             	3.15905826e+02
179             	3.15939515e+02
180             	3.15972762e+02
181             	3.16005773e+02
182             	3.16037611e+02
183             	3.16068700e+02
184             	3.16098989e+02
185             	3.16128219e+02
186             	3.16156765e+02
187             	3.16183628e+02
188             	3.16210810e+02
189             	3.16239116e+02
190             	3.16268682e+02
191             	3.16298391e+02
192             	3.16328772e+02
193             	3.16358948e+02
194             	3.16389036e+02
195             	3.16419198e+02
196             	3.16448884e+02
197             	3.16476945e+02
198             	3.16505152e+02
199             	3.16532712e+02
200             	3.16559770e+02
201             	3.16585980e+02
202             	3.16611520e+02
203             	3.16636744e+02
204             	3.16661958e+02
205             	3.16687206e+02
206             	3.16712384e+02
207             	3.16737389e+02
208             	3.16762089e+02
209             	3.16787265e+02
210             	3.16812843e+02
211             	3.16837947e+02
212             	3.16862669e+02
213             	3.16886809e+02
214             	3.16910863e+02
215             	3.16934960e+02
216             	3.16958795e+02
217             	3.16981437e+02
218             	3.17003336e+02
219             	3.17025102e+02
220             	3.17046955e+02
221             	3.17068764e+02
222             	3.17090917e+02
223             	3.17112871e+02
224             	3.17134877e+02
225             	3.17157194e+02
226             	3.17179851e+02
227             	3.17202799e+02
228             	3.17224864e+02
229             	3.17246557e+02
230             	3.17267373e+02
231             	3.17287796e+02
232             	3.17308033e+02
233             	3.17327793e+02
234             	3.17347053e+02
235             	3.17366102e+02
236             	3.17384829e+02
237             	3.17403250e+02
238             	3.17421562e+02
239             	3.17440384e+02
240             	3.17458916e+02
241             	3.17477140e+02
242             	3.17495818e+02
243             	3.17514668e+02
244             	3.17533874e+02
245             	3.17553330e+02
246             	3.17572918e+02
247             	3.17592396e+02
248             	3.17611025e+02
249             	3.17628826e+02
250             	3.17646563e+02
251             	3.17664079e+02
252             	3.17681123e+02
253             	3.17697834e+02
254             	3.17714363e+02
255             	3.17730766e+02
256             	3.17747150e+02
257             	3.17763626e+02
258             	3.17780121e+02
259             	3.17796441e+02
260             	3.17812527e+02
261             	3.17828496e+02
262             	3.17844363e+02
263             	3.17860010e+02
264             	3.17875524e+02
265             	3.17891070e+02
266             	3.17906771e+02
267             	3.17922418e+02
268             	3.17938038e+02
269             	3.17953426e+02
270             	3.17968594e+02
271             	3.17983525e+02
272             	3.17998229e+02
273             	3.18012540e+02
274             	3.18026410e+02
275             	3.18039898e+02
276             	3.18053131e+02
277             	3.18066152e+02
278             	3.18079405e+02
279             	3.18092629e+02
280             	3.18106028e+02
281             	3.18119691e+02
282             	3.18133752e+02
283             	3.18148198e+02
284             	3.18162125e+02
285             	3.18175768e+02
286             	3.18189163e+02
287             	3.18202573e+02
288             	3.18215873e+02
289             	3.18228738e+02
290             	3.18241495e+02
291             	3.18254027e+02
292             	3.18266365e+02
293             	3.18278570e+02
294             	3.18290663e+02
295             	3.18302524e+02
296             	3.18314189e+02
297             	3.18325910e+02
298             	3.18337584e+02
299             	3.18349416e+02
300             	3.18361344e+02
301             	3.18373352e+02
302             	3.18385397e+02
303             	3.18397402e+02
304             	3.18409056e+02
305             	3.18420344e+02
306             	3.18431270e+02
307             	3.18442258e+02
308             	3.18453083e+02
309             	3.18463580e+02
310             	3.18473797e+02
311             	3.18483758e+02
312             	3.18493748e+02
313             	3.18503775e+02
314             	3.18513942e+02
315             	3.18524279e+02
316             	3.18534774e+02
317             	3.18545299e+02
318             	3.18555699e+02
319             	3.18565820e+02
320             	3.18575614e+02
321             	3.18585485e+02
322             	3.18595297e+02
323             	3.18604990e+02
324             	3.18614504e+02
325             	3.18623731e+02
326             	3.18632923e+02
327             	3.18641990e+02
328             	3.18651119e+02
329             	3.18660370e+02
330             	3.18669663e+02
331             	3.18679063e+02
332             	3.18688520e+02
333             	3.18697938e+02
334             	3.18707277e+02
335             	3.18716355e+02
336             	3.18725325e+02
337             	3.18734315e+02
338             	3.18743121e+02
339             	3.18751809e+02
340             	3.18760441e+02
341             	3.18768951e+02
342             	3.18777363e+02
343             	3.18785634e+02
344             	3.18793756e+02
345             	3.18801747e+02
346             	3.18809612e+02
347             	3.18817445e+02
348             	3.18825308e+02
349             	3.18833215e+02
350             	3.18841168e+02
351             	3.18849147e+02
352             	3.18857130e+02
353             	3.18864921e+02
354             	3.18872483e+02
355             	3.18879964e+02
356             	3.18887449e+02
357             	3.18894922e+02
358             	3.18902356e+02
359             	3.18909653e+02
360             	3.18916919e+02
361             	3.18924176e+02
362             	3.18931409e+02
363             	3.18938537e+02
364             	3.18945534e+02
365             	3.18952381e+02
366             	3.18959142e+02
367             	3.18965805e+02
368             	3.18972481e+02
369             	3.18979169e+02
370             	3.18985873e+02
371             	3.18992555e+02
372             	3.18999171e+02
373             	3.19005803e+02
374             	3.19012398e+02
375             	3.19019014e+02
376             	3.19025560e+02
377             	3.19032087e+02
378             	3.19038446e+02
379             	3.19044655e+02
380             	3.19050787e+02
381             	3.19056837e+02
382             	3.19062807e+02
383             	3.19068712e+02
384             	3.19074551e+02
385             	3.19080316e+02
386             	3.19086054e+02
387             	3.19091778e+02
388             	3.19097484e+02
389             	3.19103161e+02
390             	3.19108851e+02
391             	3.19114554e+02
392             	3.19120261e+02
393             	3.19125986e+02
394             	3.19131660e+02
395             	3.19137303e+02
396             	3.19142912e+02
397             	3.19148373e+02
398             	3.19153781e+02
399             	3.19159040e+02
400             	3.19164253e+02
401             	3.19169411e+02
402             	3.19174503e+02
403             	3.19179511e+02
404             	3.19184417e+02
405             	3.19189269e+02
406             	3.19194133e+02
407             	3.19198951e+02
408             	3.19203783e+02
409             	3.19208628e+02
410             	3.19213463e+02
411             	3.19218288e+02
412             	3.19223099e+02
413             	3.19227875e+02
414             	3.19232617e+02
415             	3.19237325e+02
416             	3.19242008e+02
417             	3.19246655e+02
418             	3.19251270e+02
419             	3.19255819e+02
420             	3.19260318e+02
421             	3.19264775e+02
422             	3.19269203e+02
423             	3.19273587e+02
424             	3.19277921e+02
425             	3.19282194e+02
426             	3.19286422e+02
427             	3.19290604e+02
428             	3.19294720e+02
429             	3.19298820e+02
430             	3.19302892e+02
431             	3.19306943e+02
432             	3.19310991e+02
433             	3.19315041e+02
434             	3.19319079e+02
435             	3.19323099e+02
436             	3.19327097e+02
437             	3.19331076e+02
438             	3.19335024e+02
439             	3.19338936e+02
440             	3.19342812e+02
441             	3.19346643e+02
442             	3.19350426e+02
443             	3.19354159e+02
444             	3.19357849e+02
445             	3.19361492e+02
446             	3.19365081e+02
447             	3.19368616e+02
448             	3.19372112e+02
449             	3.19375564e+02
450             	3.19379009e+02
451             	3.19382447e+02
452             	3.19385893e+02
453             	3.19389349e+02
454             	3.19392806e+02
455             	3.19396240e+02
456             	3.19399658e+02
457             	3.19403037e+02
458             	3.19406387e+02
459             	3.19409694e+02
460             	3.19412949e+02
461             	3.19416151e+02
462             	3.19419307e+02
463             	3.19422417e+02
464             	3.19425481e+02
465             	3.19428515e+02
466             	3.19431563e+02
467             	3.19434636e+02
468             	3.19437722e+02
469             	3.19440820e+02
470             	3.19443916e+02
471             	3.19446997e+02
472             	3.19450042e+02
473             	3.19453049e+02
474             	3.19456015e+02
475             	3.19458938e+02
476             	3.19461805e+02
477             	3.19464641e+02
478             	3.19467454e+02
479             	3.19470243e+02
480             	3.19473007e+02
481             	3.19475733e+02
482             	3.19478397e+02
483             	3.19481008e+02
484             	3.19483582e+02
485             	3.19486151e+02
486             	3.19488720e+02
487             	3.19491279e+02
488             	3.19493864e+02
489             	3.19496437e+02
490             	3.19498968e+02
491             	3.19501496e+02
492             	3.19504027e+02
493             	3.19506534e+02
494             	3.19509000e+02
495             	3.19511409e+02
496             	3.19513761e+02
497             	3.19516069e+02
498             	3.19518345e+02
499             	3.19520628e+02
500             	3.19522915e+02
501             	3.19525205e+02
502             	3.19527499e+02
503             	3.19529819e+02
504             	3.19532113e+02
505             	3.19534396e+02
506             	3.19536666e+02
507             	3.19538918e+02
508             	3.19541142e+02
509             	3.19543331e+02
510             	3.19545483e+02
511             	3.19547598e+02
512             	3.19549686e+02
513             	3.19551755e+02
514             	3.19553808e+02
515             	3.19555850e+02
516             	3.19557889e+02
517             	3.19559928e+02
518             	3.19561971e+02
519             	3.19564012e+02
520             	3.19566050e+02
521             	3.19568079e+02
522             	3.19570097e+02
523             	3.19572107e+02
524             	3.19574101e+02
525             	3.19576047e+02
526             	3.19577982e+02
527             	3.19579894e+02
528             	3.19581783e+02
529             	3.19583637e+02
530             	3.19585455e+02
531             	3.19587248e+02
532             	3.19589012e+02
533             	3.19590758e+02
534             	3.19592516e+02
535             	3.19594295e+02
536             	3.19596095e+02
537             	3.19597875e+02
538             	3.19599666e+02
539             	3.19601423e+02
540             	3.19603165e+02
541             	3.19604884e+02
542             	3.19606589e+02
543             	3.19608272e+02
544             	3.19609925e+02
545             	3.19611558e+02
546             	3.19613173e+02
547             	3.19614775e+02
548             	3.19616368e+02
549             	3.19617950e+02
550             	3.19619519e+02
551             	3.19621073e+02
552             	3.19622624e+02
553             	3.19624174e+02
554             	3.19625727e+02
555             	3.19627277e+02
556             	3.19628825e+02
557             	3.19630371e+02
558             	3.19631898e+02
559             	3.19633413e+02
560             	3.19634904e+02
561             	3.19636369e+02
562             	3.19637805e+02
563             	3.19639212e+02
564             	3.19640609e+02
565             	3.19641999e+02
566             	3.19643382e+02
567             	3.19644757e+02
568             	3.19646128e+02
569             	3.19647488e+02
570             	3.19648846e+02
571             	3.19650195e+02
572             	3.19651548e+02
573             	3.19652900e+02
574             	3.19654247e+02
575             	3.19655572e+02
576             	3.19656890e+02
577             	3.19658195e+02
578             	3.19659486e+02
579             	3.19660766e+02
580             	3.19662035e+02
581             	3.19663296e+02
582             	3.19664549e+02
583             	3.19665793e+02
584             	3.19667023e+02
585             	3.19668241e+02
586             	3.19669451e+02
587             	3.19670648e+02
588             	3.19671830e+02
589             	3.19672999e+02
590             	3.19674155e+02
591             	3.19675303e+02
592             	3.19676436e+02
593             	3.19677559e+02
594             	3.19678683e+02
595             	3.19679809e+02
596             	3.19680935e+02
597             	3.19682045e+02
598             	3.19683150e+02
599             	3.19684251e+02
600             	3.19685342e+02
601             	3.19686427e+02
602             	3.19687497e+02
603             	3.19688554e+02
604             	3.19689602e+02
605             	3.19690634e+02
606             	3.19691646e+02
607             	3.19692648e+02
608             	3.19693635e+02
609             	3.19694618e+02
610             	3.19695597e+02
611             	3.19696574e+02
612             	3.19697551e+02
613             	3.19698531e+02
614             	3.19699510e+02
615             	3.19700491e+02
616             	3.19701470e+02
617             	3.19702449e+02
618             	3.19703422e+02
619             	3.19704391e+02
620             	3.19705348e+02
621             	3.19706282e+02
