# Region        : cellZone component_0
# Cells         : 12
# Volume        : 1.37708138e-02
# Time          	volAverage(T)
1               	3.21585719e+02
2               	3.42635245e+02
3               	3.58577423e+02
4               	3.71507836e+02
5               	3.83252339e+02
6               	3.94242661e+02
7               	4.04584723e+02
8               	4.14061099e+02
9               	4.22956112e+02
10              	4.31535134e+02
11              	4.39873679e+02
12              	4.48137211e+02
13              	4.55909858e+02
14              	4.63369318e+02
15              	4.70601123e+02
16              	4.77893964e+02
17              	4.84935570e+02
18              	4.91384441e+02
19              	4.98236131e+02
20              	5.04255238e+02
21              	5.09339660e+02
22              	5.12808996e+02
23              	5.15903598e+02
24              	5.18403160e+02
25              	5.21639886e+02
26              	5.24161282e+02
27              	5.26604561e+02
28              	5.29283695e+02
29              	5.31673120e+02
30              	5.33154589e+02
31              	5.33438580e+02
32              	5.34014285e+02
33              	5.32582297e+02
34              	5.30961495e+02
35              	5.27778048e+02
36              	5.25086584e+02
37              	5.21175819e+02
38              	5.17308281e+02
39              	5.13682342e+02
40              	5.11639748e+02
41              	5.09276154e+02
42              	5.07646301e+02
43              	5.05653205e+02
44              	5.03640643e+02
45              	5.03160960e+02
46              	5.03905438e+02
47              	5.04954558e+02
48              	5.07001291e+02
49              	5.10406159e+02
50              	5.13633873e+02
51              	5.17365491e+02
52              	5.19262830e+02
53              	5.21183007e+02
54              	5.20148743e+02
55              	5.18408697e+02
56              	5.15093086e+02
57              	5.10115809e+02
58              	5.05128990e+02
59              	4.98878037e+02
60              	4.94446961e+02
61              	4.89889585e+02
62              	4.86067692e+02
63              	4.84007749e+02
64              	4.83547732e+02
65              	4.84580404e+02
66              	4.86402242e+02
67              	4.87284258e+02
68              	4.87255038e+02
69              	4.86134702e+02
70              	4.81590615e+02
71              	4.74686875e+02
72              	4.66532276e+02
73              	4.59754324e+02
74              	4.53970266e+02
75              	4.50318669e+02
76              	4.48585931e+02
77              	4.48576771e+02
78              	4.48956730e+02
79              	4.49115396e+02
80              	4.49580610e+02
81              	4.50033645e+02
82              	4.49990591e+02
83              	4.50013977e+02
84              	4.50557198e+02
85              	4.50399176e+02
86              	4.50620420e+02
87              	4.50601143e+02
88              	4.51087196e+02
89              	4.52210347e+02
90              	4.52862722e+02
91              	4.55190093e+02
92              	4.57720367e+02
93              	4.61251564e+02
94              	4.64382244e+02
95              	4.67203890e+02
96              	4.69925245e+02
97              	4.72564603e+02
98              	4.74938800e+02
99              	4.77525381e+02
100             	4.79830757e+02
101             	4.81678678e+02
102             	4.83563575e+02
103             	4.85019316e+02
104             	4.86820825e+02
105             	4.88400516e+02
106             	4.89534270e+02
107             	4.91057803e+02
108             	4.91986631e+02
109             	4.93185883e+02
110             	4.94425274e+02
111             	4.95928085e+02
112             	4.97177919e+02
113             	4.98107273e+02
114             	4.99386380e+02
115             	5.00554549e+02
116             	5.02072067e+02
117             	5.03712438e+02
118             	5.05248927e+02
119             	5.05893642e+02
120             	5.06685669e+02
121             	5.08144489e+02
122             	5.09549273e+02
123             	5.11061510e+02
124             	5.13530338e+02
125             	5.15228519e+02
126             	5.16147444e+02
127             	5.16507146e+02
128             	5.16951161e+02
129             	5.17613660e+02
130             	5.18428852e+02
131             	5.19176964e+02
132             	5.20241870e+02
133             	5.21480989e+02
134             	5.22788318e+02
135             	5.23524556e+02
136             	5.23072618e+02
137             	5.22940018e+02
138             	5.23181448e+02
139             	5.24067371e+02
140             	5.25586613e+02
141             	5.27168385e+02
142             	5.28404578e+02
143             	5.30279447e+02
144             	5.33009470e+02
145             	5.34761336e+02
146             	5.35644837e+02
147             	5.36328890e+02
148             	5.36270004e+02
149             	5.34993619e+02
150             	5.33664278e+02
151             	5.32464017e+02
152             	5.31898602e+02
153             	5.32359721e+02
154             	5.33473659e+02
155             	5.33823050e+02
156             	5.33824514e+02
157             	5.33092513e+02
158             	5.32327427e+02
159             	5.31399889e+02
160             	5.30640502e+02
161             	5.30039987e+02
162             	5.27780951e+02
163             	5.25746737e+02
164             	5.22661959e+02
165             	5.21954531e+02
166             	5.21041219e+02
167             	5.19774147e+02
168             	5.19097425e+02
169             	5.19028122e+02
170             	5.18664278e+02
171             	5.17029031e+02
172             	5.15429295e+02
173             	5.14047548e+02
174             	5.09608830e+02
175             	5.03454701e+02
176             	4.97290299e+02
177             	4.92133629e+02
178             	4.88633708e+02
179             	4.86494136e+02
180             	4.84669503e+02
181             	4.82543457e+02
182             	4.81957090e+02
183             	4.81663556e+02
184             	4.81449303e+02
185             	4.81415303e+02
186             	4.81093461e+02
187             	4.79280995e+02
188             	4.77279647e+02
189             	4.74876566e+02
190             	4.73481275e+02
191             	4.71842278e+02
192             	4.71203594e+02
193             	4.70717080e+02
194             	4.70659507e+02
195             	4.71526181e+02
196             	4.72322647e+02
197             	4.73273633e+02
198             	4.74963096e+02
199             	4.76811129e+02
200             	4.77915097e+02
201             	4.77813799e+02
202             	4.75562599e+02
203             	4.73530122e+02
204             	4.72468651e+02
205             	4.72922990e+02
206             	4.74504709e+02
207             	4.76118234e+02
208             	4.78268983e+02
209             	4.79549419e+02
210             	4.82126098e+02
211             	4.84309129e+02
212             	4.88468731e+02
213             	4.91768310e+02
214             	4.93188712e+02
215             	4.93303175e+02
216             	4.91592435e+02
217             	4.90046655e+02
218             	4.89641293e+02
219             	4.91044922e+02
220             	4.92453520e+02
221             	4.94241413e+02
222             	4.96549917e+02
223             	4.97388755e+02
224             	4.97827888e+02
225             	4.99581061e+02
226             	5.00265621e+02
227             	4.98821111e+02
228             	4.96780871e+02
229             	4.94144628e+02
230             	4.91729830e+02
231             	4.90553921e+02
232             	4.90872172e+02
233             	4.91478150e+02
234             	4.92283682e+02
235             	4.92882317e+02
236             	4.93354829e+02
237             	4.95037462e+02
238             	4.95820844e+02
239             	4.97845502e+02
240             	4.99235882e+02
241             	4.99110514e+02
242             	4.98048804e+02
243             	4.96898013e+02
244             	4.96648892e+02
245             	4.96391201e+02
246             	4.96878385e+02
247             	4.97724627e+02
248             	5.00051248e+02
249             	5.03231136e+02
250             	5.07083818e+02
251             	5.10866579e+02
252             	5.12555385e+02
253             	5.14978939e+02
254             	5.14875902e+02
255             	5.14099404e+02
256             	5.11852354e+02
257             	5.09533439e+02
258             	5.07537784e+02
259             	5.07253826e+02
260             	5.07526485e+02
261             	5.08408596e+02
262             	5.09889568e+02
263             	5.12671239e+02
264             	5.16208827e+02
265             	5.20252109e+02
266             	5.23617800e+02
267             	5.26766139e+02
268             	5.30118694e+02
269             	5.32726849e+02
270             	5.33992372e+02
271             	5.34846676e+02
272             	5.34870471e+02
273             	5.35674890e+02
274             	5.36365549e+02
275             	5.37696569e+02
276             	5.39029997e+02
277             	5.40240433e+02
278             	5.41583010e+02
279             	5.42578821e+02
280             	5.43558828e+02
281             	5.44188654e+02
282             	5.44808935e+02
283             	5.45117886e+02
284             	5.45329755e+02
285             	5.45520797e+02
286             	5.45611951e+02
287             	5.46187082e+02
288             	5.47149887e+02
289             	5.48451806e+02
290             	5.50033000e+02
291             	5.51909677e+02
292             	5.53611558e+02
293             	5.55472219e+02
294             	5.57223970e+02
295             	5.59003993e+02
296             	5.60763152e+02
297             	5.62365388e+02
298             	5.63956378e+02
299             	5.65356863e+02
300             	5.66467894e+02
301             	5.67627074e+02
302             	5.68986791e+02
303             	5.70584347e+02
304             	5.72237843e+02
305             	5.73149243e+02
306             	5.73802382e+02
307             	5.74410150e+02
308             	5.75044185e+02
309             	5.75612106e+02
310             	5.75915581e+02
311             	5.75923107e+02
312             	5.75939724e+02
313             	5.75800230e+02
314             	5.75710576e+02
315             	5.75261498e+02
316             	5.75093656e+02
317             	5.75050856e+02
318             	5.75277475e+02
319             	5.75713038e+02
320             	5.76229427e+02
321             	5.76777053e+02
322             	5.77432384e+02
323             	5.78598701e+02
324             	5.79900155e+02
325             	5.81473969e+02
326             	5.81982738e+02
327             	5.82869845e+02
328             	5.84228141e+02
329             	5.84624334e+02
330             	5.85332571e+02
331             	5.86095916e+02
332             	5.86362126e+02
333             	5.86020407e+02
334             	5.85981861e+02
335             	5.85542841e+02
336             	5.84654124e+02
337             	5.84027552e+02
338             	5.83932784e+02
339             	5.84140657e+02
340             	5.84584541e+02
341             	5.85065584e+02
342             	5.85289714e+02
343             	5.85139579e+02
344             	5.84713014e+02
345             	5.84316655e+02
346             	5.84026046e+02
347             	5.83709223e+02
348             	5.83235974e+02
349             	5.82993686e+02
350             	5.82834483e+02
351             	5.82686127e+02
352             	5.82628217e+02
353             	5.82622427e+02
354             	5.82757885e+02
355             	5.82995990e+02
356             	5.82807299e+02
357             	5.82908556e+02
358             	5.83532653e+02
359             	5.84270845e+02
360             	5.85099327e+02
361             	5.85126993e+02
362             	5.85557345e+02
363             	5.85486528e+02
364             	5.85912470e+02
365             	5.85958694e+02
366             	5.86644713e+02
367             	5.86644922e+02
368             	5.87090797e+02
369             	5.86927068e+02
370             	5.87187594e+02
371             	5.87041766e+02
372             	5.87233049e+02
373             	5.87580373e+02
374             	5.88306720e+02
375             	5.88475337e+02
376             	5.88827053e+02
377             	5.89589235e+02
378             	5.89427837e+02
379             	5.89680746e+02
380             	5.89509130e+02
381             	5.89786945e+02
382             	5.89538133e+02
383             	5.89735326e+02
384             	5.89427334e+02
385             	5.89558718e+02
386             	5.89229183e+02
387             	5.89260097e+02
388             	5.88950991e+02
389             	5.89004592e+02
390             	5.89422258e+02
391             	5.89130167e+02
392             	5.89189112e+02
393             	5.89661743e+02
394             	5.89488719e+02
395             	5.89671341e+02
396             	5.90210610e+02
397             	5.89802620e+02
398             	5.89792158e+02
399             	5.89380770e+02
400             	5.89414556e+02
401             	5.89879895e+02
402             	5.89433589e+02
403             	5.89562264e+02
404             	5.89291872e+02
405             	5.89483156e+02
406             	5.89313212e+02
407             	5.89687830e+02
408             	5.89592384e+02
409             	5.89988593e+02
410             	5.89841450e+02
411             	5.90137783e+02
412             	5.89963804e+02
413             	5.90174084e+02
414             	5.89992272e+02
415             	5.90277644e+02
416             	5.90032939e+02
417             	5.90229826e+02
418             	5.89906074e+02
419             	5.90042378e+02
420             	5.89714052e+02
421             	5.89849589e+02
422             	5.89493868e+02
423             	5.89555246e+02
424             	5.89196252e+02
425             	5.89294839e+02
426             	5.89019420e+02
427             	5.89208081e+02
428             	5.88970677e+02
429             	5.89293449e+02
430             	5.89078515e+02
431             	5.89437563e+02
432             	5.89221053e+02
433             	5.89596230e+02
434             	5.89361695e+02
435             	5.89701944e+02
436             	5.89482400e+02
437             	5.89800687e+02
438             	5.89606446e+02
439             	5.90000602e+02
440             	5.89855013e+02
441             	5.90261648e+02
442             	5.90175956e+02
443             	5.90637627e+02
444             	5.90465713e+02
445             	5.90770761e+02
446             	5.90551757e+02
447             	5.90837139e+02
448             	5.90564583e+02
449             	5.90840738e+02
450             	5.90501406e+02
451             	5.90755251e+02
452             	5.90393663e+02
453             	5.90605261e+02
454             	5.90258511e+02
455             	5.90465247e+02
456             	5.90119123e+02
457             	5.90236774e+02
458             	5.89934761e+02
459             	5.90162635e+02
460             	5.89863182e+02
461             	5.90083764e+02
462             	5.89782294e+02
463             	5.90083396e+02
464             	5.89755666e+02
465             	5.90003338e+02
466             	5.89687904e+02
467             	5.89975314e+02
468             	5.89661088e+02
469             	5.89990246e+02
470             	5.89713237e+02
471             	5.90079069e+02
472             	5.89820071e+02
473             	5.90150113e+02
474             	5.89931080e+02
475             	5.90293047e+02
476             	5.90099126e+02
477             	5.90481325e+02
478             	5.90260643e+02
479             	5.90571758e+02
480             	5.90317080e+02
481             	5.90603005e+02
482             	5.90354857e+02
483             	5.90726186e+02
484             	5.90449355e+02
485             	5.90720448e+02
486             	5.90424332e+02
487             	5.90742040e+02
488             	5.90450755e+02
489             	5.90781182e+02
490             	5.90487643e+02
491             	5.90766647e+02
492             	5.90495750e+02
493             	5.90885707e+02
494             	5.90597668e+02
495             	5.90886787e+02
496             	5.90594411e+02
497             	5.90905400e+02
498             	5.90596712e+02
499             	5.90777601e+02
500             	5.90488334e+02
501             	5.90753239e+02
502             	5.90446210e+02
503             	5.90656745e+02
504             	5.90376065e+02
505             	5.90643708e+02
506             	5.90345549e+02
507             	5.90621764e+02
508             	5.90292487e+02
509             	5.90525110e+02
510             	5.90196592e+02
511             	5.90403785e+02
512             	5.90075465e+02
513             	5.90303717e+02
514             	5.89989522e+02
515             	5.90224693e+02
516             	5.89926112e+02
517             	5.90162744e+02
518             	5.89880471e+02
519             	5.90175032e+02
520             	5.89857450e+02
521             	5.90080316e+02
522             	5.89755299e+02
523             	5.90007755e+02
524             	5.89649643e+02
525             	5.89783062e+02
526             	5.89440340e+02
527             	5.89555753e+02
528             	5.89301512e+02
529             	5.89615093e+02
530             	5.89388886e+02
531             	5.89649352e+02
532             	5.89466149e+02
533             	5.89875990e+02
534             	5.89666664e+02
535             	5.89984565e+02
536             	5.89787780e+02
537             	5.90207340e+02
538             	5.89970764e+02
539             	5.90297735e+02
540             	5.90038859e+02
541             	5.90336780e+02
542             	5.90076379e+02
543             	5.90361283e+02
544             	5.90106070e+02
545             	5.90391397e+02
546             	5.90137437e+02
547             	5.90377184e+02
548             	5.90132394e+02
549             	5.90435931e+02
550             	5.90187079e+02
551             	5.90479332e+02
552             	5.90224450e+02
553             	5.90522222e+02
554             	5.90246466e+02
555             	5.90545624e+02
556             	5.90251376e+02
557             	5.90514710e+02
558             	5.90225805e+02
559             	5.90510179e+02
560             	5.90217583e+02
561             	5.90490406e+02
562             	5.90203843e+02
563             	5.90477094e+02
564             	5.90202845e+02
565             	5.90503610e+02
566             	5.90221313e+02
567             	5.90513563e+02
568             	5.90222852e+02
569             	5.90507977e+02
570             	5.90220553e+02
571             	5.90519052e+02
572             	5.90222287e+02
573             	5.90491406e+02
574             	5.90188492e+02
575             	5.90452652e+02
576             	5.90154708e+02
577             	5.90398193e+02
578             	5.90105323e+02
579             	5.90377023e+02
580             	5.90094671e+02
581             	5.90380914e+02
582             	5.90115556e+02
583             	5.90416791e+02
584             	5.90154621e+02
585             	5.90478712e+02
586             	5.90234112e+02
587             	5.90578798e+02
588             	5.90333976e+02
589             	5.90672710e+02
590             	5.90419352e+02
591             	5.90751651e+02
592             	5.90487999e+02
593             	5.90801819e+02
594             	5.90540219e+02
595             	5.90885563e+02
596             	5.90603019e+02
597             	5.90901974e+02
598             	5.90613176e+02
599             	5.90926388e+02
600             	5.90611678e+02
601             	5.90851389e+02
602             	5.90535228e+02
603             	5.90801260e+02
604             	5.90477791e+02
605             	5.90716277e+02
606             	5.90399957e+02
607             	5.90668453e+02
608             	5.90354386e+02
609             	5.90624228e+02
610             	5.90312338e+02
611             	5.90600432e+02
612             	5.90283557e+02
613             	5.90571821e+02
614             	5.90246999e+02
615             	5.90524677e+02
616             	5.90196364e+02
617             	5.90472256e+02
618             	5.90154253e+02
619             	5.90434202e+02
620             	5.90135150e+02
621             	5.90432723e+02
