# Region        : cellZone component_1
# Cells         : 67
# Volume        : 1.12402147e-01
# Time          	volAverage(T)
1               	3.01031720e+02
2               	3.02040929e+02
3               	3.02936251e+02
4               	3.03782137e+02
5               	3.04618220e+02
6               	3.05453858e+02
7               	3.06290316e+02
8               	3.07134962e+02
9               	3.07976788e+02
10              	3.08817742e+02
11              	3.09645741e+02
12              	3.10452803e+02
13              	3.11223242e+02
14              	3.11982361e+02
15              	3.12728801e+02
16              	3.13456061e+02
17              	3.14209834e+02
18              	3.14933739e+02
19              	3.15639033e+02
20              	3.16322782e+02
21              	3.17006865e+02
22              	3.17701037e+02
23              	3.18395932e+02
24              	3.19087924e+02
25              	3.19773698e+02
26              	3.20433721e+02
27              	3.21064697e+02
28              	3.21678610e+02
29              	3.22261895e+02
30              	3.22848157e+02
31              	3.23397801e+02
32              	3.23920255e+02
33              	3.24495186e+02
34              	3.25043378e+02
35              	3.25592656e+02
36              	3.26132125e+02
37              	3.26673034e+02
38              	3.27211572e+02
39              	3.27745355e+02
40              	3.28228580e+02
41              	3.28703036e+02
42              	3.29144520e+02
43              	3.29585419e+02
44              	3.30017836e+02
45              	3.30438248e+02
46              	3.30848345e+02
47              	3.31243016e+02
48              	3.31645947e+02
49              	3.32067373e+02
50              	3.32491157e+02
51              	3.32909177e+02
52              	3.33332575e+02
53              	3.33749612e+02
54              	3.34155891e+02
55              	3.34544756e+02
56              	3.34929114e+02
57              	3.35282734e+02
58              	3.35635891e+02
59              	3.35966176e+02
60              	3.36288978e+02
61              	3.36609727e+02
62              	3.36901073e+02
63              	3.37145188e+02
64              	3.37366787e+02
65              	3.37605048e+02
66              	3.37859649e+02
67              	3.38134217e+02
68              	3.38439439e+02
69              	3.38752804e+02
70              	3.39073726e+02
71              	3.39399700e+02
72              	3.39723697e+02
73              	3.40027693e+02
74              	3.40357598e+02
75              	3.40690362e+02
76              	3.41034733e+02
77              	3.41389073e+02
78              	3.41749019e+02
79              	3.42086707e+02
80              	3.42447844e+02
81              	3.42794732e+02
82              	3.43149544e+02
83              	3.43497959e+02
84              	3.43837094e+02
85              	3.44170482e+02
86              	3.44496573e+02
87              	3.44799682e+02
88              	3.45086441e+02
89              	3.45365235e+02
90              	3.45622318e+02
91              	3.45893561e+02
92              	3.46164630e+02
93              	3.46435909e+02
94              	3.46672123e+02
95              	3.46906213e+02
96              	3.47132167e+02
97              	3.47353277e+02
98              	3.47564394e+02
99              	3.47766277e+02
100             	3.47968279e+02
101             	3.48175926e+02
102             	3.48394065e+02
103             	3.48619293e+02
104             	3.48818719e+02
105             	3.49011694e+02
106             	3.49225235e+02
107             	3.49436066e+02
108             	3.49635697e+02
109             	3.49847851e+02
110             	3.50049329e+02
111             	3.50216483e+02
112             	3.50384751e+02
113             	3.50553836e+02
114             	3.50722417e+02
115             	3.50890078e+02
116             	3.51055456e+02
117             	3.51217484e+02
118             	3.51378652e+02
119             	3.51539752e+02
120             	3.51699946e+02
121             	3.51855008e+02
122             	3.52014041e+02
123             	3.52151885e+02
124             	3.52307212e+02
125             	3.52467142e+02
126             	3.52635385e+02
127             	3.52804291e+02
128             	3.52969957e+02
129             	3.53125530e+02
130             	3.53282574e+02
131             	3.53433735e+02
132             	3.53559182e+02
133             	3.53686170e+02
134             	3.53809694e+02
135             	3.53913696e+02
136             	3.54019989e+02
137             	3.54131104e+02
138             	3.54249857e+02
139             	3.54374348e+02
140             	3.54482251e+02
141             	3.54605658e+02
142             	3.54708442e+02
143             	3.54814506e+02
144             	3.54924001e+02
145             	3.55038671e+02
146             	3.55139885e+02
147             	3.55261740e+02
148             	3.55355938e+02
149             	3.55459971e+02
150             	3.55559215e+02
151             	3.55664658e+02
152             	3.55769039e+02
153             	3.55858578e+02
154             	3.55942649e+02
155             	3.56028959e+02
156             	3.56112969e+02
157             	3.56192937e+02
158             	3.56270003e+02
159             	3.56345873e+02
160             	3.56425223e+02
161             	3.56496220e+02
162             	3.56544075e+02
163             	3.56607410e+02
164             	3.56676170e+02
165             	3.56749557e+02
166             	3.56818625e+02
167             	3.56890926e+02
168             	3.56964289e+02
169             	3.57036816e+02
170             	3.57107530e+02
171             	3.57179617e+02
172             	3.57254504e+02
173             	3.57330762e+02
174             	3.57401306e+02
175             	3.57444027e+02
176             	3.57502311e+02
177             	3.57563905e+02
178             	3.57624790e+02
179             	3.57660106e+02
180             	3.57708539e+02
181             	3.57756319e+02
182             	3.57803975e+02
183             	3.57850750e+02
184             	3.57890886e+02
185             	3.57936015e+02
186             	3.57982603e+02
187             	3.58025073e+02
188             	3.58067571e+02
189             	3.58109489e+02
190             	3.58150068e+02
191             	3.58188875e+02
192             	3.58225311e+02
193             	3.58260280e+02
194             	3.58295045e+02
195             	3.58331097e+02
196             	3.58368529e+02
197             	3.58404349e+02
198             	3.58441525e+02
199             	3.58477948e+02
200             	3.58512680e+02
201             	3.58546034e+02
202             	3.58579261e+02
203             	3.58612213e+02
204             	3.58646401e+02
205             	3.58677978e+02
206             	3.58705844e+02
207             	3.58731003e+02
208             	3.58756878e+02
209             	3.58781313e+02
210             	3.58803448e+02
211             	3.58825627e+02
212             	3.58847149e+02
213             	3.58869334e+02
214             	3.58885760e+02
215             	3.58900349e+02
216             	3.58913466e+02
217             	3.58927849e+02
218             	3.58942435e+02
219             	3.58956577e+02
220             	3.58966694e+02
221             	3.58976006e+02
222             	3.58988240e+02
223             	3.59000772e+02
224             	3.59014047e+02
225             	3.59024695e+02
226             	3.59034426e+02
227             	3.59046102e+02
228             	3.59056368e+02
229             	3.59065899e+02
230             	3.59075635e+02
231             	3.59085840e+02
232             	3.59096096e+02
233             	3.59106276e+02
234             	3.59116527e+02
235             	3.59126668e+02
236             	3.59135957e+02
237             	3.59143873e+02
238             	3.59151438e+02
239             	3.59159894e+02
240             	3.59171828e+02
241             	3.59180468e+02
242             	3.59187717e+02
243             	3.59194732e+02
244             	3.59202688e+02
245             	3.59211016e+02
246             	3.59216893e+02
247             	3.59221662e+02
248             	3.59225839e+02
249             	3.59229256e+02
250             	3.59232800e+02
251             	3.59232868e+02
252             	3.59235383e+02
253             	3.59238740e+02
254             	3.59241953e+02
255             	3.59244762e+02
256             	3.59247301e+02
257             	3.59249774e+02
258             	3.59252292e+02
259             	3.59258408e+02
260             	3.59261292e+02
261             	3.59263298e+02
262             	3.59265538e+02
263             	3.59268056e+02
264             	3.59270495e+02
265             	3.59272508e+02
266             	3.59274874e+02
267             	3.59277249e+02
268             	3.59279871e+02
269             	3.59282098e+02
270             	3.59284263e+02
271             	3.59286272e+02
272             	3.59288334e+02
273             	3.59288883e+02
274             	3.59289459e+02
275             	3.59290058e+02
276             	3.59290296e+02
277             	3.59290789e+02
278             	3.59291541e+02
279             	3.59292424e+02
280             	3.59293418e+02
281             	3.59294516e+02
282             	3.59294552e+02
283             	3.59294952e+02
284             	3.59295916e+02
285             	3.59296704e+02
286             	3.59297236e+02
287             	3.59297892e+02
288             	3.59298564e+02
289             	3.59299412e+02
290             	3.59299633e+02
291             	3.59299850e+02
292             	3.59300233e+02
293             	3.59300709e+02
294             	3.59301212e+02
295             	3.59301402e+02
296             	3.59301840e+02
297             	3.59302274e+02
298             	3.59302629e+02
299             	3.59302804e+02
300             	3.59303163e+02
301             	3.59303322e+02
302             	3.59303588e+02
303             	3.59304126e+02
304             	3.59304623e+02
305             	3.59305126e+02
306             	3.59305840e+02
307             	3.59306736e+02
308             	3.59307806e+02
309             	3.59308831e+02
310             	3.59310127e+02
311             	3.59310907e+02
312             	3.59312052e+02
313             	3.59312775e+02
314             	3.59314074e+02
315             	3.59315352e+02
316             	3.59316577e+02
317             	3.59317563e+02
318             	3.59318873e+02
319             	3.59320293e+02
320             	3.59321766e+02
321             	3.59324292e+02
322             	3.59325433e+02
323             	3.59326242e+02
324             	3.59327199e+02
325             	3.59328380e+02
326             	3.59328740e+02
327             	3.59330328e+02
328             	3.59332336e+02
329             	3.59333833e+02
330             	3.59335177e+02
331             	3.59337082e+02
332             	3.59339170e+02
333             	3.59341970e+02
334             	3.59344227e+02
335             	3.59346479e+02
336             	3.59348997e+02
337             	3.59351853e+02
338             	3.59354828e+02
339             	3.59357906e+02
340             	3.59361039e+02
341             	3.59364184e+02
342             	3.59367737e+02
343             	3.59371675e+02
344             	3.59376028e+02
345             	3.59382369e+02
346             	3.59387002e+02
347             	3.59391140e+02
348             	3.59395338e+02
349             	3.59399635e+02
350             	3.59403993e+02
351             	3.59408829e+02
352             	3.59413221e+02
353             	3.59417608e+02
354             	3.59421900e+02
355             	3.59424572e+02
356             	3.59427989e+02
357             	3.59432376e+02
358             	3.59436832e+02
359             	3.59441220e+02
360             	3.59445571e+02
361             	3.59449999e+02
362             	3.59454509e+02
363             	3.59459308e+02
364             	3.59464227e+02
365             	3.59469567e+02
366             	3.59474888e+02
367             	3.59480487e+02
368             	3.59486390e+02
369             	3.59492404e+02
370             	3.59498669e+02
371             	3.59504901e+02
372             	3.59511701e+02
373             	3.59518594e+02
374             	3.59525501e+02
375             	3.59532464e+02
376             	3.59540133e+02
377             	3.59548199e+02
378             	3.59554858e+02
379             	3.59562003e+02
380             	3.59568742e+02
381             	3.59575412e+02
382             	3.59579592e+02
383             	3.59585431e+02
384             	3.59592467e+02
385             	3.59599479e+02
386             	3.59606217e+02
387             	3.59612920e+02
388             	3.59619637e+02
389             	3.59626591e+02
390             	3.59633815e+02
391             	3.59642103e+02
392             	3.59649420e+02
393             	3.59656598e+02
394             	3.59664075e+02
395             	3.59671851e+02
396             	3.59679959e+02
397             	3.59687623e+02
398             	3.59695307e+02
399             	3.59703780e+02
400             	3.59712587e+02
401             	3.59721364e+02
402             	3.59730496e+02
403             	3.59739855e+02
404             	3.59750197e+02
405             	3.59758809e+02
406             	3.59766936e+02
407             	3.59775339e+02
408             	3.59783963e+02
409             	3.59792495e+02
410             	3.59800810e+02
411             	3.59809123e+02
412             	3.59817078e+02
413             	3.59825961e+02
414             	3.59835086e+02
415             	3.59844224e+02
416             	3.59853668e+02
417             	3.59863403e+02
418             	3.59872591e+02
419             	3.59881163e+02
420             	3.59889430e+02
421             	3.59898154e+02
422             	3.59907200e+02
423             	3.59915493e+02
424             	3.59923410e+02
425             	3.59932499e+02
426             	3.59941853e+02
427             	3.59951088e+02
428             	3.59960803e+02
429             	3.59970136e+02
430             	3.59978997e+02
431             	3.59987832e+02
432             	3.59996738e+02
433             	3.60005701e+02
434             	3.60014674e+02
435             	3.60023777e+02
436             	3.60032802e+02
437             	3.60041869e+02
438             	3.60051112e+02
439             	3.60060530e+02
440             	3.60070061e+02
441             	3.60079114e+02
442             	3.60088203e+02
443             	3.60097458e+02
444             	3.60106621e+02
445             	3.60115728e+02
446             	3.60126148e+02
447             	3.60135497e+02
448             	3.60144388e+02
449             	3.60153334e+02
450             	3.60162332e+02
451             	3.60171237e+02
452             	3.60180013e+02
453             	3.60188002e+02
454             	3.60196317e+02
455             	3.60204726e+02
456             	3.60213141e+02
457             	3.60221548e+02
458             	3.60230025e+02
459             	3.60238378e+02
460             	3.60246424e+02
461             	3.60255000e+02
462             	3.60263797e+02
463             	3.60272522e+02
464             	3.60281015e+02
465             	3.60289725e+02
466             	3.60298310e+02
467             	3.60306664e+02
468             	3.60315076e+02
469             	3.60323526e+02
470             	3.60332005e+02
471             	3.60340561e+02
472             	3.60349160e+02
473             	3.60357585e+02
474             	3.60366038e+02
475             	3.60374183e+02
476             	3.60382458e+02
477             	3.60390729e+02
478             	3.60398902e+02
479             	3.60407056e+02
480             	3.60415263e+02
481             	3.60423466e+02
482             	3.60431333e+02
483             	3.60439779e+02
484             	3.60447658e+02
485             	3.60455343e+02
486             	3.60463080e+02
487             	3.60470532e+02
488             	3.60478321e+02
489             	3.60486069e+02
490             	3.60493756e+02
491             	3.60501339e+02
492             	3.60508806e+02
493             	3.60516168e+02
494             	3.60523477e+02
495             	3.60530755e+02
496             	3.60538069e+02
497             	3.60545237e+02
498             	3.60551944e+02
499             	3.60558815e+02
500             	3.60565726e+02
501             	3.60572501e+02
502             	3.60579451e+02
503             	3.60586504e+02
504             	3.60593004e+02
505             	3.60600145e+02
506             	3.60607484e+02
507             	3.60614619e+02
508             	3.60621732e+02
509             	3.60629750e+02
510             	3.60636853e+02
511             	3.60643572e+02
512             	3.60650211e+02
513             	3.60657332e+02
514             	3.60664027e+02
515             	3.60670520e+02
516             	3.60676949e+02
517             	3.60683212e+02
518             	3.60689153e+02
519             	3.60695345e+02
520             	3.60701519e+02
521             	3.60707462e+02
522             	3.60713264e+02
523             	3.60719003e+02
524             	3.60724573e+02
525             	3.60730140e+02
526             	3.60735712e+02
527             	3.60741629e+02
528             	3.60747119e+02
529             	3.60752487e+02
530             	3.60757899e+02
531             	3.60763336e+02
532             	3.60768809e+02
533             	3.60773968e+02
534             	3.60779366e+02
535             	3.60784784e+02
536             	3.60790138e+02
537             	3.60795447e+02
538             	3.60800310e+02
539             	3.60805448e+02
540             	3.60810629e+02
541             	3.60815774e+02
542             	3.60820816e+02
543             	3.60826040e+02
544             	3.60830891e+02
545             	3.60835569e+02
546             	3.60840181e+02
547             	3.60844791e+02
548             	3.60849347e+02
549             	3.60853853e+02
550             	3.60858355e+02
551             	3.60862823e+02
552             	3.60867263e+02
553             	3.60871613e+02
554             	3.60875972e+02
555             	3.60880296e+02
556             	3.60884606e+02
557             	3.60888930e+02
558             	3.60893221e+02
559             	3.60897319e+02
560             	3.60901450e+02
561             	3.60905589e+02
562             	3.60909712e+02
563             	3.60913781e+02
564             	3.60917810e+02
565             	3.60921999e+02
566             	3.60926017e+02
567             	3.60930304e+02
568             	3.60934332e+02
569             	3.60938268e+02
570             	3.60942253e+02
571             	3.60946312e+02
572             	3.60950353e+02
573             	3.60954194e+02
574             	3.60958173e+02
575             	3.60962159e+02
576             	3.60966076e+02
577             	3.60969850e+02
578             	3.60973528e+02
579             	3.60977007e+02
580             	3.60980420e+02
581             	3.60983868e+02
582             	3.60987201e+02
583             	3.60990542e+02
584             	3.60994028e+02
585             	3.60997637e+02
586             	3.61000776e+02
587             	3.61003825e+02
588             	3.61006846e+02
589             	3.61009764e+02
590             	3.61012098e+02
591             	3.61015046e+02
592             	3.61018124e+02
593             	3.61021140e+02
594             	3.61024092e+02
595             	3.61026982e+02
596             	3.61029804e+02
597             	3.61032602e+02
598             	3.61035369e+02
599             	3.61038135e+02
600             	3.61040873e+02
601             	3.61043580e+02
602             	3.61046268e+02
603             	3.61048950e+02
604             	3.61051628e+02
605             	3.61054329e+02
606             	3.61057129e+02
607             	3.61059989e+02
608             	3.61062756e+02
609             	3.61065495e+02
610             	3.61068212e+02
611             	3.61070857e+02
612             	3.61073583e+02
613             	3.61076255e+02
614             	3.61078876e+02
615             	3.61081357e+02
616             	3.61083929e+02
617             	3.61086556e+02
618             	3.61089149e+02
619             	3.61091717e+02
620             	3.61094272e+02
621             	3.61096661e+02
