# Region        : cellZone component_3
# Cells         : 33
# Volume        : 5.06249961e-02
# Time          	volAverage(T)
1               	3.02901418e+02
2               	3.05685965e+02
3               	3.07933451e+02
4               	3.09886851e+02
5               	3.11645777e+02
6               	3.13198267e+02
7               	3.14639454e+02
8               	3.16028045e+02
9               	3.17236081e+02
10              	3.18394227e+02
11              	3.19421477e+02
12              	3.20259478e+02
13              	3.20890464e+02
14              	3.21384808e+02
15              	3.21859829e+02
16              	3.22440921e+02
17              	3.23142225e+02
18              	3.23855708e+02
19              	3.24522677e+02
20              	3.25199308e+02
21              	3.25873888e+02
22              	3.26662928e+02
23              	3.27237848e+02
24              	3.27966293e+02
25              	3.28566036e+02
26              	3.29102668e+02
27              	3.29657432e+02
28              	3.30133848e+02
29              	3.30406669e+02
30              	3.30588656e+02
31              	3.30641113e+02
32              	3.30627815e+02
33              	3.30699734e+02
34              	3.30700164e+02
35              	3.30503990e+02
36              	3.30173991e+02
37              	3.29676302e+02
38              	3.29026864e+02
39              	3.28435161e+02
40              	3.28166945e+02
41              	3.28122200e+02
42              	3.28136623e+02
43              	3.28095044e+02
44              	3.28000229e+02
45              	3.27969978e+02
46              	3.27737182e+02
47              	3.27524570e+02
48              	3.27407706e+02
49              	3.27421834e+02
50              	3.27371373e+02
51              	3.27226018e+02
52              	3.27201145e+02
53              	3.27317343e+02
54              	3.27553898e+02
55              	3.27625700e+02
56              	3.27662478e+02
57              	3.27722157e+02
58              	3.27813798e+02
59              	3.27906455e+02
60              	3.28027169e+02
61              	3.28277423e+02
62              	3.28480096e+02
63              	3.28597562e+02
64              	3.28857179e+02
65              	3.29034827e+02
66              	3.29120249e+02
67              	3.29130997e+02
68              	3.29095241e+02
69              	3.29115313e+02
70              	3.29146906e+02
71              	3.29168599e+02
72              	3.29275074e+02
73              	3.29425974e+02
74              	3.29701648e+02
75              	3.29863029e+02
76              	3.30063517e+02
77              	3.30238341e+02
78              	3.30314160e+02
79              	3.30517847e+02
80              	3.30664743e+02
81              	3.30877462e+02
82              	3.31013016e+02
83              	3.31239909e+02
84              	3.31348666e+02
85              	3.31439071e+02
86              	3.31333449e+02
87              	3.31286416e+02
88              	3.31221639e+02
89              	3.31288295e+02
90              	3.31386739e+02
91              	3.31507288e+02
92              	3.31625386e+02
93              	3.31739038e+02
94              	3.31885068e+02
95              	3.32059637e+02
96              	3.32266757e+02
97              	3.32528949e+02
98              	3.32893839e+02
99              	3.33326088e+02
100             	3.33785687e+02
101             	3.34127395e+02
102             	3.34311658e+02
103             	3.34582295e+02
104             	3.34850120e+02
105             	3.35085893e+02
106             	3.35299820e+02
107             	3.35459325e+02
108             	3.35595284e+02
109             	3.35763513e+02
110             	3.35911071e+02
111             	3.36041725e+02
112             	3.36154808e+02
113             	3.36281781e+02
114             	3.36465820e+02
115             	3.36654340e+02
116             	3.36800422e+02
117             	3.36941143e+02
118             	3.37093560e+02
119             	3.37277828e+02
120             	3.37446941e+02
121             	3.37573679e+02
122             	3.37668779e+02
123             	3.37654367e+02
124             	3.37604837e+02
125             	3.37606182e+02
126             	3.37587550e+02
127             	3.37524470e+02
128             	3.37455002e+02
129             	3.37389649e+02
130             	3.37258689e+02
131             	3.37201179e+02
132             	3.37160266e+02
133             	3.37114881e+02
134             	3.37083879e+02
135             	3.37082212e+02
136             	3.37113097e+02
137             	3.37143835e+02
138             	3.37176735e+02
139             	3.37208462e+02
140             	3.37061933e+02
141             	3.37009928e+02
142             	3.37007313e+02
143             	3.37018574e+02
144             	3.36983236e+02
145             	3.36932069e+02
146             	3.36887103e+02
147             	3.36853848e+02
148             	3.36832769e+02
149             	3.36817166e+02
150             	3.36802578e+02
151             	3.36808571e+02
152             	3.36847677e+02
153             	3.36898981e+02
154             	3.36965079e+02
155             	3.37058262e+02
156             	3.37177449e+02
157             	3.37320231e+02
158             	3.37471717e+02
159             	3.37640228e+02
160             	3.37685497e+02
161             	3.37770461e+02
162             	3.37897437e+02
163             	3.38029478e+02
164             	3.38167555e+02
165             	3.38222242e+02
166             	3.38307742e+02
167             	3.38389456e+02
168             	3.38469446e+02
169             	3.38527750e+02
170             	3.38558663e+02
171             	3.38579700e+02
172             	3.38617619e+02
173             	3.38677730e+02
174             	3.38766627e+02
175             	3.38886023e+02
176             	3.39021368e+02
177             	3.39166981e+02
178             	3.39207919e+02
179             	3.39305134e+02
180             	3.39324344e+02
181             	3.39392521e+02
182             	3.39449679e+02
183             	3.39490551e+02
184             	3.39528483e+02
185             	3.39573399e+02
186             	3.39626237e+02
187             	3.39606603e+02
188             	3.39625635e+02
189             	3.39662217e+02
190             	3.39635915e+02
191             	3.39652581e+02
192             	3.39689144e+02
193             	3.39741954e+02
194             	3.39694026e+02
195             	3.39687587e+02
196             	3.39708477e+02
197             	3.39725510e+02
198             	3.39734642e+02
199             	3.39760993e+02
200             	3.39790769e+02
201             	3.39815740e+02
202             	3.39840593e+02
203             	3.39871355e+02
204             	3.39922307e+02
205             	3.39884531e+02
206             	3.39899492e+02
207             	3.39942522e+02
208             	3.39915338e+02
209             	3.39934904e+02
210             	3.39974863e+02
211             	3.40018608e+02
212             	3.40052651e+02
213             	3.40083868e+02
214             	3.40112152e+02
215             	3.40137074e+02
216             	3.40167129e+02
217             	3.40115793e+02
218             	3.40122199e+02
219             	3.40159392e+02
220             	3.40121040e+02
221             	3.40132577e+02
222             	3.40175447e+02
223             	3.40137206e+02
224             	3.40145572e+02
225             	3.40176763e+02
226             	3.40128111e+02
227             	3.40124643e+02
228             	3.40144598e+02
229             	3.40177921e+02
230             	3.40205982e+02
231             	3.40138657e+02
232             	3.40123960e+02
233             	3.40137248e+02
234             	3.40165647e+02
235             	3.40206659e+02
236             	3.40159330e+02
237             	3.40164906e+02
238             	3.40202570e+02
239             	3.40254646e+02
240             	3.40309291e+02
241             	3.40281290e+02
242             	3.40305124e+02
243             	3.40362670e+02
244             	3.40342021e+02
245             	3.40366613e+02
246             	3.40412782e+02
247             	3.40467585e+02
248             	3.40495497e+02
249             	3.40531217e+02
250             	3.40576254e+02
251             	3.40624614e+02
252             	3.40667968e+02
253             	3.40711609e+02
254             	3.40651817e+02
255             	3.40654010e+02
256             	3.40688950e+02
257             	3.40732162e+02
258             	3.40691226e+02
259             	3.40707355e+02
260             	3.40745734e+02
261             	3.40694963e+02
262             	3.40699302e+02
263             	3.40732038e+02
264             	3.40689653e+02
265             	3.40692186e+02
266             	3.40715038e+02
267             	3.40758975e+02
268             	3.40694462e+02
269             	3.40676632e+02
270             	3.40683151e+02
271             	3.40682392e+02
272             	3.40688884e+02
273             	3.40709432e+02
274             	3.40638524e+02
275             	3.40618459e+02
276             	3.40629946e+02
277             	3.40568635e+02
278             	3.40556290e+02
279             	3.40570490e+02
280             	3.40610492e+02
281             	3.40544244e+02
282             	3.40531762e+02
283             	3.40550492e+02
284             	3.40586284e+02
285             	3.40533291e+02
286             	3.40532310e+02
287             	3.40563810e+02
288             	3.40520786e+02
289             	3.40526110e+02
290             	3.40560468e+02
291             	3.40520259e+02
292             	3.40528999e+02
293             	3.40563748e+02
294             	3.40530280e+02
295             	3.40543138e+02
296             	3.40579102e+02
297             	3.40636517e+02
298             	3.40587330e+02
299             	3.40586786e+02
300             	3.40615491e+02
301             	3.40576316e+02
302             	3.40584101e+02
303             	3.40615459e+02
304             	3.40657546e+02
305             	3.40697480e+02
306             	3.40735027e+02
307             	3.40678602e+02
308             	3.40679167e+02
309             	3.40709955e+02
310             	3.40765724e+02
311             	3.40714810e+02
312             	3.40715219e+02
313             	3.40745385e+02
314             	3.40797168e+02
315             	3.40747119e+02
316             	3.40748778e+02
317             	3.40778301e+02
318             	3.40820491e+02
319             	3.40770479e+02
320             	3.40771526e+02
321             	3.40798718e+02
322             	3.40844859e+02
323             	3.40788110e+02
324             	3.40782706e+02
325             	3.40805592e+02
326             	3.40852909e+02
327             	3.40791980e+02
328             	3.40782202e+02
329             	3.40802654e+02
330             	3.40752642e+02
331             	3.40750697e+02
332             	3.40772615e+02
333             	3.40723603e+02
334             	3.40722365e+02
335             	3.40745312e+02
336             	3.40781330e+02
337             	3.40723551e+02
338             	3.40716136e+02
339             	3.40733590e+02
340             	3.40767579e+02
341             	3.40712430e+02
342             	3.40706692e+02
343             	3.40727540e+02
344             	3.40764624e+02
345             	3.40707194e+02
346             	3.40700987e+02
347             	3.40723305e+02
348             	3.40766962e+02
349             	3.40708159e+02
350             	3.40700114e+02
351             	3.40720961e+02
352             	3.40760213e+02
353             	3.40701738e+02
354             	3.40695026e+02
355             	3.40716734e+02
356             	3.40758300e+02
357             	3.40700538e+02
358             	3.40694266e+02
359             	3.40716949e+02
360             	3.40761674e+02
361             	3.40703634e+02
362             	3.40696446e+02
363             	3.40719173e+02
364             	3.40766207e+02
365             	3.40707981e+02
366             	3.40700135e+02
367             	3.40722327e+02
368             	3.40755715e+02
369             	3.40704268e+02
370             	3.40702738e+02
371             	3.40727890e+02
372             	3.40769819e+02
373             	3.40717164e+02
374             	3.40714875e+02
375             	3.40740895e+02
376             	3.40789198e+02
377             	3.40735529e+02
378             	3.40732073e+02
379             	3.40757985e+02
380             	3.40808861e+02
381             	3.40751979e+02
382             	3.40745701e+02
383             	3.40769009e+02
384             	3.40811930e+02
385             	3.40755748e+02
386             	3.40750040e+02
387             	3.40772747e+02
388             	3.40808044e+02
389             	3.40753529e+02
390             	3.40749549e+02
391             	3.40772844e+02
392             	3.40812036e+02
393             	3.40756060e+02
394             	3.40750409e+02
395             	3.40773095e+02
396             	3.40813378e+02
397             	3.40757514e+02
398             	3.40751719e+02
399             	3.40773748e+02
400             	3.40813175e+02
401             	3.40757745e+02
402             	3.40752777e+02
403             	3.40776003e+02
404             	3.40732197e+02
405             	3.40735402e+02
406             	3.40762212e+02
407             	3.40718928e+02
408             	3.40722363e+02
409             	3.40749811e+02
410             	3.40800129e+02
411             	3.40744085e+02
412             	3.40737549e+02
413             	3.40760155e+02
414             	3.40793998e+02
415             	3.40740940e+02
416             	3.40737917e+02
417             	3.40761841e+02
418             	3.40801003e+02
419             	3.40746660e+02
420             	3.40742398e+02
421             	3.40766152e+02
422             	3.40806780e+02
423             	3.40751206e+02
424             	3.40746481e+02
425             	3.40770064e+02
426             	3.40812348e+02
427             	3.40757041e+02
428             	3.40751798e+02
429             	3.40775074e+02
430             	3.40817202e+02
431             	3.40761521e+02
432             	3.40756945e+02
433             	3.40780603e+02
434             	3.40823307e+02
435             	3.40767629e+02
436             	3.40762801e+02
437             	3.40786020e+02
438             	3.40826533e+02
439             	3.40770913e+02
440             	3.40765510e+02
441             	3.40787655e+02
442             	3.40827101e+02
443             	3.40772359e+02
444             	3.40767934e+02
445             	3.40790915e+02
446             	3.40833418e+02
447             	3.40777250e+02
448             	3.40771310e+02
449             	3.40793796e+02
450             	3.40835662e+02
451             	3.40778290e+02
452             	3.40771313e+02
453             	3.40793856e+02
454             	3.40836141e+02
455             	3.40778037e+02
456             	3.40770589e+02
457             	3.40791806e+02
458             	3.40827512e+02
459             	3.40771862e+02
460             	3.40767357e+02
461             	3.40789041e+02
462             	3.40825450e+02
463             	3.40771332e+02
464             	3.40768160e+02
465             	3.40792295e+02
466             	3.40837335e+02
467             	3.40781767e+02
468             	3.40776544e+02
469             	3.40801172e+02
470             	3.40755169e+02
471             	3.40756758e+02
472             	3.40782743e+02
473             	3.40830963e+02
474             	3.40774525e+02
475             	3.40767851e+02
476             	3.40788493e+02
477             	3.40822516e+02
478             	3.40771238e+02
479             	3.40769789e+02
480             	3.40795807e+02
481             	3.40751622e+02
482             	3.40754655e+02
483             	3.40781349e+02
484             	3.40738405e+02
485             	3.40742322e+02
486             	3.40769937e+02
487             	3.40808776e+02
488             	3.40851441e+02
489             	3.40790250e+02
490             	3.40783040e+02
491             	3.40803854e+02
492             	3.40839074e+02
493             	3.40784556e+02
494             	3.40781023e+02
495             	3.40806383e+02
496             	3.40759520e+02
497             	3.40760631e+02
498             	3.40786745e+02
499             	3.40743099e+02
500             	3.40745916e+02
501             	3.40769460e+02
502             	3.40800884e+02
503             	3.40845254e+02
504             	3.40786431e+02
505             	3.40779989e+02
506             	3.40802866e+02
507             	3.40758593e+02
508             	3.40762050e+02
509             	3.40791013e+02
510             	3.40745116e+02
511             	3.40746944e+02
512             	3.40774138e+02
513             	3.40807261e+02
514             	3.40833563e+02
515             	3.40864096e+02
516             	3.40802246e+02
517             	3.40795170e+02
518             	3.40814722e+02
519             	3.40853643e+02
520             	3.40795301e+02
521             	3.40788440e+02
522             	3.40811737e+02
523             	3.40763812e+02
524             	3.40764586e+02
525             	3.40790044e+02
526             	3.40744644e+02
527             	3.40745897e+02
528             	3.40767592e+02
529             	3.40794890e+02
530             	3.40828118e+02
531             	3.40870761e+02
532             	3.40808570e+02
533             	3.40801701e+02
534             	3.40835621e+02
535             	3.40782890e+02
536             	3.40779598e+02
537             	3.40808904e+02
538             	3.40761241e+02
539             	3.40760165e+02
540             	3.40778014e+02
541             	3.40803246e+02
542             	3.40840798e+02
543             	3.40785933e+02
544             	3.40781778e+02
545             	3.40804421e+02
546             	3.40843753e+02
547             	3.40788699e+02
548             	3.40786057e+02
549             	3.40812467e+02
550             	3.40764890e+02
551             	3.40766353e+02
552             	3.40794222e+02
553             	3.40828224e+02
554             	3.40844836e+02
555             	3.40862619e+02
556             	3.40892775e+02
557             	3.40926181e+02
558             	3.40857503e+02
559             	3.40846153e+02
560             	3.40867608e+02
561             	3.40816557e+02
562             	3.40815067e+02
563             	3.40842839e+02
564             	3.40790542e+02
565             	3.40786175e+02
566             	3.40807316e+02
567             	3.40830154e+02
568             	3.40840564e+02
569             	3.40867312e+02
570             	3.40891793e+02
571             	3.40828250e+02
572             	3.40820342e+02
573             	3.40841141e+02
574             	3.40883547e+02
575             	3.40824238e+02
576             	3.40817598e+02
577             	3.40852909e+02
578             	3.40797347e+02
579             	3.40790203e+02
580             	3.40811530e+02
581             	3.40851731e+02
582             	3.40867244e+02
583             	3.40867171e+02
584             	3.40870707e+02
585             	3.40893537e+02
586             	3.40928780e+02
587             	3.40864375e+02
588             	3.40855773e+02
589             	3.40901388e+02
590             	3.40836274e+02
591             	3.40820138e+02
592             	3.40837302e+02
593             	3.40788007e+02
594             	3.40785538e+02
595             	3.40804315e+02
596             	3.40825041e+02
597             	3.40834543e+02
598             	3.40855516e+02
599             	3.40862464e+02
600             	3.40882110e+02
601             	3.40823072e+02
602             	3.40819379e+02
603             	3.40845747e+02
604             	3.40802261e+02
605             	3.40808987e+02
606             	3.40859174e+02
607             	3.40801126e+02
608             	3.40791091e+02
609             	3.40809396e+02
610             	3.40758778e+02
611             	3.40754330e+02
612             	3.40768390e+02
613             	3.40779076e+02
614             	3.40797787e+02
615             	3.40815318e+02
616             	3.40837963e+02
617             	3.40879288e+02
618             	3.40819155e+02
619             	3.40814828e+02
620             	3.40843790e+02
621             	3.40796497e+02
