# Region        : cellZone fluid
# Cells         : 8720
# Volume        : 1.67433169e+01
# Time          	volAverage(T)
1               	3.00000188e+02
2               	3.00000346e+02
3               	3.00001499e+02
4               	3.00003140e+02
5               	3.00004178e+02
6               	3.00005333e+02
7               	3.00006361e+02
8               	3.00007697e+02
9               	3.00009529e+02
10              	3.00011450e+02
11              	3.00013643e+02
12              	3.00016197e+02
13              	3.00018912e+02
14              	3.00021941e+02
15              	3.00024857e+02
16              	3.00028393e+02
17              	3.00031491e+02
18              	3.00034573e+02
19              	3.00037945e+02
20              	3.00040714e+02
21              	3.00043763e+02
22              	3.00048688e+02
23              	3.00051711e+02
24              	3.00055197e+02
25              	3.00059517e+02
26              	3.00062961e+02
27              	3.00065778e+02
28              	3.00068857e+02
29              	3.00071465e+02
30              	3.00074826e+02
31              	3.00079600e+02
32              	3.00085721e+02
33              	3.00090978e+02
34              	3.00096823e+02
35              	3.00101209e+02
36              	3.00106381e+02
37              	3.00112848e+02
38              	3.00120503e+02
39              	3.00127664e+02
40              	3.00131504e+02
41              	3.00137609e+02
42              	3.00142165e+02
43              	3.00146547e+02
44              	3.00152542e+02
45              	3.00160241e+02
46              	3.00169888e+02
47              	3.00176791e+02
48              	3.00185327e+02
49              	3.00190951e+02
50              	3.00200658e+02
51              	3.00209298e+02
52              	3.00217758e+02
53              	3.00226438e+02
54              	3.00230836e+02
55              	3.00236859e+02
56              	3.00245221e+02
57              	3.00252671e+02
58              	3.00258771e+02
59              	3.00264877e+02
60              	3.00271196e+02
61              	3.00277296e+02
62              	3.00284933e+02
63              	3.00292008e+02
64              	3.00297275e+02
65              	3.00303871e+02
66              	3.00307450e+02
67              	3.00315244e+02
68              	3.00320707e+02
69              	3.00324745e+02
70              	3.00329727e+02
71              	3.00335242e+02
72              	3.00343231e+02
73              	3.00351037e+02
74              	3.00356464e+02
75              	3.00363438e+02
76              	3.00368673e+02
77              	3.00377655e+02
78              	3.00382721e+02
79              	3.00388842e+02
80              	3.00392851e+02
81              	3.00396576e+02
82              	3.00403202e+02
83              	3.00408182e+02
84              	3.00415327e+02
85              	3.00419583e+02
86              	3.00425776e+02
87              	3.00432239e+02
88              	3.00440825e+02
89              	3.00445733e+02
90              	3.00449275e+02
91              	3.00452782e+02
92              	3.00456086e+02
93              	3.00458912e+02
94              	3.00466488e+02
95              	3.00473217e+02
96              	3.00477348e+02
97              	3.00481039e+02
98              	3.00486697e+02
99              	3.00495274e+02
100             	3.00501659e+02
101             	3.00505848e+02
102             	3.00508959e+02
103             	3.00517917e+02
104             	3.00523956e+02
105             	3.00528141e+02
106             	3.00532529e+02
107             	3.00537582e+02
108             	3.00542708e+02
109             	3.00544812e+02
110             	3.00549980e+02
111             	3.00556091e+02
112             	3.00561961e+02
113             	3.00567965e+02
114             	3.00573693e+02
115             	3.00579483e+02
116             	3.00584710e+02
117             	3.00591992e+02
118             	3.00597940e+02
119             	3.00603668e+02
120             	3.00608123e+02
121             	3.00611403e+02
122             	3.00613953e+02
123             	3.00616305e+02
124             	3.00619489e+02
125             	3.00624501e+02
126             	3.00629585e+02
127             	3.00633417e+02
128             	3.00638187e+02
129             	3.00641974e+02
130             	3.00645681e+02
131             	3.00649482e+02
132             	3.00653582e+02
133             	3.00655806e+02
134             	3.00658251e+02
135             	3.00661758e+02
136             	3.00664473e+02
137             	3.00666147e+02
138             	3.00667467e+02
139             	3.00669435e+02
140             	3.00671084e+02
141             	3.00673100e+02
142             	3.00674450e+02
143             	3.00675288e+02
144             	3.00675936e+02
145             	3.00677077e+02
146             	3.00678474e+02
147             	3.00679143e+02
148             	3.00679049e+02
149             	3.00679201e+02
150             	3.00681276e+02
151             	3.00681985e+02
152             	3.00681299e+02
153             	3.00681265e+02
154             	3.00681125e+02
155             	3.00681250e+02
156             	3.00681943e+02
157             	3.00683289e+02
158             	3.00684384e+02
159             	3.00686350e+02
160             	3.00688549e+02
161             	3.00691624e+02
162             	3.00695753e+02
163             	3.00700927e+02
164             	3.00704987e+02
165             	3.00708145e+02
166             	3.00711180e+02
167             	3.00714172e+02
168             	3.00717527e+02
169             	3.00721225e+02
170             	3.00724811e+02
171             	3.00728831e+02
172             	3.00732031e+02
173             	3.00735682e+02
174             	3.00740028e+02
175             	3.00743433e+02
176             	3.00745661e+02
177             	3.00747198e+02
178             	3.00748431e+02
179             	3.00750202e+02
180             	3.00751279e+02
181             	3.00753991e+02
182             	3.00754688e+02
183             	3.00757256e+02
184             	3.00758134e+02
185             	3.00759666e+02
186             	3.00760957e+02
187             	3.00762019e+02
188             	3.00762950e+02
189             	3.00763600e+02
190             	3.00764013e+02
191             	3.00764365e+02
192             	3.00763608e+02
193             	3.00763548e+02
194             	3.00763358e+02
195             	3.00763522e+02
196             	3.00763232e+02
197             	3.00762404e+02
198             	3.00762157e+02
199             	3.00761694e+02
200             	3.00761165e+02
201             	3.00760582e+02
202             	3.00760062e+02
203             	3.00759860e+02
204             	3.00759288e+02
205             	3.00759029e+02
206             	3.00758995e+02
207             	3.00759784e+02
208             	3.00761379e+02
209             	3.00762311e+02
210             	3.00762084e+02
211             	3.00763430e+02
212             	3.00763943e+02
213             	3.00764849e+02
214             	3.00765992e+02
215             	3.00767205e+02
216             	3.00768471e+02
217             	3.00768759e+02
218             	3.00768649e+02
219             	3.00770558e+02
220             	3.00771986e+02
221             	3.00772670e+02
222             	3.00773143e+02
223             	3.00774147e+02
224             	3.00774727e+02
225             	3.00775223e+02
226             	3.00775579e+02
227             	3.00775537e+02
228             	3.00775056e+02
229             	3.00774640e+02
230             	3.00774287e+02
231             	3.00774068e+02
232             	3.00774262e+02
233             	3.00775066e+02
234             	3.00775569e+02
235             	3.00776071e+02
236             	3.00776563e+02
237             	3.00776558e+02
238             	3.00776553e+02
239             	3.00777453e+02
240             	3.00778171e+02
241             	3.00778738e+02
242             	3.00779223e+02
243             	3.00780078e+02
244             	3.00780634e+02
245             	3.00781366e+02
246             	3.00781902e+02
247             	3.00782488e+02
248             	3.00783195e+02
249             	3.00783942e+02
250             	3.00784596e+02
251             	3.00785257e+02
252             	3.00786352e+02
253             	3.00787423e+02
254             	3.00788821e+02
255             	3.00790626e+02
256             	3.00792528e+02
257             	3.00794253e+02
258             	3.00795922e+02
259             	3.00797706e+02
260             	3.00799187e+02
261             	3.00800661e+02
262             	3.00801519e+02
263             	3.00802233e+02
264             	3.00803375e+02
265             	3.00804290e+02
266             	3.00805259e+02
267             	3.00806223e+02
268             	3.00807136e+02
269             	3.00808028e+02
270             	3.00808584e+02
271             	3.00808935e+02
272             	3.00809058e+02
273             	3.00809325e+02
274             	3.00809586e+02
275             	3.00809715e+02
276             	3.00809771e+02
277             	3.00809731e+02
278             	3.00809683e+02
279             	3.00809603e+02
280             	3.00810106e+02
281             	3.00809732e+02
282             	3.00809476e+02
283             	3.00809239e+02
284             	3.00808998e+02
285             	3.00808736e+02
286             	3.00808464e+02
287             	3.00808255e+02
288             	3.00807963e+02
289             	3.00807673e+02
290             	3.00807358e+02
291             	3.00807057e+02
292             	3.00806684e+02
293             	3.00806325e+02
294             	3.00805957e+02
295             	3.00805625e+02
296             	3.00804960e+02
297             	3.00804765e+02
298             	3.00804531e+02
299             	3.00804315e+02
300             	3.00804076e+02
301             	3.00803819e+02
302             	3.00803539e+02
303             	3.00803277e+02
304             	3.00802954e+02
305             	3.00802684e+02
306             	3.00802351e+02
307             	3.00802279e+02
308             	3.00802351e+02
309             	3.00801841e+02
310             	3.00801424e+02
311             	3.00801105e+02
312             	3.00800764e+02
313             	3.00800243e+02
314             	3.00799693e+02
315             	3.00799283e+02
316             	3.00798617e+02
317             	3.00797906e+02
318             	3.00797098e+02
319             	3.00796253e+02
320             	3.00795484e+02
321             	3.00794732e+02
322             	3.00794277e+02
323             	3.00793724e+02
324             	3.00793097e+02
325             	3.00792449e+02
326             	3.00791801e+02
327             	3.00791122e+02
328             	3.00790463e+02
329             	3.00789519e+02
330             	3.00788840e+02
331             	3.00788062e+02
332             	3.00787402e+02
333             	3.00786842e+02
334             	3.00786324e+02
335             	3.00786019e+02
336             	3.00785856e+02
337             	3.00785650e+02
338             	3.00785497e+02
339             	3.00785291e+02
340             	3.00785220e+02
341             	3.00784765e+02
342             	3.00784258e+02
343             	3.00783795e+02
344             	3.00783386e+02
345             	3.00783076e+02
346             	3.00782782e+02
347             	3.00782634e+02
348             	3.00782469e+02
349             	3.00782255e+02
350             	3.00782003e+02
351             	3.00781713e+02
352             	3.00781490e+02
353             	3.00781309e+02
354             	3.00781085e+02
355             	3.00780764e+02
356             	3.00780452e+02
357             	3.00780229e+02
358             	3.00780010e+02
359             	3.00779751e+02
360             	3.00779472e+02
361             	3.00779273e+02
362             	3.00779217e+02
363             	3.00779188e+02
364             	3.00779148e+02
365             	3.00779128e+02
366             	3.00779091e+02
367             	3.00779032e+02
368             	3.00778922e+02
369             	3.00778768e+02
370             	3.00778583e+02
371             	3.00778378e+02
372             	3.00778170e+02
373             	3.00777991e+02
374             	3.00777796e+02
375             	3.00777547e+02
376             	3.00777293e+02
377             	3.00777058e+02
378             	3.00776827e+02
379             	3.00776626e+02
380             	3.00776437e+02
381             	3.00776258e+02
382             	3.00776085e+02
383             	3.00775931e+02
384             	3.00775799e+02
385             	3.00775676e+02
386             	3.00775627e+02
387             	3.00775595e+02
388             	3.00775490e+02
389             	3.00775382e+02
390             	3.00775319e+02
391             	3.00775304e+02
392             	3.00775325e+02
393             	3.00775368e+02
394             	3.00775421e+02
395             	3.00775506e+02
396             	3.00775428e+02
397             	3.00775593e+02
398             	3.00775761e+02
399             	3.00775936e+02
400             	3.00776113e+02
401             	3.00776287e+02
402             	3.00776434e+02
403             	3.00776517e+02
404             	3.00776548e+02
405             	3.00776547e+02
406             	3.00776514e+02
407             	3.00776462e+02
408             	3.00776387e+02
409             	3.00776306e+02
410             	3.00776204e+02
411             	3.00776075e+02
412             	3.00775871e+02
413             	3.00775676e+02
414             	3.00775437e+02
415             	3.00775187e+02
416             	3.00774985e+02
417             	3.00774773e+02
418             	3.00774580e+02
419             	3.00774410e+02
420             	3.00774260e+02
421             	3.00774107e+02
422             	3.00773954e+02
423             	3.00773875e+02
424             	3.00773715e+02
425             	3.00773553e+02
426             	3.00773413e+02
427             	3.00773296e+02
428             	3.00773276e+02
429             	3.00773257e+02
430             	3.00773285e+02
431             	3.00773370e+02
432             	3.00773470e+02
433             	3.00773583e+02
434             	3.00773742e+02
435             	3.00773852e+02
436             	3.00774061e+02
437             	3.00774277e+02
438             	3.00774502e+02
439             	3.00774639e+02
440             	3.00774882e+02
441             	3.00774906e+02
442             	3.00775146e+02
443             	3.00775333e+02
444             	3.00775488e+02
445             	3.00775610e+02
446             	3.00775712e+02
447             	3.00775769e+02
448             	3.00775792e+02
449             	3.00775770e+02
450             	3.00775700e+02
451             	3.00775583e+02
452             	3.00775540e+02
453             	3.00775379e+02
454             	3.00775257e+02
455             	3.00775230e+02
456             	3.00774930e+02
457             	3.00774663e+02
458             	3.00774391e+02
459             	3.00774123e+02
460             	3.00773882e+02
461             	3.00773694e+02
462             	3.00773569e+02
463             	3.00773434e+02
464             	3.00773318e+02
465             	3.00773236e+02
466             	3.00772988e+02
467             	3.00772989e+02
468             	3.00772918e+02
469             	3.00772906e+02
470             	3.00772919e+02
471             	3.00772952e+02
472             	3.00773011e+02
473             	3.00773120e+02
474             	3.00773242e+02
475             	3.00773398e+02
476             	3.00773588e+02
477             	3.00773806e+02
478             	3.00774024e+02
479             	3.00774254e+02
480             	3.00774480e+02
481             	3.00774713e+02
482             	3.00774949e+02
483             	3.00775169e+02
484             	3.00775367e+02
485             	3.00775507e+02
486             	3.00775583e+02
487             	3.00775625e+02
488             	3.00775619e+02
489             	3.00775617e+02
490             	3.00775550e+02
491             	3.00775503e+02
492             	3.00775406e+02
493             	3.00775294e+02
494             	3.00775200e+02
495             	3.00775087e+02
496             	3.00774974e+02
497             	3.00774866e+02
498             	3.00774791e+02
499             	3.00774737e+02
500             	3.00774696e+02
501             	3.00774685e+02
502             	3.00774689e+02
503             	3.00774677e+02
504             	3.00774677e+02
505             	3.00774729e+02
506             	3.00774781e+02
507             	3.00774859e+02
508             	3.00774962e+02
509             	3.00775097e+02
510             	3.00775241e+02
511             	3.00775419e+02
512             	3.00775631e+02
513             	3.00775860e+02
514             	3.00776095e+02
515             	3.00776357e+02
516             	3.00776593e+02
517             	3.00776799e+02
518             	3.00777029e+02
519             	3.00777252e+02
520             	3.00777335e+02
521             	3.00777526e+02
522             	3.00777658e+02
523             	3.00777761e+02
524             	3.00777829e+02
525             	3.00777835e+02
526             	3.00777816e+02
527             	3.00777760e+02
528             	3.00777677e+02
529             	3.00777563e+02
530             	3.00777419e+02
531             	3.00777249e+02
532             	3.00777055e+02
533             	3.00776838e+02
534             	3.00776676e+02
535             	3.00776527e+02
536             	3.00776446e+02
537             	3.00776278e+02
538             	3.00776122e+02
539             	3.00775970e+02
540             	3.00775778e+02
541             	3.00775591e+02
542             	3.00775514e+02
543             	3.00775298e+02
544             	3.00775113e+02
545             	3.00774971e+02
546             	3.00774886e+02
547             	3.00774886e+02
548             	3.00774945e+02
549             	3.00775055e+02
550             	3.00775254e+02
551             	3.00775372e+02
552             	3.00775463e+02
553             	3.00775405e+02
554             	3.00775640e+02
555             	3.00775848e+02
556             	3.00776054e+02
557             	3.00776277e+02
558             	3.00776519e+02
559             	3.00776728e+02
560             	3.00776945e+02
561             	3.00777169e+02
562             	3.00777344e+02
563             	3.00777509e+02
564             	3.00777681e+02
565             	3.00777768e+02
566             	3.00777785e+02
567             	3.00777769e+02
568             	3.00777909e+02
569             	3.00777812e+02
570             	3.00777694e+02
571             	3.00777559e+02
572             	3.00777589e+02
573             	3.00777442e+02
574             	3.00777293e+02
575             	3.00777160e+02
576             	3.00777031e+02
577             	3.00776900e+02
578             	3.00776765e+02
579             	3.00776711e+02
580             	3.00776647e+02
581             	3.00776631e+02
582             	3.00776618e+02
583             	3.00776612e+02
584             	3.00776638e+02
585             	3.00776695e+02
586             	3.00776780e+02
587             	3.00776827e+02
588             	3.00776949e+02
589             	3.00777125e+02
590             	3.00777348e+02
591             	3.00777288e+02
592             	3.00777606e+02
593             	3.00777884e+02
594             	3.00778142e+02
595             	3.00778389e+02
596             	3.00778609e+02
597             	3.00778796e+02
598             	3.00778937e+02
599             	3.00779061e+02
600             	3.00779175e+02
601             	3.00779215e+02
602             	3.00779232e+02
603             	3.00779270e+02
604             	3.00779191e+02
605             	3.00779050e+02
606             	3.00779152e+02
607             	3.00778950e+02
608             	3.00778777e+02
609             	3.00778597e+02
610             	3.00778414e+02
611             	3.00778255e+02
612             	3.00778095e+02
613             	3.00777922e+02
614             	3.00777819e+02
615             	3.00777716e+02
616             	3.00777668e+02
617             	3.00777620e+02
618             	3.00777686e+02
619             	3.00777728e+02
620             	3.00777713e+02
621             	3.00777715e+02
