# Region        : cellZone component_1
# Cells         : 66
# Volume        : 8.53344360e-02
# Time          	volAverage(T)
1               	3.00848594e+02
2               	3.01679502e+02
3               	3.02408604e+02
4               	3.03080617e+02
5               	3.03730428e+02
6               	3.04369612e+02
7               	3.04997596e+02
8               	3.05615789e+02
9               	3.06225849e+02
10              	3.06823083e+02
11              	3.07393898e+02
12              	3.07942229e+02
13              	3.08473809e+02
14              	3.08989672e+02
15              	3.09495004e+02
16              	3.09991817e+02
17              	3.10481342e+02
18              	3.10965663e+02
19              	3.11422892e+02
20              	3.11862367e+02
21              	3.12287739e+02
22              	3.12698430e+02
23              	3.13065848e+02
24              	3.13416114e+02
25              	3.13788090e+02
26              	3.14179457e+02
27              	3.14568433e+02
28              	3.14958956e+02
29              	3.15341309e+02
30              	3.15735140e+02
31              	3.16128948e+02
32              	3.16516386e+02
33              	3.16895752e+02
34              	3.17270961e+02
35              	3.17638527e+02
36              	3.18014271e+02
37              	3.18380385e+02
38              	3.18748227e+02
39              	3.19093855e+02
40              	3.19398239e+02
41              	3.19681117e+02
42              	3.19953340e+02
43              	3.20201298e+02
44              	3.20429800e+02
45              	3.20627148e+02
46              	3.20793227e+02
47              	3.20977768e+02
48              	3.21187450e+02
49              	3.21413144e+02
50              	3.21644444e+02
51              	3.21923917e+02
52              	3.22174829e+02
53              	3.22414108e+02
54              	3.22638339e+02
55              	3.22865588e+02
56              	3.23054948e+02
57              	3.23262415e+02
58              	3.23422046e+02
59              	3.23537462e+02
60              	3.23645892e+02
61              	3.23741376e+02
62              	3.23848551e+02
63              	3.23918504e+02
64              	3.23977719e+02
65              	3.24005129e+02
66              	3.24041913e+02
67              	3.24077861e+02
68              	3.24123490e+02
69              	3.24177994e+02
70              	3.24244691e+02
71              	3.24329608e+02
72              	3.24434982e+02
73              	3.24541702e+02
74              	3.24647879e+02
75              	3.24756481e+02
76              	3.24864890e+02
77              	3.24965827e+02
78              	3.25050875e+02
79              	3.25124067e+02
80              	3.25195882e+02
81              	3.25256061e+02
82              	3.25304901e+02
83              	3.25348468e+02
84              	3.25393437e+02
85              	3.25441922e+02
86              	3.25486739e+02
87              	3.25518982e+02
88              	3.25560298e+02
89              	3.25605753e+02
90              	3.25652629e+02
91              	3.25685559e+02
92              	3.25718028e+02
93              	3.25747563e+02
94              	3.25773433e+02
95              	3.25782976e+02
96              	3.25794127e+02
97              	3.25811513e+02
98              	3.25825387e+02
99              	3.25834380e+02
100             	3.25845684e+02
101             	3.25862535e+02
102             	3.25881052e+02
103             	3.25894025e+02
104             	3.25906935e+02
105             	3.25919851e+02
106             	3.25938168e+02
107             	3.25964902e+02
108             	3.26001072e+02
109             	3.26037278e+02
110             	3.26069868e+02
111             	3.26104918e+02
112             	3.26145994e+02
113             	3.26186853e+02
114             	3.26229863e+02
115             	3.26286508e+02
116             	3.26344953e+02
117             	3.26405241e+02
118             	3.26467103e+02
119             	3.26535381e+02
120             	3.26611996e+02
121             	3.26671540e+02
122             	3.26754525e+02
123             	3.26855302e+02
124             	3.26967426e+02
125             	3.27076677e+02
126             	3.27173984e+02
127             	3.27255547e+02
128             	3.27315794e+02
129             	3.27369522e+02
130             	3.27410907e+02
131             	3.27439425e+02
132             	3.27458551e+02
133             	3.27470919e+02
134             	3.27475817e+02
135             	3.27472366e+02
136             	3.27461850e+02
137             	3.27442514e+02
138             	3.27425884e+02
139             	3.27381881e+02
140             	3.27346378e+02
141             	3.27319150e+02
142             	3.27301187e+02
143             	3.27268583e+02
144             	3.27187699e+02
145             	3.27134164e+02
146             	3.27089133e+02
147             	3.27041157e+02
148             	3.26985627e+02
149             	3.26925309e+02
150             	3.26866409e+02
151             	3.26811666e+02
152             	3.26770160e+02
153             	3.26725955e+02
154             	3.26680912e+02
155             	3.26646535e+02
156             	3.26620716e+02
157             	3.26593407e+02
158             	3.26555617e+02
159             	3.26525694e+02
160             	3.26500178e+02
161             	3.26471950e+02
162             	3.26441042e+02
163             	3.26412501e+02
164             	3.26386296e+02
165             	3.26365298e+02
166             	3.26351115e+02
167             	3.26342732e+02
168             	3.26338942e+02
169             	3.26333528e+02
170             	3.26335238e+02
171             	3.26342146e+02
172             	3.26344386e+02
173             	3.26346819e+02
174             	3.26352761e+02
175             	3.26357124e+02
176             	3.26362878e+02
177             	3.26362801e+02
178             	3.26361178e+02
179             	3.26353006e+02
180             	3.26348868e+02
181             	3.26341155e+02
182             	3.26335622e+02
183             	3.26335284e+02
184             	3.26337307e+02
185             	3.26323778e+02
186             	3.26315123e+02
187             	3.26311139e+02
188             	3.26313307e+02
189             	3.26307988e+02
190             	3.26306714e+02
191             	3.26313471e+02
192             	3.26325711e+02
193             	3.26333952e+02
194             	3.26341454e+02
195             	3.26350690e+02
196             	3.26363734e+02
197             	3.26363590e+02
198             	3.26364979e+02
199             	3.26371749e+02
200             	3.26369029e+02
201             	3.26372111e+02
202             	3.26380980e+02
203             	3.26371670e+02
204             	3.26374269e+02
205             	3.26384048e+02
206             	3.26396193e+02
207             	3.26407686e+02
208             	3.26409957e+02
209             	3.26412466e+02
210             	3.26411202e+02
211             	3.26403650e+02
212             	3.26401124e+02
213             	3.26388180e+02
214             	3.26380101e+02
215             	3.26373977e+02
216             	3.26367140e+02
217             	3.26358983e+02
218             	3.26357643e+02
219             	3.26359388e+02
220             	3.26352458e+02
221             	3.26345691e+02
222             	3.26345045e+02
223             	3.26348963e+02
224             	3.26351443e+02
225             	3.26354135e+02
226             	3.26355836e+02
227             	3.26355650e+02
228             	3.26352224e+02
229             	3.26348586e+02
230             	3.26346127e+02
231             	3.26338518e+02
232             	3.26332318e+02
233             	3.26326856e+02
234             	3.26321425e+02
235             	3.26313757e+02
236             	3.26304168e+02
237             	3.26295884e+02
238             	3.26284740e+02
239             	3.26280083e+02
240             	3.26272947e+02
241             	3.26269966e+02
242             	3.26265282e+02
243             	3.26264593e+02
244             	3.26261035e+02
245             	3.26257483e+02
246             	3.26255148e+02
247             	3.26252753e+02
248             	3.26241719e+02
249             	3.26239489e+02
250             	3.26230320e+02
251             	3.26222114e+02
252             	3.26212237e+02
253             	3.26200332e+02
254             	3.26188605e+02
255             	3.26175650e+02
256             	3.26162341e+02
257             	3.26150095e+02
258             	3.26139800e+02
259             	3.26130990e+02
260             	3.26122954e+02
261             	3.26118696e+02
262             	3.26117020e+02
263             	3.26114613e+02
264             	3.26108511e+02
265             	3.26102279e+02
266             	3.26096816e+02
267             	3.26092433e+02
268             	3.26086615e+02
269             	3.26076645e+02
270             	3.26070442e+02
271             	3.26069193e+02
272             	3.26068591e+02
273             	3.26067943e+02
274             	3.26065193e+02
275             	3.26060570e+02
276             	3.26055229e+02
277             	3.26052066e+02
278             	3.26047215e+02
279             	3.26045700e+02
280             	3.26044298e+02
281             	3.26039802e+02
282             	3.26036345e+02
283             	3.26035308e+02
284             	3.26033408e+02
285             	3.26030644e+02
286             	3.26030328e+02
287             	3.26029693e+02
288             	3.26022300e+02
289             	3.26018665e+02
290             	3.26016570e+02
291             	3.26013843e+02
292             	3.26010452e+02
293             	3.26007173e+02
294             	3.26003595e+02
295             	3.26001595e+02
296             	3.26002565e+02
297             	3.26003440e+02
298             	3.26000897e+02
299             	3.25999066e+02
300             	3.25999026e+02
301             	3.25999335e+02
302             	3.25999048e+02
303             	3.25996696e+02
304             	3.25992238e+02
305             	3.25990397e+02
306             	3.25994428e+02
307             	3.25996911e+02
308             	3.25995558e+02
309             	3.25991800e+02
310             	3.25988785e+02
311             	3.25986771e+02
312             	3.25985298e+02
313             	3.25980633e+02
314             	3.25976466e+02
315             	3.25974284e+02
316             	3.25973434e+02
317             	3.25970749e+02
318             	3.25967342e+02
319             	3.25964376e+02
320             	3.25965032e+02
321             	3.25964851e+02
322             	3.25962284e+02
323             	3.25957965e+02
324             	3.25954912e+02
325             	3.25953702e+02
326             	3.25951879e+02
327             	3.25948225e+02
328             	3.25945193e+02
329             	3.25943950e+02
330             	3.25943629e+02
331             	3.25943755e+02
332             	3.25943201e+02
333             	3.25941652e+02
334             	3.25939005e+02
335             	3.25935196e+02
336             	3.25934303e+02
337             	3.25934327e+02
338             	3.25933506e+02
339             	3.25932310e+02
340             	3.25930894e+02
341             	3.25929672e+02
342             	3.25928901e+02
343             	3.25929198e+02
344             	3.25929880e+02
345             	3.25928947e+02
346             	3.25927936e+02
347             	3.25927906e+02
348             	3.25928679e+02
349             	3.25929626e+02
350             	3.25930313e+02
351             	3.25930670e+02
352             	3.25930840e+02
353             	3.25930751e+02
354             	3.25929921e+02
355             	3.25928777e+02
356             	3.25926783e+02
357             	3.25925001e+02
358             	3.25924090e+02
359             	3.25922053e+02
360             	3.25920789e+02
361             	3.25919827e+02
362             	3.25918729e+02
363             	3.25917844e+02
364             	3.25917266e+02
365             	3.25917137e+02
366             	3.25915919e+02
367             	3.25915301e+02
368             	3.25914360e+02
369             	3.25913451e+02
370             	3.25912781e+02
371             	3.25912289e+02
372             	3.25911018e+02
373             	3.25910369e+02
374             	3.25908665e+02
375             	3.25907900e+02
376             	3.25907245e+02
377             	3.25906186e+02
378             	3.25904924e+02
379             	3.25903236e+02
380             	3.25901551e+02
381             	3.25900120e+02
382             	3.25898954e+02
383             	3.25897957e+02
384             	3.25897142e+02
385             	3.25896261e+02
386             	3.25895607e+02
387             	3.25895126e+02
388             	3.25895043e+02
389             	3.25895078e+02
390             	3.25894548e+02
391             	3.25894003e+02
392             	3.25893832e+02
393             	3.25893549e+02
394             	3.25893480e+02
395             	3.25893155e+02
396             	3.25892799e+02
397             	3.25892434e+02
398             	3.25892132e+02
399             	3.25890407e+02
400             	3.25889969e+02
401             	3.25889992e+02
402             	3.25889678e+02
403             	3.25888828e+02
404             	3.25887611e+02
405             	3.25886591e+02
406             	3.25885868e+02
407             	3.25885508e+02
408             	3.25885115e+02
409             	3.25884711e+02
410             	3.25884396e+02
411             	3.25883844e+02
412             	3.25883397e+02
413             	3.25883090e+02
414             	3.25882884e+02
415             	3.25882630e+02
416             	3.25882302e+02
417             	3.25881776e+02
418             	3.25881091e+02
419             	3.25879722e+02
420             	3.25878631e+02
421             	3.25878383e+02
422             	3.25878155e+02
423             	3.25877699e+02
424             	3.25877202e+02
425             	3.25876784e+02
426             	3.25876382e+02
427             	3.25876073e+02
428             	3.25876083e+02
429             	3.25875645e+02
430             	3.25875308e+02
431             	3.25875152e+02
432             	3.25875117e+02
433             	3.25875140e+02
434             	3.25875159e+02
435             	3.25875207e+02
436             	3.25875321e+02
437             	3.25875483e+02
438             	3.25875575e+02
439             	3.25875573e+02
440             	3.25875419e+02
441             	3.25875233e+02
442             	3.25875016e+02
443             	3.25874943e+02
444             	3.25874835e+02
445             	3.25874641e+02
446             	3.25874360e+02
447             	3.25874106e+02
448             	3.25874027e+02
449             	3.25874209e+02
450             	3.25874143e+02
451             	3.25873739e+02
452             	3.25873376e+02
453             	3.25873149e+02
454             	3.25872929e+02
455             	3.25872479e+02
456             	3.25872055e+02
457             	3.25871647e+02
458             	3.25871614e+02
459             	3.25871568e+02
460             	3.25871499e+02
461             	3.25871234e+02
462             	3.25870821e+02
463             	3.25870339e+02
464             	3.25870034e+02
465             	3.25869843e+02
466             	3.25869327e+02
467             	3.25868908e+02
468             	3.25868746e+02
469             	3.25868843e+02
470             	3.25869000e+02
471             	3.25869085e+02
472             	3.25868984e+02
473             	3.25868826e+02
474             	3.25868527e+02
475             	3.25868192e+02
476             	3.25867514e+02
477             	3.25867051e+02
478             	3.25867194e+02
479             	3.25867419e+02
480             	3.25867461e+02
481             	3.25867432e+02
482             	3.25867561e+02
483             	3.25867548e+02
484             	3.25866914e+02
485             	3.25866214e+02
486             	3.25865829e+02
487             	3.25865486e+02
488             	3.25865774e+02
489             	3.25865670e+02
490             	3.25865665e+02
491             	3.25866002e+02
492             	3.25866236e+02
493             	3.25866241e+02
494             	3.25866134e+02
495             	3.25866126e+02
496             	3.25866184e+02
497             	3.25865880e+02
498             	3.25865318e+02
499             	3.25864988e+02
500             	3.25864982e+02
501             	3.25865055e+02
502             	3.25864878e+02
503             	3.25865023e+02
504             	3.25864882e+02
505             	3.25864731e+02
506             	3.25864694e+02
507             	3.25864533e+02
508             	3.25864176e+02
509             	3.25863718e+02
510             	3.25863257e+02
511             	3.25862826e+02
512             	3.25862413e+02
513             	3.25862147e+02
514             	3.25861956e+02
515             	3.25861969e+02
516             	3.25861936e+02
517             	3.25861831e+02
518             	3.25861792e+02
519             	3.25861816e+02
520             	3.25861823e+02
521             	3.25861809e+02
522             	3.25861807e+02
523             	3.25861679e+02
524             	3.25861429e+02
525             	3.25860921e+02
526             	3.25860908e+02
527             	3.25861031e+02
528             	3.25861020e+02
529             	3.25860830e+02
530             	3.25860622e+02
531             	3.25860557e+02
532             	3.25860688e+02
533             	3.25860866e+02
534             	3.25860603e+02
535             	3.25860363e+02
536             	3.25860392e+02
537             	3.25860576e+02
538             	3.25860789e+02
539             	3.25860804e+02
540             	3.25860943e+02
541             	3.25860966e+02
542             	3.25861017e+02
543             	3.25860997e+02
544             	3.25860862e+02
545             	3.25860747e+02
546             	3.25860622e+02
547             	3.25860552e+02
548             	3.25860532e+02
549             	3.25860557e+02
550             	3.25860632e+02
551             	3.25860827e+02
552             	3.25860932e+02
553             	3.25860923e+02
554             	3.25860958e+02
555             	3.25861116e+02
556             	3.25861313e+02
557             	3.25861442e+02
558             	3.25861315e+02
559             	3.25861315e+02
560             	3.25861382e+02
561             	3.25861438e+02
562             	3.25861447e+02
563             	3.25861354e+02
564             	3.25861381e+02
565             	3.25861367e+02
566             	3.25861262e+02
567             	3.25861154e+02
568             	3.25861049e+02
569             	3.25861065e+02
570             	3.25861080e+02
571             	3.25860965e+02
572             	3.25860923e+02
573             	3.25861036e+02
574             	3.25861238e+02
575             	3.25861361e+02
576             	3.25861603e+02
577             	3.25861818e+02
578             	3.25861892e+02
579             	3.25861857e+02
580             	3.25861783e+02
581             	3.25861665e+02
582             	3.25861558e+02
583             	3.25861529e+02
584             	3.25861534e+02
585             	3.25861519e+02
586             	3.25861538e+02
587             	3.25861591e+02
588             	3.25861668e+02
589             	3.25861762e+02
590             	3.25861923e+02
591             	3.25862029e+02
592             	3.25862192e+02
593             	3.25862325e+02
594             	3.25862298e+02
595             	3.25862289e+02
596             	3.25862365e+02
597             	3.25862386e+02
598             	3.25862436e+02
599             	3.25862671e+02
600             	3.25862815e+02
601             	3.25862956e+02
602             	3.25863051e+02
603             	3.25863109e+02
604             	3.25863086e+02
605             	3.25863069e+02
606             	3.25863134e+02
607             	3.25863053e+02
608             	3.25862965e+02
609             	3.25862996e+02
610             	3.25863096e+02
611             	3.25863200e+02
612             	3.25863272e+02
613             	3.25863354e+02
614             	3.25863388e+02
615             	3.25863365e+02
616             	3.25863312e+02
617             	3.25863254e+02
618             	3.25863220e+02
619             	3.25863177e+02
620             	3.25863136e+02
621             	3.25863090e+02
