# Region        : cellZone component_1
# Cells         : 27
# Volume        : 4.26445860e-02
# Time          	volAverage(T)
1               	3.02716244e+02
2               	3.05324945e+02
3               	3.07482778e+02
4               	3.09453908e+02
5               	3.11413174e+02
6               	3.13378554e+02
7               	3.15333971e+02
8               	3.17275444e+02
9               	3.19199577e+02
10              	3.21114536e+02
11              	3.22972266e+02
12              	3.24790114e+02
13              	3.26525184e+02
14              	3.28137215e+02
15              	3.29632765e+02
16              	3.31094137e+02
17              	3.32487821e+02
18              	3.33894901e+02
19              	3.35327912e+02
20              	3.36773069e+02
21              	3.38225918e+02
22              	3.39650951e+02
23              	3.41051044e+02
24              	3.42437238e+02
25              	3.43840949e+02
26              	3.45246445e+02
27              	3.46585877e+02
28              	3.47951183e+02
29              	3.49326093e+02
30              	3.50692684e+02
31              	3.51931425e+02
32              	3.53175630e+02
33              	3.54354205e+02
34              	3.55442406e+02
35              	3.56527563e+02
36              	3.57624604e+02
37              	3.58700742e+02
38              	3.59739549e+02
39              	3.60784267e+02
40              	3.61853373e+02
41              	3.62880344e+02
42              	3.63851609e+02
43              	3.64811065e+02
44              	3.65652195e+02
45              	3.66485516e+02
46              	3.67302751e+02
47              	3.68083705e+02
48              	3.68789587e+02
49              	3.69438198e+02
50              	3.70049410e+02
51              	3.70593560e+02
52              	3.71112903e+02
53              	3.71571459e+02
54              	3.71991911e+02
55              	3.72421532e+02
56              	3.72852889e+02
57              	3.73282444e+02
58              	3.73648136e+02
59              	3.74017098e+02
60              	3.74396616e+02
61              	3.74779905e+02
62              	3.75174289e+02
63              	3.75576321e+02
64              	3.76002557e+02
65              	3.76416353e+02
66              	3.76804154e+02
67              	3.77173023e+02
68              	3.77526472e+02
69              	3.77838408e+02
70              	3.78142480e+02
71              	3.78462845e+02
72              	3.78695082e+02
73              	3.78993113e+02
74              	3.79149448e+02
75              	3.79387879e+02
76              	3.79627176e+02
77              	3.79858630e+02
78              	3.80043115e+02
79              	3.80205923e+02
80              	3.80343270e+02
81              	3.80400498e+02
82              	3.80452557e+02
83              	3.80538790e+02
84              	3.80559825e+02
85              	3.80583442e+02
86              	3.80552034e+02
87              	3.80632073e+02
88              	3.80617494e+02
89              	3.80681515e+02
90              	3.80793846e+02
91              	3.80889623e+02
92              	3.80962717e+02
93              	3.80968274e+02
94              	3.80942553e+02
95              	3.80898318e+02
96              	3.80822698e+02
97              	3.80758573e+02
98              	3.80624025e+02
99              	3.80561696e+02
100             	3.80446664e+02
101             	3.80429764e+02
102             	3.80338599e+02
103             	3.80357707e+02
104             	3.80329335e+02
105             	3.80353309e+02
106             	3.80355747e+02
107             	3.80390994e+02
108             	3.80391258e+02
109             	3.80348567e+02
110             	3.80267788e+02
111             	3.80170056e+02
112             	3.80056737e+02
113             	3.80001047e+02
114             	3.79841042e+02
115             	3.79765237e+02
116             	3.79737577e+02
117             	3.79638692e+02
118             	3.79636245e+02
119             	3.79547892e+02
120             	3.79539110e+02
121             	3.79538564e+02
122             	3.79568337e+02
123             	3.79483869e+02
124             	3.79431998e+02
125             	3.79368330e+02
126             	3.79276337e+02
127             	3.79188172e+02
128             	3.79128695e+02
129             	3.78960965e+02
130             	3.78870787e+02
131             	3.78735295e+02
132             	3.78683109e+02
133             	3.78581554e+02
134             	3.78553594e+02
135             	3.78572783e+02
136             	3.78539434e+02
137             	3.78512683e+02
138             	3.78387408e+02
139             	3.78322612e+02
140             	3.78281928e+02
141             	3.78143561e+02
142             	3.78069287e+02
143             	3.77933272e+02
144             	3.77876630e+02
145             	3.77735562e+02
146             	3.77651961e+02
147             	3.77581462e+02
148             	3.77533256e+02
149             	3.77478767e+02
150             	3.77416195e+02
151             	3.77372111e+02
152             	3.77239316e+02
153             	3.77177686e+02
154             	3.77048167e+02
155             	3.76980803e+02
156             	3.76965554e+02
157             	3.76827005e+02
158             	3.76761478e+02
159             	3.76744549e+02
160             	3.76620150e+02
161             	3.76568473e+02
162             	3.76559344e+02
163             	3.76439428e+02
164             	3.76380943e+02
165             	3.76350943e+02
166             	3.76339455e+02
167             	3.76193841e+02
168             	3.76113252e+02
169             	3.76068754e+02
170             	3.76040594e+02
171             	3.75898592e+02
172             	3.75827140e+02
173             	3.75793376e+02
174             	3.75664123e+02
175             	3.75608197e+02
176             	3.75496745e+02
177             	3.75449250e+02
178             	3.75452236e+02
179             	3.75329766e+02
180             	3.75274327e+02
181             	3.75250869e+02
182             	3.75253949e+02
183             	3.75127653e+02
184             	3.75070172e+02
185             	3.75044101e+02
186             	3.75039824e+02
187             	3.74908241e+02
188             	3.74847926e+02
189             	3.74826817e+02
190             	3.74703806e+02
191             	3.74649666e+02
192             	3.74630039e+02
193             	3.74514817e+02
194             	3.74465838e+02
195             	3.74450958e+02
196             	3.74458608e+02
197             	3.74335803e+02
198             	3.74283329e+02
199             	3.74268128e+02
200             	3.74155411e+02
201             	3.74108183e+02
202             	3.74092490e+02
203             	3.73979730e+02
204             	3.73932787e+02
205             	3.73917634e+02
206             	3.73926116e+02
207             	3.73803253e+02
208             	3.73752208e+02
209             	3.73738911e+02
210             	3.73751282e+02
211             	3.73631189e+02
212             	3.73582706e+02
213             	3.73572514e+02
214             	3.73465083e+02
215             	3.73422993e+02
216             	3.73413271e+02
217             	3.73423300e+02
218             	3.73311281e+02
219             	3.73269054e+02
220             	3.73264616e+02
221             	3.73283118e+02
222             	3.73170142e+02
223             	3.73128545e+02
224             	3.73124036e+02
225             	3.73144478e+02
226             	3.73032740e+02
227             	3.72991906e+02
228             	3.72986739e+02
229             	3.73008566e+02
230             	3.72899282e+02
231             	3.72858895e+02
232             	3.72853075e+02
233             	3.72873709e+02
234             	3.72766623e+02
235             	3.72728898e+02
236             	3.72727780e+02
237             	3.72751821e+02
238             	3.72644702e+02
239             	3.72604848e+02
240             	3.72603398e+02
241             	3.72629603e+02
242             	3.72524370e+02
243             	3.72486116e+02
244             	3.72485998e+02
245             	3.72513386e+02
246             	3.72409715e+02
247             	3.72372636e+02
248             	3.72373534e+02
249             	3.72399290e+02
250             	3.72297544e+02
251             	3.72261978e+02
252             	3.72263763e+02
253             	3.72290651e+02
254             	3.72190337e+02
255             	3.72156013e+02
256             	3.72159181e+02
257             	3.72186463e+02
258             	3.72087780e+02
259             	3.72055727e+02
260             	3.72061742e+02
261             	3.72092991e+02
262             	3.71996057e+02
263             	3.71965532e+02
264             	3.71972640e+02
265             	3.72003261e+02
266             	3.71908213e+02
267             	3.71879105e+02
268             	3.71887349e+02
269             	3.71918574e+02
270             	3.71824759e+02
271             	3.71798867e+02
272             	3.71807733e+02
273             	3.71838719e+02
274             	3.71745871e+02
275             	3.71718732e+02
276             	3.71728192e+02
277             	3.71755307e+02
278             	3.71664795e+02
279             	3.71639709e+02
280             	3.71650701e+02
281             	3.71683161e+02
282             	3.71592476e+02
283             	3.71567741e+02
284             	3.71579985e+02
285             	3.71614703e+02
286             	3.71526028e+02
287             	3.71503138e+02
288             	3.71516991e+02
289             	3.71552474e+02
290             	3.71465251e+02
291             	3.71443546e+02
292             	3.71458024e+02
293             	3.71491711e+02
294             	3.71405856e+02
295             	3.71385318e+02
296             	3.71400763e+02
297             	3.71437763e+02
298             	3.71352293e+02
299             	3.71332255e+02
300             	3.71348515e+02
301             	3.71385299e+02
302             	3.71301198e+02
303             	3.71282457e+02
304             	3.71299569e+02
305             	3.71336937e+02
306             	3.71253560e+02
307             	3.71235417e+02
308             	3.71253355e+02
309             	3.71291786e+02
310             	3.71209036e+02
311             	3.71191659e+02
312             	3.71210290e+02
313             	3.71248558e+02
314             	3.71167228e+02
315             	3.71151067e+02
316             	3.71170488e+02
317             	3.71209609e+02
318             	3.71128857e+02
319             	3.71113237e+02
320             	3.71133348e+02
321             	3.71172911e+02
322             	3.71092798e+02
323             	3.71077892e+02
324             	3.71098635e+02
325             	3.71138326e+02
326             	3.71059240e+02
327             	3.71045212e+02
328             	3.71066657e+02
329             	3.71107385e+02
330             	3.71029032e+02
331             	3.71015768e+02
332             	3.71037973e+02
333             	3.71079496e+02
334             	3.71001895e+02
335             	3.70989325e+02
336             	3.71012149e+02
337             	3.71054237e+02
338             	3.70977167e+02
339             	3.70965252e+02
340             	3.70988534e+02
341             	3.71030951e+02
342             	3.70954351e+02
343             	3.70942691e+02
344             	3.70966268e+02
345             	3.71008688e+02
346             	3.70932793e+02
347             	3.70921766e+02
348             	3.70945929e+02
349             	3.70989052e+02
350             	3.70913657e+02
351             	3.70903182e+02
352             	3.70927943e+02
353             	3.70971584e+02
354             	3.70896714e+02
355             	3.70886806e+02
356             	3.70911993e+02
357             	3.70955957e+02
358             	3.70881642e+02
359             	3.70872196e+02
360             	3.70897731e+02
361             	3.70941586e+02
362             	3.70867836e+02
363             	3.70858882e+02
364             	3.70884904e+02
365             	3.70929638e+02
366             	3.70855926e+02
367             	3.70847110e+02
368             	3.70873285e+02
369             	3.70918041e+02
370             	3.70844892e+02
371             	3.70836727e+02
372             	3.70863381e+02
373             	3.70908438e+02
374             	3.70835859e+02
375             	3.70828011e+02
376             	3.70854970e+02
377             	3.70900101e+02
378             	3.70827746e+02
379             	3.70820244e+02
380             	3.70847561e+02
381             	3.70893438e+02
382             	3.70821166e+02
383             	3.70813737e+02
384             	3.70841312e+02
385             	3.70888931e+02
386             	3.70816798e+02
387             	3.70809504e+02
388             	3.70837405e+02
389             	3.70883993e+02
390             	3.70812426e+02
391             	3.70805608e+02
392             	3.70833531e+02
393             	3.70879468e+02
394             	3.70808222e+02
395             	3.70801529e+02
396             	3.70829582e+02
397             	3.70876209e+02
398             	3.70804977e+02
399             	3.70798480e+02
400             	3.70826853e+02
401             	3.70874378e+02
402             	3.70803565e+02
403             	3.70797666e+02
404             	3.70826574e+02
405             	3.70873673e+02
406             	3.70803363e+02
407             	3.70797756e+02
408             	3.70826766e+02
409             	3.70874093e+02
410             	3.70803781e+02
411             	3.70798205e+02
412             	3.70827328e+02
413             	3.70874993e+02
414             	3.70804775e+02
415             	3.70799351e+02
416             	3.70828554e+02
417             	3.70876103e+02
418             	3.70806218e+02
419             	3.70800993e+02
420             	3.70830474e+02
421             	3.70878478e+02
422             	3.70808617e+02
423             	3.70803356e+02
424             	3.70832838e+02
425             	3.70880754e+02
426             	3.70810992e+02
427             	3.70806106e+02
428             	3.70835798e+02
429             	3.70883947e+02
430             	3.70814309e+02
431             	3.70809464e+02
432             	3.70839285e+02
433             	3.70887617e+02
434             	3.70818213e+02
435             	3.70813564e+02
436             	3.70843541e+02
437             	3.70891869e+02
438             	3.70822619e+02
439             	3.70818079e+02
440             	3.70848212e+02
441             	3.70896714e+02
442             	3.70827485e+02
443             	3.70823071e+02
444             	3.70853309e+02
445             	3.70902001e+02
446             	3.70832859e+02
447             	3.70828470e+02
448             	3.70858653e+02
449             	3.70907325e+02
450             	3.70838373e+02
451             	3.70834072e+02
452             	3.70864400e+02
453             	3.70913192e+02
454             	3.70844325e+02
455             	3.70840915e+02
456             	3.70871386e+02
457             	3.70920341e+02
458             	3.70851484e+02
459             	3.70848175e+02
460             	3.70878753e+02
461             	3.70927866e+02
462             	3.70859146e+02
463             	3.70855915e+02
464             	3.70886545e+02
465             	3.70935657e+02
466             	3.70866958e+02
467             	3.70863739e+02
468             	3.70894422e+02
469             	3.70943625e+02
470             	3.70874972e+02
471             	3.70871853e+02
472             	3.70902655e+02
473             	3.70951950e+02
474             	3.70883371e+02
475             	3.70880303e+02
476             	3.70911120e+02
477             	3.70960521e+02
478             	3.70891994e+02
479             	3.70889038e+02
480             	3.70920029e+02
481             	3.70969637e+02
482             	3.70901116e+02
483             	3.70898094e+02
484             	3.70929077e+02
485             	3.70978770e+02
486             	3.70910363e+02
487             	3.70907459e+02
488             	3.70938508e+02
489             	3.70988172e+02
490             	3.70919801e+02
491             	3.70916966e+02
492             	3.70948005e+02
493             	3.70997628e+02
494             	3.70929237e+02
495             	3.70926397e+02
496             	3.70957485e+02
497             	3.71007341e+02
498             	3.70939028e+02
499             	3.70936283e+02
500             	3.70967516e+02
501             	3.71017564e+02
502             	3.70949303e+02
503             	3.70946577e+02
504             	3.70977770e+02
505             	3.71027534e+02
506             	3.70959405e+02
507             	3.70956783e+02
508             	3.70988090e+02
509             	3.71038206e+02
510             	3.70970047e+02
511             	3.70967380e+02
512             	3.70998754e+02
513             	3.71048998e+02
514             	3.70980834e+02
515             	3.70978186e+02
516             	3.71009612e+02
517             	3.71059855e+02
518             	3.70991702e+02
519             	3.70989068e+02
520             	3.71020426e+02
521             	3.71070573e+02
522             	3.71002498e+02
523             	3.70999970e+02
524             	3.71031414e+02
525             	3.71081443e+02
526             	3.71013496e+02
527             	3.71011144e+02
528             	3.71042765e+02
529             	3.71093797e+02
530             	3.71025574e+02
531             	3.71022929e+02
532             	3.71054393e+02
533             	3.71104899e+02
534             	3.71036890e+02
535             	3.71034418e+02
536             	3.71065925e+02
537             	3.71116409e+02
538             	3.71048393e+02
539             	3.71045904e+02
540             	3.71077457e+02
541             	3.71128184e+02
542             	3.71060105e+02
543             	3.71057577e+02
544             	3.71089097e+02
545             	3.71139814e+02
546             	3.71071782e+02
547             	3.71069297e+02
548             	3.71100901e+02
549             	3.71151751e+02
550             	3.71083756e+02
551             	3.71081342e+02
552             	3.71113041e+02
553             	3.71164513e+02
554             	3.71096399e+02
555             	3.71093939e+02
556             	3.71125557e+02
557             	3.71176462e+02
558             	3.71108413e+02
559             	3.71105898e+02
560             	3.71137469e+02
561             	3.71188220e+02
562             	3.71120219e+02
563             	3.71117732e+02
564             	3.71149302e+02
565             	3.71200175e+02
566             	3.71132147e+02
567             	3.71129687e+02
568             	3.71161396e+02
569             	3.71212546e+02
570             	3.71144420e+02
571             	3.71141928e+02
572             	3.71173759e+02
573             	3.71225060e+02
574             	3.71156893e+02
575             	3.71154346e+02
576             	3.71186117e+02
577             	3.71237501e+02
578             	3.71169355e+02
579             	3.71166869e+02
580             	3.71198534e+02
581             	3.71249626e+02
582             	3.71181601e+02
583             	3.71179212e+02
584             	3.71210972e+02
585             	3.71262362e+02
586             	3.71194215e+02
587             	3.71191731e+02
588             	3.71223592e+02
589             	3.71275367e+02
590             	3.71207044e+02
591             	3.71204437e+02
592             	3.71236098e+02
593             	3.71287337e+02
594             	3.71219160e+02
595             	3.71216618e+02
596             	3.71248309e+02
597             	3.71299660e+02
598             	3.71231509e+02
599             	3.71229078e+02
600             	3.71260900e+02
601             	3.71312542e+02
602             	3.71244313e+02
603             	3.71241798e+02
604             	3.71273546e+02
605             	3.71325100e+02
606             	3.71256840e+02
607             	3.71254292e+02
608             	3.71286017e+02
609             	3.71337484e+02
610             	3.71269213e+02
611             	3.71266632e+02
612             	3.71298340e+02
613             	3.71349898e+02
614             	3.71281603e+02
615             	3.71278978e+02
616             	3.71310720e+02
617             	3.71362350e+02
618             	3.71294013e+02
619             	3.71291388e+02
620             	3.71323039e+02
621             	3.71374594e+02
