# Region        : cellZone component_0
# Cells         : 88
# Volume        : 1.53896889e-01
# Time          	volAverage(T)
1               	3.00575545e+02
2               	3.01141616e+02
3               	3.01656337e+02
4               	3.02136417e+02
5               	3.02598941e+02
6               	3.03045828e+02
7               	3.03481239e+02
8               	3.03904808e+02
9               	3.04321748e+02
10              	3.04724571e+02
11              	3.05102773e+02
12              	3.05458534e+02
13              	3.05791273e+02
14              	3.06113396e+02
15              	3.06420193e+02
16              	3.06720597e+02
17              	3.07033274e+02
18              	3.07355139e+02
19              	3.07680740e+02
20              	3.07989403e+02
21              	3.08297282e+02
22              	3.08596296e+02
23              	3.08885016e+02
24              	3.09193016e+02
25              	3.09486900e+02
26              	3.09740973e+02
27              	3.09979939e+02
28              	3.10215625e+02
29              	3.10453377e+02
30              	3.10689504e+02
31              	3.10923733e+02
32              	3.11149314e+02
33              	3.11366212e+02
34              	3.11576658e+02
35              	3.11776977e+02
36              	3.11961426e+02
37              	3.12127156e+02
38              	3.12278104e+02
39              	3.12433264e+02
40              	3.12600002e+02
41              	3.12776386e+02
42              	3.12947192e+02
43              	3.13107625e+02
44              	3.13259207e+02
45              	3.13393124e+02
46              	3.13523302e+02
47              	3.13646936e+02
48              	3.13765781e+02
49              	3.13889980e+02
50              	3.14028801e+02
51              	3.14176259e+02
52              	3.14317417e+02
53              	3.14443024e+02
54              	3.14556370e+02
55              	3.14671371e+02
56              	3.14793016e+02
57              	3.14922065e+02
58              	3.15047684e+02
59              	3.15162118e+02
60              	3.15267551e+02
61              	3.15369680e+02
62              	3.15467698e+02
63              	3.15562084e+02
64              	3.15651711e+02
65              	3.15734851e+02
66              	3.15806550e+02
67              	3.15876132e+02
68              	3.15950222e+02
69              	3.16028739e+02
70              	3.16111656e+02
71              	3.16196832e+02
72              	3.16290505e+02
73              	3.16384236e+02
74              	3.16466913e+02
75              	3.16540298e+02
76              	3.16602962e+02
77              	3.16662194e+02
78              	3.16722996e+02
79              	3.16783350e+02
80              	3.16841567e+02
81              	3.16900831e+02
82              	3.16956058e+02
83              	3.17001381e+02
84              	3.17039496e+02
85              	3.17073840e+02
86              	3.17104637e+02
87              	3.17133357e+02
88              	3.17166247e+02
89              	3.17203893e+02
90              	3.17247903e+02
91              	3.17299548e+02
92              	3.17357860e+02
93              	3.17424650e+02
94              	3.17494882e+02
95              	3.17567278e+02
96              	3.17642279e+02
97              	3.17721411e+02
98              	3.17796700e+02
99              	3.17862744e+02
100             	3.17919261e+02
101             	3.17967658e+02
102             	3.18012242e+02
103             	3.18051205e+02
104             	3.18088985e+02
105             	3.18125003e+02
106             	3.18154120e+02
107             	3.18179658e+02
108             	3.18204201e+02
109             	3.18228120e+02
110             	3.18255362e+02
111             	3.18283589e+02
112             	3.18318331e+02
113             	3.18356537e+02
114             	3.18394335e+02
115             	3.18434674e+02
116             	3.18476693e+02
117             	3.18526064e+02
118             	3.18573227e+02
119             	3.18610108e+02
120             	3.18639070e+02
121             	3.18667040e+02
122             	3.18692033e+02
123             	3.18712732e+02
124             	3.18728353e+02
125             	3.18739505e+02
126             	3.18748977e+02
127             	3.18760639e+02
128             	3.18776846e+02
129             	3.18799354e+02
130             	3.18829524e+02
131             	3.18867092e+02
132             	3.18910730e+02
133             	3.18958963e+02
134             	3.19010122e+02
135             	3.19060203e+02
136             	3.19107577e+02
137             	3.19142267e+02
138             	3.19178119e+02
139             	3.19211825e+02
140             	3.19238510e+02
141             	3.19266081e+02
142             	3.19293594e+02
143             	3.19318582e+02
144             	3.19342232e+02
145             	3.19365888e+02
146             	3.19388661e+02
147             	3.19411877e+02
148             	3.19439847e+02
149             	3.19466964e+02
150             	3.19501160e+02
151             	3.19541775e+02
152             	3.19590171e+02
153             	3.19638377e+02
154             	3.19686864e+02
155             	3.19738084e+02
156             	3.19778738e+02
157             	3.19816825e+02
158             	3.19847448e+02
159             	3.19871780e+02
160             	3.19894101e+02
161             	3.19914010e+02
162             	3.19929377e+02
163             	3.19943778e+02
164             	3.19959716e+02
165             	3.19976907e+02
166             	3.19995386e+02
167             	3.20012960e+02
168             	3.20035752e+02
169             	3.20061767e+02
170             	3.20095685e+02
171             	3.20133519e+02
172             	3.20164027e+02
173             	3.20201970e+02
174             	3.20238797e+02
175             	3.20278171e+02
176             	3.20309361e+02
177             	3.20334079e+02
178             	3.20355873e+02
179             	3.20374599e+02
180             	3.20390029e+02
181             	3.20402560e+02
182             	3.20412653e+02
183             	3.20422145e+02
184             	3.20432728e+02
185             	3.20445721e+02
186             	3.20461129e+02
187             	3.20484241e+02
188             	3.20505522e+02
189             	3.20525829e+02
190             	3.20549505e+02
191             	3.20580697e+02
192             	3.20605020e+02
193             	3.20633710e+02
194             	3.20667259e+02
195             	3.20691623e+02
196             	3.20717976e+02
197             	3.20737514e+02
198             	3.20758714e+02
199             	3.20771981e+02
200             	3.20789433e+02
201             	3.20801327e+02
202             	3.20811759e+02
203             	3.20823367e+02
204             	3.20831995e+02
205             	3.20838625e+02
206             	3.20844152e+02
207             	3.20848834e+02
208             	3.20852301e+02
209             	3.20855041e+02
210             	3.20858794e+02
211             	3.20863567e+02
212             	3.20865171e+02
213             	3.20873363e+02
214             	3.20889776e+02
215             	3.20904487e+02
216             	3.20924627e+02
217             	3.20948207e+02
218             	3.20971630e+02
219             	3.20994040e+02
220             	3.21014245e+02
221             	3.21029904e+02
222             	3.21034798e+02
223             	3.21040792e+02
224             	3.21045905e+02
225             	3.21051782e+02
226             	3.21058999e+02
227             	3.21064536e+02
228             	3.21070174e+02
229             	3.21076612e+02
230             	3.21081268e+02
231             	3.21088793e+02
232             	3.21096578e+02
233             	3.21111724e+02
234             	3.21120695e+02
235             	3.21134032e+02
236             	3.21150124e+02
237             	3.21161640e+02
238             	3.21167559e+02
239             	3.21175826e+02
240             	3.21184355e+02
241             	3.21191815e+02
242             	3.21196188e+02
243             	3.21198325e+02
244             	3.21202286e+02
245             	3.21200350e+02
246             	3.21203799e+02
247             	3.21209866e+02
248             	3.21213783e+02
249             	3.21225398e+02
250             	3.21239859e+02
251             	3.21250189e+02
252             	3.21256619e+02
253             	3.21262958e+02
254             	3.21269968e+02
255             	3.21273939e+02
256             	3.21274010e+02
257             	3.21274091e+02
258             	3.21274037e+02
259             	3.21268640e+02
260             	3.21270991e+02
261             	3.21269612e+02
262             	3.21272915e+02
263             	3.21280080e+02
264             	3.21294972e+02
265             	3.21303109e+02
266             	3.21314218e+02
267             	3.21322364e+02
268             	3.21325750e+02
269             	3.21328945e+02
270             	3.21329867e+02
271             	3.21328865e+02
272             	3.21326058e+02
273             	3.21323034e+02
274             	3.21315724e+02
275             	3.21317019e+02
276             	3.21322059e+02
277             	3.21321936e+02
278             	3.21332434e+02
279             	3.21340453e+02
280             	3.21348396e+02
281             	3.21347658e+02
282             	3.21352275e+02
283             	3.21357227e+02
284             	3.21358443e+02
285             	3.21354653e+02
286             	3.21348059e+02
287             	3.21341941e+02
288             	3.21336684e+02
289             	3.21324646e+02
290             	3.21318835e+02
291             	3.21312435e+02
292             	3.21316415e+02
293             	3.21322201e+02
294             	3.21330766e+02
295             	3.21344438e+02
296             	3.21361076e+02
297             	3.21369422e+02
298             	3.21372148e+02
299             	3.21373614e+02
300             	3.21371792e+02
301             	3.21368052e+02
302             	3.21363327e+02
303             	3.21349720e+02
304             	3.21342481e+02
305             	3.21337128e+02
306             	3.21333164e+02
307             	3.21332005e+02
308             	3.21334839e+02
309             	3.21340260e+02
310             	3.21347546e+02
311             	3.21355377e+02
312             	3.21363577e+02
313             	3.21364476e+02
314             	3.21370243e+02
315             	3.21371115e+02
316             	3.21376294e+02
317             	3.21382383e+02
318             	3.21380354e+02
319             	3.21376907e+02
320             	3.21370958e+02
321             	3.21363849e+02
322             	3.21355500e+02
323             	3.21346998e+02
324             	3.21341694e+02
325             	3.21331494e+02
326             	3.21327920e+02
327             	3.21326117e+02
328             	3.21328018e+02
329             	3.21332698e+02
330             	3.21341196e+02
331             	3.21343848e+02
332             	3.21350291e+02
333             	3.21355279e+02
334             	3.21357281e+02
335             	3.21355813e+02
336             	3.21352985e+02
337             	3.21348203e+02
338             	3.21342824e+02
339             	3.21336865e+02
340             	3.21330250e+02
341             	3.21325147e+02
342             	3.21316532e+02
343             	3.21311859e+02
344             	3.21313502e+02
345             	3.21318707e+02
346             	3.21326545e+02
347             	3.21334647e+02
348             	3.21340140e+02
349             	3.21346386e+02
350             	3.21348166e+02
351             	3.21352688e+02
352             	3.21357069e+02
353             	3.21354680e+02
354             	3.21353524e+02
355             	3.21353345e+02
356             	3.21352020e+02
357             	3.21348285e+02
358             	3.21343469e+02
359             	3.21339474e+02
360             	3.21336427e+02
361             	3.21333323e+02
362             	3.21335041e+02
363             	3.21333791e+02
364             	3.21337229e+02
365             	3.21344760e+02
366             	3.21349070e+02
367             	3.21353437e+02
368             	3.21357856e+02
369             	3.21359586e+02
370             	3.21360835e+02
371             	3.21360428e+02
372             	3.21358437e+02
373             	3.21355668e+02
374             	3.21354605e+02
375             	3.21347505e+02
376             	3.21342001e+02
377             	3.21345636e+02
378             	3.21349418e+02
379             	3.21354809e+02
380             	3.21361274e+02
381             	3.21373371e+02
382             	3.21380988e+02
383             	3.21381734e+02
384             	3.21377532e+02
385             	3.21374503e+02
386             	3.21370588e+02
387             	3.21364936e+02
388             	3.21357198e+02
389             	3.21349965e+02
390             	3.21337905e+02
391             	3.21331702e+02
392             	3.21330344e+02
393             	3.21332495e+02
394             	3.21337942e+02
395             	3.21348314e+02
396             	3.21351723e+02
397             	3.21356317e+02
398             	3.21362754e+02
399             	3.21368560e+02
400             	3.21368491e+02
401             	3.21367156e+02
402             	3.21364686e+02
403             	3.21362077e+02
404             	3.21359408e+02
405             	3.21356765e+02
406             	3.21347460e+02
407             	3.21340946e+02
408             	3.21339295e+02
409             	3.21339403e+02
410             	3.21342445e+02
411             	3.21349985e+02
412             	3.21360917e+02
413             	3.21364278e+02
414             	3.21365255e+02
415             	3.21366466e+02
416             	3.21367486e+02
417             	3.21366948e+02
418             	3.21365115e+02
419             	3.21357012e+02
420             	3.21352368e+02
421             	3.21351252e+02
422             	3.21346038e+02
423             	3.21345956e+02
424             	3.21347820e+02
425             	3.21356963e+02
426             	3.21358256e+02
427             	3.21361580e+02
428             	3.21366000e+02
429             	3.21372868e+02
430             	3.21374197e+02
431             	3.21379964e+02
432             	3.21380634e+02
433             	3.21382248e+02
434             	3.21384472e+02
435             	3.21384383e+02
436             	3.21382362e+02
437             	3.21379469e+02
438             	3.21377200e+02
439             	3.21370829e+02
440             	3.21369178e+02
441             	3.21364022e+02
442             	3.21365435e+02
443             	3.21368816e+02
444             	3.21374332e+02
445             	3.21382074e+02
446             	3.21390148e+02
447             	3.21391348e+02
448             	3.21389495e+02
449             	3.21387921e+02
450             	3.21385933e+02
451             	3.21386052e+02
452             	3.21383886e+02
453             	3.21381160e+02
454             	3.21378346e+02
455             	3.21376890e+02
456             	3.21370338e+02
457             	3.21367723e+02
458             	3.21370193e+02
459             	3.21374776e+02
460             	3.21381803e+02
461             	3.21390923e+02
462             	3.21401761e+02
463             	3.21404703e+02
464             	3.21405831e+02
465             	3.21405275e+02
466             	3.21405212e+02
467             	3.21404185e+02
468             	3.21403519e+02
469             	3.21401904e+02
470             	3.21400192e+02
471             	3.21398637e+02
472             	3.21395166e+02
473             	3.21394317e+02
474             	3.21389636e+02
475             	3.21388577e+02
476             	3.21391535e+02
477             	3.21395588e+02
478             	3.21401154e+02
479             	3.21409265e+02
480             	3.21410449e+02
481             	3.21415490e+02
482             	3.21420599e+02
483             	3.21421257e+02
484             	3.21420445e+02
485             	3.21420777e+02
486             	3.21419772e+02
487             	3.21418657e+02
488             	3.21416389e+02
489             	3.21411688e+02
490             	3.21404034e+02
491             	3.21402815e+02
492             	3.21404008e+02
493             	3.21406136e+02
494             	3.21411432e+02
495             	3.21411607e+02
496             	3.21417007e+02
497             	3.21425239e+02
498             	3.21433748e+02
499             	3.21435493e+02
500             	3.21434728e+02
501             	3.21433300e+02
502             	3.21430524e+02
503             	3.21426575e+02
504             	3.21418111e+02
505             	3.21414046e+02
506             	3.21410405e+02
507             	3.21401153e+02
508             	3.21397967e+02
509             	3.21401554e+02
510             	3.21406361e+02
511             	3.21412203e+02
512             	3.21420013e+02
513             	3.21422481e+02
514             	3.21429707e+02
515             	3.21437914e+02
516             	3.21443272e+02
517             	3.21442482e+02
518             	3.21437999e+02
519             	3.21434062e+02
520             	3.21429389e+02
521             	3.21423423e+02
522             	3.21416407e+02
523             	3.21407965e+02
524             	3.21399764e+02
525             	3.21388094e+02
526             	3.21383246e+02
527             	3.21380830e+02
528             	3.21382042e+02
529             	3.21386546e+02
530             	3.21394092e+02
531             	3.21403702e+02
532             	3.21408640e+02
533             	3.21414512e+02
534             	3.21418272e+02
535             	3.21416749e+02
536             	3.21415230e+02
537             	3.21415095e+02
538             	3.21413462e+02
539             	3.21410376e+02
540             	3.21405222e+02
541             	3.21399159e+02
542             	3.21393838e+02
543             	3.21390602e+02
544             	3.21386434e+02
545             	3.21387226e+02
546             	3.21391259e+02
547             	3.21398480e+02
548             	3.21406363e+02
549             	3.21416523e+02
550             	3.21417901e+02
551             	3.21421650e+02
552             	3.21426157e+02
553             	3.21428810e+02
554             	3.21426490e+02
555             	3.21424532e+02
556             	3.21424034e+02
557             	3.21423905e+02
558             	3.21421239e+02
559             	3.21418741e+02
560             	3.21419042e+02
561             	3.21417418e+02
562             	3.21417209e+02
563             	3.21414582e+02
564             	3.21421695e+02
565             	3.21428673e+02
566             	3.21437309e+02
567             	3.21448108e+02
568             	3.21460276e+02
569             	3.21467141e+02
570             	3.21474471e+02
571             	3.21480073e+02
572             	3.21481792e+02
573             	3.21481552e+02
574             	3.21481621e+02
575             	3.21480814e+02
576             	3.21478507e+02
577             	3.21475917e+02
578             	3.21472441e+02
579             	3.21471245e+02
580             	3.21467366e+02
581             	3.21467439e+02
582             	3.21469180e+02
583             	3.21473294e+02
584             	3.21481071e+02
585             	3.21487352e+02
586             	3.21489520e+02
587             	3.21488390e+02
588             	3.21488229e+02
589             	3.21487256e+02
590             	3.21484389e+02
591             	3.21481355e+02
592             	3.21472502e+02
593             	3.21474812e+02
594             	3.21477402e+02
595             	3.21478959e+02
596             	3.21476531e+02
597             	3.21480848e+02
598             	3.21486850e+02
599             	3.21489150e+02
600             	3.21486186e+02
601             	3.21483785e+02
602             	3.21480844e+02
603             	3.21477428e+02
604             	3.21470980e+02
605             	3.21466089e+02
606             	3.21454443e+02
607             	3.21452654e+02
608             	3.21446145e+02
609             	3.21447919e+02
610             	3.21450343e+02
611             	3.21457093e+02
612             	3.21456708e+02
613             	3.21449949e+02
614             	3.21447033e+02
615             	3.21444478e+02
616             	3.21439131e+02
617             	3.21431791e+02
618             	3.21418452e+02
619             	3.21411781e+02
620             	3.21401761e+02
621             	3.21398570e+02
