# Region        : cellZone component_3
# Cells         : 10
# Volume        : 7.03501818e-03
# Time          	volAverage(T)
1               	3.16918178e+02
2               	3.33142040e+02
3               	3.46647701e+02
4               	3.58468420e+02
5               	3.69479175e+02
6               	3.79652336e+02
7               	3.89333519e+02
8               	3.98521158e+02
9               	4.07535776e+02
10              	4.16293600e+02
11              	4.24874023e+02
12              	4.33534444e+02
13              	4.42081403e+02
14              	4.50627532e+02
15              	4.59294024e+02
16              	4.67605603e+02
17              	4.75852287e+02
18              	4.83599659e+02
19              	4.90826720e+02
20              	4.97599561e+02
21              	5.03805249e+02
22              	5.09874179e+02
23              	5.15905895e+02
24              	5.21992482e+02
25              	5.28331717e+02
26              	5.34807837e+02
27              	5.40874839e+02
28              	5.46792525e+02
29              	5.52903287e+02
30              	5.58652018e+02
31              	5.64822192e+02
32              	5.70989965e+02
33              	5.77617584e+02
34              	5.84287533e+02
35              	5.91312674e+02
36              	5.95742537e+02
37              	5.97876555e+02
38              	5.99299225e+02
39              	6.00000000e+02
40              	5.99997330e+02
41              	6.00000000e+02
42              	6.00000000e+02
43              	6.00000000e+02
44              	5.99976296e+02
45              	5.99622236e+02
46              	5.99413872e+02
47              	5.99025439e+02
48              	5.98653072e+02
49              	5.98524247e+02
50              	5.98739563e+02
51              	5.99175703e+02
52              	5.99628052e+02
53              	5.99956668e+02
54              	6.00000000e+02
55              	6.00000000e+02
56              	6.00000000e+02
57              	6.00000000e+02
58              	6.00000000e+02
59              	6.00000000e+02
60              	6.00000000e+02
61              	5.99868057e+02
62              	5.99684102e+02
63              	5.99509259e+02
64              	5.99120973e+02
65              	5.98496363e+02
66              	5.97712957e+02
67              	5.97257260e+02
68              	5.96993858e+02
69              	5.97124536e+02
70              	5.97446227e+02
71              	5.98297998e+02
72              	5.99576176e+02
73              	5.99819579e+02
74              	5.99968868e+02
75              	6.00000000e+02
76              	6.00000000e+02
77              	5.99972790e+02
78              	5.99804126e+02
79              	5.99601585e+02
80              	5.99580007e+02
81              	5.99606892e+02
82              	5.99548825e+02
83              	5.99112235e+02
84              	5.98799646e+02
85              	5.99116618e+02
86              	5.99549241e+02
87              	5.99668758e+02
88              	5.99826371e+02
89              	6.00000000e+02
90              	6.00000000e+02
91              	6.00000000e+02
92              	6.00000000e+02
93              	6.00000000e+02
94              	5.99989115e+02
95              	5.99951726e+02
96              	5.99879282e+02
97              	5.99803315e+02
98              	5.99445203e+02
99              	5.99113367e+02
100             	5.98594834e+02
101             	5.98279119e+02
102             	5.98316006e+02
103             	5.98489698e+02
104             	5.98560508e+02
105             	5.99041585e+02
106             	5.99656848e+02
107             	5.99753063e+02
108             	5.99831421e+02
109             	5.99957624e+02
110             	5.99914922e+02
111             	5.99830258e+02
112             	5.99880775e+02
113             	5.99983167e+02
114             	5.99951431e+02
115             	5.99981237e+02
116             	5.99945323e+02
117             	5.99791533e+02
118             	5.99559836e+02
119             	5.99124540e+02
120             	5.98985027e+02
121             	5.98961993e+02
122             	5.98989671e+02
123             	5.99221159e+02
124             	5.99540090e+02
125             	5.99744024e+02
126             	5.99833184e+02
127             	5.99925786e+02
128             	6.00000000e+02
129             	6.00000000e+02
130             	6.00000000e+02
131             	6.00000000e+02
132             	5.99902055e+02
133             	5.99891398e+02
134             	5.99849450e+02
135             	5.99804225e+02
136             	5.99788861e+02
137             	5.99695532e+02
138             	5.99664848e+02
139             	5.99649040e+02
140             	5.99620543e+02
141             	5.99668812e+02
142             	5.99703199e+02
143             	5.99732162e+02
144             	5.99769882e+02
145             	5.99815510e+02
146             	5.99849890e+02
147             	5.99862490e+02
148             	5.99892789e+02
149             	5.99950376e+02
150             	6.00000000e+02
151             	6.00000000e+02
152             	6.00000000e+02
153             	6.00000000e+02
154             	6.00000000e+02
155             	6.00000000e+02
156             	5.99929247e+02
157             	5.99881939e+02
158             	5.99852292e+02
159             	5.99731605e+02
160             	5.99689170e+02
161             	5.99660778e+02
162             	5.99641802e+02
163             	5.99628382e+02
164             	5.99640031e+02
165             	5.99851395e+02
166             	6.00000000e+02
167             	6.00000000e+02
168             	6.00000000e+02
169             	6.00000000e+02
170             	6.00000000e+02
171             	5.99983511e+02
172             	5.99795447e+02
173             	5.99683711e+02
174             	5.99688437e+02
175             	5.99692434e+02
176             	5.99684977e+02
177             	5.99742006e+02
178             	5.99846006e+02
179             	5.99932432e+02
180             	6.00000000e+02
181             	6.00000000e+02
182             	6.00000000e+02
183             	6.00000000e+02
184             	6.00000000e+02
185             	5.99926587e+02
186             	5.99927882e+02
187             	5.99819919e+02
188             	5.99699426e+02
189             	5.99658780e+02
190             	5.99689691e+02
191             	5.99799374e+02
192             	5.99818836e+02
193             	5.99803490e+02
194             	5.99852650e+02
195             	5.99907746e+02
196             	5.99892548e+02
197             	5.99905268e+02
198             	5.99895151e+02
199             	6.00000000e+02
200             	6.00000000e+02
201             	6.00000000e+02
202             	6.00000000e+02
203             	6.00000000e+02
204             	6.00000000e+02
205             	6.00000000e+02
206             	6.00000000e+02
207             	6.00000000e+02
208             	5.99970895e+02
209             	5.99851880e+02
210             	5.99841266e+02
211             	5.99754208e+02
212             	5.99659504e+02
213             	5.99618064e+02
214             	5.99617142e+02
215             	5.99598272e+02
216             	5.99651817e+02
217             	5.99875951e+02
218             	6.00000000e+02
219             	6.00000000e+02
220             	6.00000000e+02
221             	6.00000000e+02
222             	6.00000000e+02
223             	6.00000000e+02
224             	6.00000000e+02
225             	6.00000000e+02
226             	5.99990374e+02
227             	5.99914690e+02
228             	5.99882156e+02
229             	5.99867080e+02
230             	5.99849664e+02
231             	5.99785159e+02
232             	5.99777205e+02
233             	5.99785133e+02
234             	5.99779541e+02
235             	5.99772202e+02
236             	5.99776518e+02
237             	5.99783542e+02
238             	5.99738122e+02
239             	5.99740122e+02
240             	5.99729875e+02
241             	5.99816165e+02
242             	5.99834355e+02
243             	5.99879443e+02
244             	6.00000000e+02
245             	6.00000000e+02
246             	6.00000000e+02
247             	6.00000000e+02
248             	6.00000000e+02
249             	6.00000000e+02
250             	5.99960280e+02
251             	5.99814806e+02
252             	5.99661135e+02
253             	5.99585867e+02
254             	5.99532057e+02
255             	5.99636347e+02
256             	5.99633557e+02
257             	5.99706569e+02
258             	5.99778477e+02
259             	5.99920740e+02
260             	5.99961460e+02
261             	5.99979867e+02
262             	5.99922036e+02
263             	5.99855553e+02
264             	5.99908858e+02
265             	6.00000000e+02
266             	6.00000000e+02
267             	6.00000000e+02
268             	5.99978335e+02
269             	5.99852371e+02
270             	5.99814317e+02
271             	5.99818280e+02
272             	5.99813581e+02
273             	5.99780044e+02
274             	5.99714067e+02
275             	5.99675091e+02
276             	5.99686768e+02
277             	5.99756010e+02
278             	5.99956112e+02
279             	6.00000000e+02
280             	6.00000000e+02
281             	6.00000000e+02
282             	6.00000000e+02
283             	6.00000000e+02
284             	5.99902371e+02
285             	5.99828619e+02
286             	5.99748082e+02
287             	5.99733175e+02
288             	5.99719796e+02
289             	5.99718063e+02
290             	5.99748794e+02
291             	5.99761505e+02
292             	5.99906756e+02
293             	6.00000000e+02
294             	6.00000000e+02
295             	6.00000000e+02
296             	6.00000000e+02
297             	6.00000000e+02
298             	6.00000000e+02
299             	5.99888634e+02
300             	5.99783174e+02
301             	5.99768166e+02
302             	5.99760535e+02
303             	5.99729336e+02
304             	5.99746813e+02
305             	5.99821853e+02
306             	5.99949388e+02
307             	5.99971063e+02
308             	5.99978459e+02
309             	6.00000000e+02
310             	6.00000000e+02
311             	5.99986669e+02
312             	5.99897732e+02
313             	5.99826110e+02
314             	5.99827167e+02
315             	5.99829710e+02
316             	5.99807794e+02
317             	5.99797330e+02
318             	5.99838252e+02
319             	5.99901491e+02
320             	5.99950981e+02
321             	5.99968598e+02
322             	5.99987768e+02
323             	6.00000000e+02
324             	5.99957007e+02
325             	5.99908982e+02
326             	5.99910250e+02
327             	5.99875584e+02
328             	5.99852381e+02
329             	5.99830630e+02
330             	5.99816133e+02
331             	5.99804971e+02
332             	5.99860012e+02
333             	5.99919841e+02
334             	5.99933130e+02
335             	5.99939013e+02
336             	5.99952816e+02
337             	5.99988288e+02
338             	6.00000000e+02
339             	5.99971351e+02
340             	5.99936264e+02
341             	5.99888773e+02
342             	5.99851338e+02
343             	5.99843730e+02
344             	5.99842902e+02
345             	5.99840501e+02
346             	5.99838169e+02
347             	5.99861232e+02
348             	5.99902611e+02
349             	5.99914321e+02
350             	5.99937719e+02
351             	5.99962228e+02
352             	5.99987106e+02
353             	5.99994602e+02
354             	5.99988986e+02
355             	5.99974614e+02
356             	5.99962862e+02
357             	5.99934254e+02
358             	5.99894562e+02
359             	5.99883789e+02
360             	5.99897494e+02
361             	5.99905030e+02
362             	5.99890724e+02
363             	5.99877100e+02
364             	5.99881908e+02
365             	5.99884536e+02
366             	5.99896219e+02
367             	5.99921219e+02
368             	5.99941571e+02
369             	5.99985348e+02
370             	5.99992921e+02
371             	5.99992063e+02
372             	5.99986907e+02
373             	5.99976791e+02
374             	5.99974623e+02
375             	5.99975907e+02
376             	5.99953563e+02
377             	5.99908498e+02
378             	5.99887024e+02
379             	5.99886137e+02
380             	5.99885478e+02
381             	5.99885418e+02
382             	5.99889695e+02
383             	5.99905467e+02
384             	5.99920719e+02
385             	5.99930533e+02
386             	5.99929883e+02
387             	5.99926414e+02
388             	5.99916986e+02
389             	5.99915239e+02
390             	5.99929124e+02
391             	5.99954668e+02
392             	5.99975526e+02
393             	5.99979088e+02
394             	5.99975692e+02
395             	5.99973831e+02
396             	5.99975952e+02
397             	5.99975684e+02
398             	5.99972096e+02
399             	5.99966941e+02
400             	5.99960811e+02
401             	5.99951962e+02
402             	5.99938738e+02
403             	5.99931733e+02
404             	5.99922541e+02
405             	5.99913825e+02
406             	5.99908434e+02
407             	5.99912463e+02
408             	5.99919780e+02
409             	5.99924932e+02
410             	5.99926380e+02
411             	5.99928871e+02
412             	5.99929188e+02
413             	5.99927015e+02
414             	5.99928792e+02
415             	5.99932024e+02
416             	5.99934293e+02
417             	5.99937487e+02
418             	5.99940364e+02
419             	5.99941079e+02
420             	5.99939858e+02
421             	5.99936369e+02
422             	5.99932106e+02
423             	5.99931837e+02
424             	5.99930244e+02
425             	5.99929169e+02
426             	5.99929879e+02
427             	5.99932809e+02
428             	5.99934864e+02
429             	5.99931849e+02
430             	5.99929485e+02
431             	5.99927980e+02
432             	5.99924316e+02
433             	5.99926154e+02
434             	5.99934079e+02
435             	5.99936692e+02
436             	5.99936591e+02
437             	5.99938625e+02
438             	5.99942260e+02
439             	5.99947992e+02
440             	5.99948674e+02
441             	5.99947985e+02
442             	5.99947077e+02
443             	5.99947292e+02
444             	5.99946037e+02
445             	5.99943202e+02
446             	5.99936317e+02
447             	5.99932873e+02
448             	5.99930810e+02
449             	5.99932351e+02
450             	5.99932684e+02
451             	5.99933960e+02
452             	5.99936500e+02
453             	5.99937751e+02
454             	5.99938618e+02
455             	5.99939181e+02
456             	5.99937261e+02
457             	5.99934184e+02
458             	5.99932137e+02
459             	5.99931406e+02
460             	5.99930638e+02
461             	5.99929878e+02
462             	5.99929674e+02
463             	5.99929927e+02
464             	5.99928714e+02
465             	5.99928028e+02
466             	5.99928975e+02
467             	5.99930090e+02
468             	5.99931111e+02
469             	5.99932312e+02
470             	5.99933723e+02
471             	5.99936020e+02
472             	5.99936202e+02
473             	5.99941222e+02
474             	5.99942511e+02
475             	5.99942606e+02
476             	5.99943393e+02
477             	5.99944637e+02
478             	5.99945493e+02
479             	5.99944418e+02
480             	5.99942148e+02
481             	5.99939838e+02
482             	5.99937702e+02
483             	5.99935775e+02
484             	5.99934034e+02
485             	5.99932754e+02
486             	5.99932140e+02
487             	5.99932287e+02
488             	5.99932163e+02
489             	5.99931260e+02
490             	5.99924335e+02
491             	5.99923876e+02
492             	5.99925337e+02
493             	5.99925582e+02
494             	5.99926750e+02
495             	5.99927694e+02
496             	5.99929516e+02
497             	5.99931772e+02
498             	5.99940540e+02
499             	5.99943153e+02
500             	5.99943478e+02
501             	5.99943608e+02
502             	5.99943871e+02
503             	5.99943682e+02
504             	5.99943740e+02
505             	5.99943936e+02
506             	5.99944037e+02
507             	5.99942918e+02
508             	5.99939395e+02
509             	5.99937814e+02
510             	5.99937139e+02
511             	5.99935887e+02
512             	5.99934251e+02
513             	5.99933002e+02
514             	5.99932413e+02
515             	5.99931360e+02
516             	5.99931172e+02
517             	5.99932718e+02
518             	5.99934084e+02
519             	5.99934831e+02
520             	5.99935176e+02
521             	5.99935516e+02
522             	5.99935778e+02
523             	5.99934334e+02
524             	5.99931917e+02
525             	5.99931904e+02
526             	5.99931893e+02
527             	5.99931483e+02
528             	5.99932470e+02
529             	5.99933272e+02
530             	5.99934071e+02
531             	5.99934797e+02
532             	5.99935420e+02
533             	5.99936037e+02
534             	5.99936189e+02
535             	5.99935130e+02
536             	5.99931482e+02
537             	5.99930107e+02
538             	5.99929666e+02
539             	5.99930036e+02
540             	5.99931757e+02
541             	5.99934239e+02
542             	5.99937758e+02
543             	5.99941357e+02
544             	5.99941568e+02
545             	5.99939921e+02
546             	5.99939434e+02
547             	5.99939592e+02
548             	5.99939969e+02
549             	5.99939669e+02
550             	5.99939388e+02
551             	5.99939379e+02
552             	5.99939583e+02
553             	5.99939819e+02
554             	5.99939903e+02
555             	5.99939321e+02
556             	5.99937759e+02
557             	5.99936732e+02
558             	5.99934270e+02
559             	5.99933973e+02
560             	5.99933974e+02
561             	5.99934668e+02
562             	5.99935423e+02
563             	5.99936578e+02
564             	5.99936432e+02
565             	5.99935774e+02
566             	5.99933342e+02
567             	5.99933208e+02
568             	5.99933749e+02
569             	5.99933884e+02
570             	5.99933494e+02
571             	5.99933122e+02
572             	5.99932103e+02
573             	5.99931682e+02
574             	5.99931614e+02
575             	5.99931712e+02
576             	5.99931680e+02
577             	5.99931619e+02
578             	5.99931846e+02
579             	5.99932204e+02
580             	5.99932616e+02
581             	5.99932913e+02
582             	5.99932932e+02
583             	5.99932514e+02
584             	5.99932726e+02
585             	5.99933778e+02
586             	5.99936349e+02
587             	5.99937009e+02
588             	5.99938198e+02
589             	5.99939097e+02
590             	5.99939432e+02
591             	5.99939057e+02
592             	5.99938471e+02
593             	5.99938104e+02
594             	5.99937826e+02
595             	5.99936922e+02
596             	5.99936539e+02
597             	5.99936628e+02
598             	5.99936293e+02
599             	5.99936207e+02
600             	5.99936259e+02
601             	5.99936145e+02
602             	5.99935983e+02
603             	5.99935888e+02
604             	5.99935900e+02
605             	5.99935438e+02
606             	5.99935938e+02
607             	5.99936378e+02
608             	5.99936729e+02
609             	5.99937018e+02
610             	5.99937299e+02
611             	5.99937620e+02
612             	5.99937888e+02
613             	5.99938071e+02
614             	5.99938025e+02
615             	5.99936625e+02
616             	5.99936459e+02
617             	5.99933270e+02
618             	5.99932648e+02
619             	5.99932892e+02
620             	5.99932872e+02
621             	5.99931862e+02
