# Region        : cellZone component_4
# Cells         : 208
# Volume        : 4.17541824e-01
# Time          	volAverage(T)
1               	3.00226107e+02
2               	3.00450533e+02
3               	3.00660240e+02
4               	3.00859852e+02
5               	3.01053541e+02
6               	3.01242690e+02
7               	3.01428399e+02
8               	3.01611171e+02
9               	3.01791845e+02
10              	3.01970125e+02
11              	3.02146443e+02
12              	3.02320327e+02
13              	3.02491044e+02
14              	3.02658726e+02
15              	3.02824208e+02
16              	3.02985575e+02
17              	3.03142225e+02
18              	3.03292870e+02
19              	3.03438030e+02
20              	3.03582960e+02
21              	3.03726009e+02
22              	3.03868573e+02
23              	3.04010127e+02
24              	3.04149076e+02
25              	3.04288108e+02
26              	3.04427802e+02
27              	3.04561567e+02
28              	3.04690761e+02
29              	3.04817185e+02
30              	3.04940189e+02
31              	3.05063577e+02
32              	3.05183471e+02
33              	3.05292103e+02
34              	3.05389450e+02
35              	3.05477588e+02
36              	3.05557396e+02
37              	3.05633197e+02
38              	3.05710778e+02
39              	3.05790957e+02
40              	3.05879475e+02
41              	3.05972899e+02
42              	3.06075423e+02
43              	3.06177028e+02
44              	3.06274668e+02
45              	3.06369638e+02
46              	3.06465826e+02
47              	3.06562405e+02
48              	3.06657547e+02
49              	3.06751798e+02
50              	3.06843475e+02
51              	3.06934515e+02
52              	3.07019298e+02
53              	3.07101259e+02
54              	3.07177268e+02
55              	3.07253912e+02
56              	3.07328480e+02
57              	3.07407398e+02
58              	3.07487424e+02
59              	3.07554460e+02
60              	3.07603747e+02
61              	3.07650603e+02
62              	3.07701415e+02
63              	3.07747119e+02
64              	3.07796517e+02
65              	3.07846572e+02
66              	3.07897387e+02
67              	3.07947462e+02
68              	3.07995219e+02
69              	3.08044525e+02
70              	3.08093828e+02
71              	3.08141691e+02
72              	3.08188736e+02
73              	3.08233377e+02
74              	3.08276939e+02
75              	3.08321014e+02
76              	3.08362949e+02
77              	3.08404243e+02
78              	3.08443698e+02
79              	3.08483230e+02
80              	3.08522318e+02
81              	3.08560077e+02
82              	3.08598905e+02
83              	3.08637836e+02
84              	3.08675270e+02
85              	3.08714120e+02
86              	3.08751990e+02
87              	3.08789848e+02
88              	3.08825759e+02
89              	3.08862362e+02
90              	3.08896695e+02
91              	3.08932520e+02
92              	3.08965789e+02
93              	3.08998657e+02
94              	3.09032891e+02
95              	3.09065807e+02
96              	3.09098519e+02
97              	3.09130783e+02
98              	3.09163747e+02
99              	3.09195195e+02
100             	3.09226658e+02
101             	3.09256460e+02
102             	3.09285247e+02
103             	3.09313244e+02
104             	3.09341056e+02
105             	3.09368505e+02
106             	3.09395623e+02
107             	3.09422411e+02
108             	3.09449733e+02
109             	3.09476502e+02
110             	3.09503140e+02
111             	3.09530577e+02
112             	3.09557134e+02
113             	3.09583578e+02
114             	3.09609579e+02
115             	3.09634715e+02
116             	3.09659208e+02
117             	3.09683079e+02
118             	3.09707317e+02
119             	3.09732103e+02
120             	3.09757388e+02
121             	3.09782532e+02
122             	3.09807709e+02
123             	3.09832707e+02
124             	3.09856686e+02
125             	3.09879693e+02
126             	3.09901594e+02
127             	3.09921824e+02
128             	3.09941160e+02
129             	3.09959529e+02
130             	3.09977873e+02
131             	3.09996350e+02
132             	3.10014187e+02
133             	3.10032271e+02
134             	3.10050092e+02
135             	3.10067716e+02
136             	3.10085310e+02
137             	3.10102516e+02
138             	3.10119443e+02
139             	3.10135893e+02
140             	3.10151958e+02
141             	3.10167856e+02
142             	3.10183788e+02
143             	3.10200208e+02
144             	3.10216602e+02
145             	3.10233259e+02
146             	3.10250094e+02
147             	3.10267052e+02
148             	3.10283963e+02
149             	3.10300504e+02
150             	3.10316633e+02
151             	3.10332339e+02
152             	3.10347507e+02
153             	3.10362095e+02
154             	3.10376372e+02
155             	3.10390559e+02
156             	3.10404485e+02
157             	3.10418288e+02
158             	3.10431816e+02
159             	3.10445076e+02
160             	3.10458061e+02
161             	3.10470777e+02
162             	3.10483246e+02
163             	3.10495321e+02
164             	3.10507336e+02
165             	3.10519177e+02
166             	3.10530921e+02
167             	3.10542643e+02
168             	3.10554309e+02
169             	3.10565585e+02
170             	3.10577169e+02
171             	3.10588387e+02
172             	3.10599736e+02
173             	3.10610857e+02
174             	3.10621737e+02
175             	3.10632844e+02
176             	3.10643997e+02
177             	3.10655224e+02
178             	3.10666757e+02
179             	3.10678062e+02
180             	3.10688923e+02
181             	3.10699657e+02
182             	3.10709914e+02
183             	3.10719855e+02
184             	3.10729364e+02
185             	3.10738528e+02
186             	3.10747665e+02
187             	3.10756766e+02
188             	3.10765856e+02
189             	3.10774943e+02
190             	3.10784009e+02
191             	3.10792979e+02
192             	3.10802051e+02
193             	3.10811199e+02
194             	3.10820263e+02
195             	3.10829218e+02
196             	3.10838068e+02
197             	3.10846755e+02
198             	3.10855518e+02
199             	3.10864332e+02
200             	3.10873075e+02
201             	3.10881764e+02
202             	3.10890383e+02
203             	3.10898910e+02
204             	3.10906892e+02
205             	3.10914567e+02
206             	3.10921903e+02
207             	3.10928957e+02
208             	3.10935779e+02
209             	3.10942392e+02
210             	3.10948724e+02
211             	3.10955063e+02
212             	3.10961758e+02
213             	3.10968664e+02
214             	3.10975776e+02
215             	3.10983048e+02
216             	3.10990439e+02
217             	3.10998063e+02
218             	3.11005515e+02
219             	3.11012518e+02
220             	3.11019348e+02
221             	3.11026100e+02
222             	3.11032641e+02
223             	3.11039121e+02
224             	3.11045558e+02
225             	3.11051974e+02
226             	3.11058324e+02
227             	3.11064481e+02
228             	3.11070544e+02
229             	3.11076370e+02
230             	3.11081977e+02
231             	3.11087371e+02
232             	3.11092585e+02
233             	3.11097629e+02
234             	3.11102533e+02
235             	3.11107354e+02
236             	3.11112130e+02
237             	3.11117228e+02
238             	3.11122436e+02
239             	3.11127786e+02
240             	3.11133184e+02
241             	3.11138708e+02
242             	3.11144167e+02
243             	3.11149444e+02
244             	3.11154556e+02
245             	3.11159511e+02
246             	3.11164327e+02
247             	3.11168971e+02
248             	3.11173656e+02
249             	3.11178396e+02
250             	3.11183182e+02
251             	3.11187953e+02
252             	3.11192697e+02
253             	3.11197421e+02
254             	3.11202079e+02
255             	3.11206363e+02
256             	3.11210432e+02
257             	3.11214349e+02
258             	3.11218152e+02
259             	3.11221771e+02
260             	3.11225331e+02
261             	3.11228903e+02
262             	3.11232670e+02
263             	3.11236560e+02
264             	3.11240465e+02
265             	3.11244369e+02
266             	3.11248383e+02
267             	3.11252312e+02
268             	3.11256201e+02
269             	3.11260015e+02
270             	3.11263709e+02
271             	3.11267230e+02
272             	3.11270645e+02
273             	3.11274027e+02
274             	3.11277506e+02
275             	3.11281061e+02
276             	3.11284765e+02
277             	3.11288567e+02
278             	3.11292459e+02
279             	3.11296252e+02
280             	3.11300211e+02
281             	3.11303740e+02
282             	3.11307112e+02
283             	3.11310289e+02
284             	3.11313232e+02
285             	3.11316130e+02
286             	3.11318970e+02
287             	3.11321990e+02
288             	3.11325125e+02
289             	3.11328270e+02
290             	3.11331363e+02
291             	3.11334443e+02
292             	3.11337525e+02
293             	3.11340707e+02
294             	3.11343642e+02
295             	3.11346446e+02
296             	3.11349112e+02
297             	3.11351640e+02
298             	3.11354087e+02
299             	3.11356495e+02
300             	3.11358975e+02
301             	3.11361637e+02
302             	3.11364562e+02
303             	3.11367494e+02
304             	3.11370456e+02
305             	3.11373481e+02
306             	3.11376522e+02
307             	3.11379357e+02
308             	3.11382035e+02
309             	3.11384519e+02
310             	3.11386831e+02
311             	3.11389059e+02
312             	3.11391300e+02
313             	3.11393721e+02
314             	3.11396252e+02
315             	3.11398788e+02
316             	3.11401240e+02
317             	3.11403737e+02
318             	3.11406280e+02
319             	3.11408716e+02
320             	3.11410860e+02
321             	3.11412821e+02
322             	3.11414619e+02
323             	3.11416315e+02
324             	3.11417941e+02
325             	3.11419572e+02
326             	3.11421530e+02
327             	3.11423517e+02
328             	3.11425547e+02
329             	3.11427667e+02
330             	3.11429855e+02
331             	3.11432163e+02
332             	3.11434403e+02
333             	3.11436510e+02
334             	3.11438393e+02
335             	3.11440205e+02
336             	3.11441913e+02
337             	3.11443540e+02
338             	3.11445156e+02
339             	3.11446947e+02
340             	3.11448843e+02
341             	3.11450778e+02
342             	3.11452730e+02
343             	3.11454692e+02
344             	3.11456666e+02
345             	3.11458716e+02
346             	3.11460629e+02
347             	3.11462380e+02
348             	3.11463996e+02
349             	3.11465527e+02
350             	3.11466997e+02
351             	3.11468428e+02
352             	3.11469846e+02
353             	3.11471322e+02
354             	3.11472827e+02
355             	3.11474339e+02
356             	3.11475867e+02
357             	3.11477399e+02
358             	3.11478962e+02
359             	3.11480590e+02
360             	3.11482138e+02
361             	3.11483605e+02
362             	3.11485041e+02
363             	3.11486424e+02
364             	3.11487748e+02
365             	3.11489035e+02
366             	3.11490303e+02
367             	3.11491558e+02
368             	3.11492862e+02
369             	3.11494224e+02
370             	3.11495609e+02
371             	3.11497004e+02
372             	3.11498408e+02
373             	3.11499852e+02
374             	3.11501302e+02
375             	3.11502712e+02
376             	3.11504086e+02
377             	3.11505394e+02
378             	3.11506663e+02
379             	3.11507892e+02
380             	3.11509095e+02
381             	3.11510239e+02
382             	3.11511401e+02
383             	3.11512576e+02
384             	3.11513765e+02
385             	3.11514962e+02
386             	3.11516167e+02
387             	3.11517363e+02
388             	3.11518546e+02
389             	3.11519721e+02
390             	3.11520873e+02
391             	3.11522029e+02
392             	3.11523101e+02
393             	3.11524133e+02
394             	3.11525135e+02
395             	3.11526113e+02
396             	3.11527071e+02
397             	3.11528018e+02
398             	3.11528961e+02
399             	3.11529900e+02
400             	3.11530830e+02
401             	3.11531787e+02
402             	3.11532746e+02
403             	3.11533693e+02
404             	3.11534638e+02
405             	3.11535612e+02
406             	3.11536595e+02
407             	3.11537581e+02
408             	3.11538552e+02
409             	3.11539507e+02
410             	3.11540449e+02
411             	3.11541378e+02
412             	3.11542298e+02
413             	3.11543208e+02
414             	3.11544114e+02
415             	3.11545020e+02
416             	3.11545926e+02
417             	3.11546831e+02
418             	3.11547736e+02
419             	3.11548635e+02
420             	3.11549524e+02
421             	3.11550405e+02
422             	3.11551276e+02
423             	3.11552132e+02
424             	3.11552975e+02
425             	3.11553811e+02
426             	3.11554630e+02
427             	3.11555445e+02
428             	3.11556249e+02
429             	3.11557043e+02
430             	3.11557830e+02
431             	3.11558611e+02
432             	3.11559386e+02
433             	3.11560149e+02
434             	3.11560897e+02
435             	3.11561626e+02
436             	3.11562335e+02
437             	3.11563019e+02
438             	3.11563682e+02
439             	3.11564327e+02
440             	3.11564955e+02
441             	3.11565573e+02
442             	3.11566186e+02
443             	3.11566800e+02
444             	3.11567414e+02
445             	3.11568028e+02
446             	3.11568640e+02
447             	3.11569256e+02
448             	3.11569868e+02
449             	3.11570486e+02
450             	3.11571110e+02
451             	3.11571731e+02
452             	3.11572350e+02
453             	3.11572965e+02
454             	3.11573576e+02
455             	3.11574182e+02
456             	3.11574785e+02
457             	3.11575386e+02
458             	3.11575983e+02
459             	3.11576579e+02
460             	3.11577172e+02
461             	3.11577764e+02
462             	3.11578353e+02
463             	3.11578940e+02
464             	3.11579525e+02
465             	3.11580105e+02
466             	3.11580678e+02
467             	3.11581241e+02
468             	3.11581796e+02
469             	3.11582345e+02
470             	3.11582888e+02
471             	3.11583427e+02
472             	3.11583957e+02
473             	3.11584479e+02
474             	3.11584993e+02
475             	3.11585492e+02
476             	3.11585979e+02
477             	3.11586453e+02
478             	3.11586915e+02
479             	3.11587367e+02
480             	3.11587813e+02
481             	3.11588254e+02
482             	3.11588690e+02
483             	3.11589122e+02
484             	3.11589550e+02
485             	3.11589975e+02
486             	3.11590397e+02
487             	3.11590816e+02
488             	3.11591233e+02
489             	3.11591647e+02
490             	3.11592060e+02
491             	3.11592472e+02
492             	3.11592884e+02
493             	3.11593298e+02
494             	3.11593712e+02
495             	3.11594127e+02
496             	3.11594541e+02
497             	3.11594955e+02
498             	3.11595369e+02
499             	3.11595782e+02
500             	3.11596192e+02
501             	3.11596599e+02
502             	3.11597004e+02
503             	3.11597406e+02
504             	3.11597805e+02
505             	3.11598202e+02
506             	3.11598596e+02
507             	3.11598987e+02
508             	3.11599373e+02
509             	3.11599756e+02
510             	3.11600131e+02
511             	3.11600505e+02
512             	3.11600875e+02
513             	3.11601240e+02
514             	3.11601601e+02
515             	3.11601948e+02
516             	3.11602288e+02
517             	3.11602617e+02
518             	3.11602938e+02
519             	3.11603252e+02
520             	3.11603561e+02
521             	3.11603865e+02
522             	3.11604163e+02
523             	3.11604458e+02
524             	3.11604747e+02
525             	3.11605033e+02
526             	3.11605316e+02
527             	3.11605596e+02
528             	3.11605875e+02
529             	3.11606151e+02
530             	3.11606426e+02
531             	3.11606692e+02
532             	3.11606964e+02
533             	3.11607242e+02
534             	3.11607519e+02
535             	3.11607794e+02
536             	3.11608067e+02
537             	3.11608335e+02
538             	3.11608601e+02
539             	3.11608865e+02
540             	3.11609128e+02
541             	3.11609386e+02
542             	3.11609642e+02
543             	3.11609892e+02
544             	3.11610135e+02
545             	3.11610373e+02
546             	3.11610606e+02
547             	3.11610836e+02
548             	3.11611061e+02
549             	3.11611279e+02
550             	3.11611498e+02
551             	3.11611723e+02
552             	3.11611953e+02
553             	3.11612188e+02
554             	3.11612427e+02
555             	3.11612672e+02
556             	3.11612917e+02
557             	3.11613161e+02
558             	3.11613402e+02
559             	3.11613638e+02
560             	3.11613863e+02
561             	3.11614079e+02
562             	3.11614288e+02
563             	3.11614489e+02
564             	3.11614683e+02
565             	3.11614874e+02
566             	3.11615061e+02
567             	3.11615245e+02
568             	3.11615427e+02
569             	3.11615608e+02
570             	3.11615784e+02
571             	3.11615956e+02
572             	3.11616129e+02
573             	3.11616310e+02
574             	3.11616488e+02
575             	3.11616668e+02
576             	3.11616849e+02
577             	3.11617034e+02
578             	3.11617227e+02
579             	3.11617407e+02
580             	3.11617585e+02
581             	3.11617754e+02
582             	3.11617920e+02
583             	3.11618080e+02
584             	3.11618233e+02
585             	3.11618379e+02
586             	3.11618523e+02
587             	3.11618664e+02
588             	3.11618803e+02
589             	3.11618946e+02
590             	3.11619088e+02
591             	3.11619229e+02
592             	3.11619396e+02
593             	3.11619574e+02
594             	3.11619770e+02
595             	3.11619974e+02
596             	3.11620172e+02
597             	3.11620347e+02
598             	3.11620492e+02
599             	3.11620618e+02
600             	3.11620729e+02
601             	3.11620832e+02
602             	3.11620939e+02
603             	3.11621049e+02
604             	3.11621160e+02
605             	3.11621301e+02
606             	3.11621463e+02
607             	3.11621635e+02
608             	3.11621811e+02
609             	3.11621985e+02
610             	3.11622163e+02
611             	3.11622333e+02
612             	3.11622483e+02
613             	3.11622612e+02
614             	3.11622724e+02
615             	3.11622825e+02
616             	3.11622918e+02
617             	3.11623004e+02
618             	3.11623081e+02
619             	3.11623142e+02
620             	3.11623224e+02
621             	3.11623316e+02
