# Region        : cellZone component_1
# Cells         : 84
# Volume        : 1.46072486e-01
# Time          	volAverage(T)
1               	3.00222666e+02
2               	3.00443455e+02
3               	3.00651650e+02
4               	3.00851660e+02
5               	3.01048142e+02
6               	3.01241929e+02
7               	3.01433519e+02
8               	3.01623584e+02
9               	3.01812716e+02
10              	3.02001758e+02
11              	3.02188485e+02
12              	3.02372822e+02
13              	3.02553942e+02
14              	3.02733740e+02
15              	3.02912040e+02
16              	3.03085775e+02
17              	3.03255196e+02
18              	3.03423599e+02
19              	3.03591290e+02
20              	3.03758219e+02
21              	3.03922721e+02
22              	3.04084901e+02
23              	3.04242167e+02
24              	3.04395528e+02
25              	3.04549040e+02
26              	3.04701925e+02
27              	3.04854023e+02
28              	3.05003185e+02
29              	3.05148074e+02
30              	3.05287663e+02
31              	3.05422943e+02
32              	3.05554762e+02
33              	3.05684113e+02
34              	3.05811396e+02
35              	3.05937178e+02
36              	3.06061588e+02
37              	3.06184582e+02
38              	3.06305386e+02
39              	3.06424124e+02
40              	3.06537869e+02
41              	3.06649636e+02
42              	3.06757445e+02
43              	3.06862284e+02
44              	3.06964501e+02
45              	3.07067685e+02
46              	3.07170532e+02
47              	3.07275308e+02
48              	3.07381627e+02
49              	3.07488689e+02
50              	3.07595074e+02
51              	3.07700547e+02
52              	3.07805130e+02
53              	3.07906597e+02
54              	3.08006421e+02
55              	3.08103543e+02
56              	3.08199818e+02
57              	3.08293022e+02
58              	3.08385497e+02
59              	3.08476999e+02
60              	3.08567269e+02
61              	3.08656142e+02
62              	3.08743848e+02
63              	3.08829364e+02
64              	3.08911847e+02
65              	3.08993776e+02
66              	3.09074970e+02
67              	3.09155108e+02
68              	3.09234794e+02
69              	3.09313890e+02
70              	3.09393089e+02
71              	3.09471242e+02
72              	3.09549434e+02
73              	3.09624014e+02
74              	3.09698927e+02
75              	3.09767572e+02
76              	3.09833051e+02
77              	3.09896399e+02
78              	3.09957431e+02
79              	3.10016411e+02
80              	3.10073099e+02
81              	3.10127748e+02
82              	3.10180625e+02
83              	3.10232876e+02
84              	3.10284516e+02
85              	3.10336759e+02
86              	3.10390281e+02
87              	3.10443059e+02
88              	3.10497408e+02
89              	3.10552974e+02
90              	3.10608622e+02
91              	3.10661080e+02
92              	3.10713676e+02
93              	3.10764644e+02
94              	3.10811849e+02
95              	3.10857043e+02
96              	3.10900389e+02
97              	3.10943228e+02
98              	3.10985460e+02
99              	3.11027550e+02
100             	3.11070228e+02
101             	3.11115084e+02
102             	3.11162428e+02
103             	3.11208960e+02
104             	3.11256044e+02
105             	3.11303480e+02
106             	3.11349558e+02
107             	3.11393280e+02
108             	3.11435122e+02
109             	3.11474937e+02
110             	3.11513631e+02
111             	3.11550757e+02
112             	3.11586784e+02
113             	3.11622344e+02
114             	3.11657966e+02
115             	3.11694574e+02
116             	3.11732392e+02
117             	3.11771126e+02
118             	3.11809530e+02
119             	3.11849246e+02
120             	3.11889393e+02
121             	3.11929357e+02
122             	3.11968716e+02
123             	3.12007158e+02
124             	3.12044573e+02
125             	3.12078902e+02
126             	3.12112865e+02
127             	3.12145244e+02
128             	3.12176498e+02
129             	3.12204832e+02
130             	3.12231755e+02
131             	3.12257930e+02
132             	3.12285691e+02
133             	3.12313288e+02
134             	3.12341025e+02
135             	3.12369735e+02
136             	3.12400600e+02
137             	3.12432478e+02
138             	3.12463994e+02
139             	3.12495035e+02
140             	3.12525008e+02
141             	3.12553879e+02
142             	3.12581512e+02
143             	3.12608021e+02
144             	3.12633943e+02
145             	3.12659319e+02
146             	3.12684921e+02
147             	3.12712438e+02
148             	3.12737716e+02
149             	3.12762880e+02
150             	3.12788652e+02
151             	3.12813890e+02
152             	3.12838643e+02
153             	3.12862377e+02
154             	3.12885740e+02
155             	3.12908975e+02
156             	3.12932371e+02
157             	3.12954409e+02
158             	3.12976973e+02
159             	3.12997844e+02
160             	3.13018520e+02
161             	3.13039013e+02
162             	3.13058965e+02
163             	3.13078452e+02
164             	3.13097715e+02
165             	3.13117235e+02
166             	3.13136169e+02
167             	3.13155524e+02
168             	3.13174293e+02
169             	3.13193114e+02
170             	3.13212178e+02
171             	3.13231455e+02
172             	3.13250954e+02
173             	3.13270155e+02
174             	3.13289345e+02
175             	3.13308164e+02
176             	3.13326710e+02
177             	3.13345395e+02
178             	3.13363526e+02
179             	3.13380903e+02
180             	3.13397518e+02
181             	3.13413775e+02
182             	3.13429397e+02
183             	3.13444696e+02
184             	3.13459634e+02
185             	3.13474212e+02
186             	3.13488941e+02
187             	3.13503622e+02
188             	3.13517863e+02
189             	3.13532064e+02
190             	3.13546408e+02
191             	3.13560816e+02
192             	3.13575090e+02
193             	3.13589566e+02
194             	3.13603774e+02
195             	3.13618550e+02
196             	3.13632899e+02
197             	3.13647039e+02
198             	3.13660904e+02
199             	3.13674258e+02
200             	3.13687394e+02
201             	3.13700335e+02
202             	3.13712816e+02
203             	3.13725325e+02
204             	3.13737797e+02
205             	3.13749836e+02
206             	3.13761951e+02
207             	3.13773839e+02
208             	3.13785471e+02
209             	3.13796792e+02
210             	3.13807899e+02
211             	3.13818794e+02
212             	3.13829450e+02
213             	3.13840182e+02
214             	3.13850385e+02
215             	3.13860868e+02
216             	3.13870998e+02
217             	3.13881155e+02
218             	3.13891325e+02
219             	3.13901422e+02
220             	3.13911573e+02
221             	3.13922235e+02
222             	3.13932633e+02
223             	3.13942618e+02
224             	3.13952471e+02
225             	3.13962377e+02
226             	3.13972176e+02
227             	3.13981829e+02
228             	3.13991391e+02
229             	3.14000822e+02
230             	3.14010099e+02
231             	3.14018833e+02
232             	3.14027452e+02
233             	3.14035911e+02
234             	3.14044191e+02
235             	3.14052269e+02
236             	3.14060085e+02
237             	3.14067126e+02
238             	3.14074511e+02
239             	3.14081507e+02
240             	3.14088385e+02
241             	3.14095475e+02
242             	3.14102865e+02
243             	3.14110138e+02
244             	3.14117730e+02
245             	3.14125180e+02
246             	3.14132806e+02
247             	3.14140420e+02
248             	3.14148145e+02
249             	3.14155433e+02
250             	3.14162796e+02
251             	3.14169738e+02
252             	3.14176496e+02
253             	3.14182938e+02
254             	3.14189107e+02
255             	3.14195024e+02
256             	3.14200968e+02
257             	3.14206563e+02
258             	3.14212113e+02
259             	3.14217783e+02
260             	3.14223613e+02
261             	3.14229232e+02
262             	3.14234822e+02
263             	3.14240459e+02
264             	3.14246089e+02
265             	3.14251655e+02
266             	3.14257227e+02
267             	3.14262871e+02
268             	3.14268526e+02
269             	3.14274150e+02
270             	3.14279767e+02
271             	3.14285290e+02
272             	3.14290682e+02
273             	3.14295769e+02
274             	3.14300776e+02
275             	3.14305638e+02
276             	3.14310370e+02
277             	3.14314768e+02
278             	3.14318774e+02
279             	3.14322996e+02
280             	3.14327006e+02
281             	3.14330988e+02
282             	3.14334968e+02
283             	3.14339461e+02
284             	3.14343956e+02
285             	3.14348386e+02
286             	3.14353124e+02
287             	3.14357637e+02
288             	3.14362048e+02
289             	3.14366461e+02
290             	3.14370840e+02
291             	3.14375172e+02
292             	3.14379369e+02
293             	3.14383407e+02
294             	3.14387378e+02
295             	3.14391268e+02
296             	3.14395083e+02
297             	3.14398841e+02
298             	3.14402538e+02
299             	3.14406157e+02
300             	3.14409663e+02
301             	3.14413112e+02
302             	3.14416490e+02
303             	3.14419828e+02
304             	3.14423142e+02
305             	3.14426439e+02
306             	3.14429744e+02
307             	3.14433068e+02
308             	3.14436742e+02
309             	3.14440258e+02
310             	3.14443785e+02
311             	3.14447306e+02
312             	3.14450799e+02
313             	3.14454035e+02
314             	3.14457060e+02
315             	3.14460148e+02
316             	3.14463084e+02
317             	3.14465922e+02
318             	3.14468708e+02
319             	3.14471440e+02
320             	3.14474116e+02
321             	3.14476753e+02
322             	3.14479351e+02
323             	3.14481900e+02
324             	3.14484428e+02
325             	3.14486931e+02
326             	3.14489443e+02
327             	3.14492108e+02
328             	3.14494739e+02
329             	3.14497353e+02
330             	3.14499772e+02
331             	3.14502246e+02
332             	3.14504652e+02
333             	3.14507052e+02
334             	3.14509322e+02
335             	3.14511557e+02
336             	3.14513749e+02
337             	3.14515852e+02
338             	3.14517917e+02
339             	3.14519946e+02
340             	3.14521938e+02
341             	3.14523876e+02
342             	3.14525899e+02
343             	3.14527923e+02
344             	3.14529934e+02
345             	3.14531971e+02
346             	3.14533951e+02
347             	3.14535824e+02
348             	3.14537798e+02
349             	3.14539689e+02
350             	3.14541577e+02
351             	3.14543445e+02
352             	3.14545297e+02
353             	3.14547084e+02
354             	3.14548833e+02
355             	3.14550536e+02
356             	3.14552197e+02
357             	3.14553826e+02
358             	3.14555435e+02
359             	3.14557022e+02
360             	3.14558622e+02
361             	3.14560220e+02
362             	3.14561814e+02
363             	3.14563411e+02
364             	3.14565010e+02
365             	3.14566596e+02
366             	3.14568174e+02
367             	3.14569725e+02
368             	3.14571151e+02
369             	3.14572573e+02
370             	3.14573970e+02
371             	3.14575332e+02
372             	3.14576674e+02
373             	3.14577989e+02
374             	3.14579272e+02
375             	3.14580544e+02
376             	3.14581819e+02
377             	3.14583075e+02
378             	3.14584328e+02
379             	3.14585583e+02
380             	3.14586836e+02
381             	3.14588085e+02
382             	3.14589331e+02
383             	3.14590562e+02
384             	3.14591764e+02
385             	3.14592941e+02
386             	3.14594093e+02
387             	3.14595218e+02
388             	3.14596296e+02
389             	3.14597351e+02
390             	3.14598404e+02
391             	3.14599453e+02
392             	3.14600462e+02
393             	3.14601438e+02
394             	3.14602380e+02
395             	3.14603321e+02
396             	3.14604243e+02
397             	3.14605163e+02
398             	3.14606108e+02
399             	3.14607060e+02
400             	3.14608021e+02
401             	3.14608978e+02
402             	3.14609942e+02
403             	3.14610899e+02
404             	3.14611835e+02
405             	3.14612761e+02
406             	3.14613661e+02
407             	3.14614517e+02
408             	3.14615332e+02
409             	3.14616136e+02
410             	3.14616916e+02
411             	3.14617684e+02
412             	3.14618438e+02
413             	3.14619172e+02
414             	3.14619903e+02
415             	3.14620635e+02
416             	3.14621369e+02
417             	3.14622096e+02
418             	3.14622830e+02
419             	3.14623568e+02
420             	3.14624315e+02
421             	3.14625055e+02
422             	3.14625734e+02
423             	3.14626428e+02
424             	3.14627117e+02
425             	3.14627793e+02
426             	3.14628459e+02
427             	3.14629112e+02
428             	3.14629738e+02
429             	3.14630350e+02
430             	3.14630945e+02
431             	3.14631529e+02
432             	3.14632110e+02
433             	3.14632689e+02
434             	3.14633259e+02
435             	3.14633832e+02
436             	3.14634408e+02
437             	3.14634982e+02
438             	3.14635558e+02
439             	3.14636139e+02
440             	3.14636703e+02
441             	3.14637261e+02
442             	3.14637785e+02
443             	3.14638288e+02
444             	3.14638789e+02
445             	3.14639284e+02
446             	3.14639762e+02
447             	3.14640237e+02
448             	3.14640714e+02
449             	3.14641179e+02
450             	3.14641647e+02
451             	3.14642107e+02
452             	3.14642566e+02
453             	3.14643031e+02
454             	3.14643492e+02
455             	3.14643936e+02
456             	3.14644374e+02
457             	3.14644811e+02
458             	3.14645235e+02
459             	3.14645658e+02
460             	3.14646076e+02
461             	3.14646477e+02
462             	3.14646880e+02
463             	3.14647275e+02
464             	3.14647652e+02
465             	3.14648021e+02
466             	3.14648386e+02
467             	3.14648740e+02
468             	3.14649095e+02
469             	3.14649447e+02
470             	3.14649785e+02
471             	3.14650128e+02
472             	3.14650471e+02
473             	3.14650808e+02
474             	3.14651151e+02
475             	3.14651496e+02
476             	3.14651831e+02
477             	3.14652175e+02
478             	3.14652519e+02
479             	3.14652852e+02
480             	3.14653186e+02
481             	3.14653510e+02
482             	3.14653815e+02
483             	3.14654120e+02
484             	3.14654406e+02
485             	3.14654678e+02
486             	3.14654959e+02
487             	3.14655229e+02
488             	3.14655488e+02
489             	3.14655753e+02
490             	3.14656014e+02
491             	3.14656274e+02
492             	3.14656537e+02
493             	3.14656802e+02
494             	3.14657047e+02
495             	3.14657301e+02
496             	3.14657554e+02
497             	3.14657797e+02
498             	3.14658043e+02
499             	3.14658291e+02
500             	3.14658530e+02
501             	3.14658776e+02
502             	3.14659017e+02
503             	3.14659246e+02
504             	3.14659476e+02
505             	3.14659704e+02
506             	3.14659917e+02
507             	3.14660132e+02
508             	3.14660346e+02
509             	3.14660539e+02
510             	3.14660725e+02
511             	3.14660912e+02
512             	3.14661119e+02
513             	3.14661309e+02
514             	3.14661491e+02
515             	3.14661683e+02
516             	3.14661860e+02
517             	3.14662040e+02
518             	3.14662232e+02
519             	3.14662415e+02
520             	3.14662581e+02
521             	3.14662762e+02
522             	3.14662948e+02
523             	3.14663103e+02
524             	3.14663255e+02
525             	3.14663406e+02
526             	3.14663571e+02
527             	3.14663724e+02
528             	3.14663869e+02
529             	3.14664022e+02
530             	3.14664169e+02
531             	3.14664307e+02
532             	3.14664455e+02
533             	3.14664618e+02
534             	3.14664773e+02
535             	3.14664908e+02
536             	3.14665036e+02
537             	3.14665159e+02
538             	3.14665291e+02
539             	3.14665425e+02
540             	3.14665540e+02
541             	3.14665648e+02
542             	3.14665755e+02
543             	3.14665856e+02
544             	3.14665975e+02
545             	3.14666087e+02
546             	3.14666190e+02
547             	3.14666289e+02
548             	3.14666390e+02
549             	3.14666509e+02
550             	3.14666626e+02
551             	3.14666725e+02
552             	3.14666817e+02
553             	3.14666905e+02
554             	3.14667008e+02
555             	3.14667104e+02
556             	3.14667188e+02
557             	3.14667271e+02
558             	3.14667350e+02
559             	3.14667424e+02
560             	3.14667496e+02
561             	3.14667575e+02
562             	3.14667643e+02
563             	3.14667719e+02
564             	3.14667807e+02
565             	3.14667880e+02
566             	3.14667958e+02
567             	3.14668038e+02
568             	3.14668109e+02
569             	3.14668188e+02
570             	3.14668283e+02
571             	3.14668347e+02
572             	3.14668421e+02
573             	3.14668507e+02
574             	3.14668577e+02
575             	3.14668640e+02
576             	3.14668708e+02
577             	3.14668784e+02
578             	3.14668851e+02
579             	3.14668917e+02
580             	3.14668987e+02
581             	3.14669045e+02
582             	3.14669100e+02
583             	3.14669151e+02
584             	3.14669209e+02
585             	3.14669278e+02
586             	3.14669345e+02
587             	3.14669404e+02
588             	3.14669462e+02
589             	3.14669531e+02
590             	3.14669592e+02
591             	3.14669645e+02
592             	3.14669701e+02
593             	3.14669768e+02
594             	3.14669825e+02
595             	3.14669873e+02
596             	3.14669923e+02
597             	3.14669983e+02
598             	3.14670034e+02
599             	3.14670075e+02
600             	3.14670119e+02
601             	3.14670173e+02
602             	3.14670209e+02
603             	3.14670239e+02
604             	3.14670275e+02
605             	3.14670319e+02
606             	3.14670356e+02
607             	3.14670387e+02
608             	3.14670424e+02
609             	3.14670469e+02
610             	3.14670509e+02
611             	3.14670552e+02
612             	3.14670598e+02
613             	3.14670638e+02
614             	3.14670674e+02
615             	3.14670708e+02
616             	3.14670751e+02
617             	3.14670792e+02
618             	3.14670824e+02
619             	3.14670859e+02
620             	3.14670899e+02
621             	3.14670934e+02
