# Region        : cellZone component_1
# Cells         : 70
# Volume        : 1.20968613e-01
# Time          	volAverage(T)
1               	3.00770088e+02
2               	3.01523442e+02
3               	3.02207737e+02
4               	3.02843449e+02
5               	3.03449236e+02
6               	3.04032395e+02
7               	3.04600881e+02
8               	3.05157035e+02
9               	3.05703308e+02
10              	3.06246282e+02
11              	3.06778031e+02
12              	3.07297546e+02
13              	3.07774539e+02
14              	3.08240367e+02
15              	3.08689987e+02
16              	3.09087393e+02
17              	3.09468371e+02
18              	3.09846975e+02
19              	3.10238916e+02
20              	3.10637934e+02
21              	3.11036833e+02
22              	3.11434860e+02
23              	3.11823399e+02
24              	3.12211458e+02
25              	3.12589220e+02
26              	3.12957117e+02
27              	3.13307697e+02
28              	3.13642847e+02
29              	3.13957667e+02
30              	3.14257252e+02
31              	3.14542191e+02
32              	3.14807430e+02
33              	3.15054637e+02
34              	3.15283653e+02
35              	3.15502633e+02
36              	3.15709080e+02
37              	3.15904927e+02
38              	3.16082426e+02
39              	3.16244938e+02
40              	3.16392156e+02
41              	3.16524057e+02
42              	3.16637311e+02
43              	3.16737758e+02
44              	3.16828802e+02
45              	3.16913512e+02
46              	3.16996832e+02
47              	3.17084766e+02
48              	3.17179870e+02
49              	3.17279063e+02
50              	3.17386077e+02
51              	3.17498243e+02
52              	3.17610416e+02
53              	3.17723969e+02
54              	3.17836792e+02
55              	3.17946239e+02
56              	3.18045705e+02
57              	3.18144657e+02
58              	3.18242128e+02
59              	3.18325977e+02
60              	3.18404695e+02
61              	3.18488531e+02
62              	3.18568786e+02
63              	3.18642351e+02
64              	3.18712451e+02
65              	3.18775643e+02
66              	3.18839680e+02
67              	3.18910358e+02
68              	3.18986154e+02
69              	3.19070394e+02
70              	3.19173804e+02
71              	3.19282522e+02
72              	3.19391256e+02
73              	3.19485532e+02
74              	3.19564853e+02
75              	3.19642162e+02
76              	3.19720727e+02
77              	3.19799566e+02
78              	3.19879123e+02
79              	3.19951855e+02
80              	3.20009591e+02
81              	3.20059261e+02
82              	3.20102611e+02
83              	3.20141759e+02
84              	3.20179090e+02
85              	3.20208631e+02
86              	3.20233928e+02
87              	3.20254417e+02
88              	3.20276435e+02
89              	3.20302021e+02
90              	3.20326268e+02
91              	3.20348633e+02
92              	3.20372992e+02
93              	3.20394332e+02
94              	3.20402941e+02
95              	3.20418749e+02
96              	3.20437380e+02
97              	3.20463780e+02
98              	3.20488412e+02
99              	3.20516570e+02
100             	3.20560694e+02
101             	3.20601551e+02
102             	3.20640621e+02
103             	3.20674977e+02
104             	3.20709250e+02
105             	3.20725926e+02
106             	3.20734076e+02
107             	3.20751147e+02
108             	3.20769325e+02
109             	3.20786749e+02
110             	3.20803187e+02
111             	3.20821922e+02
112             	3.20839183e+02
113             	3.20854645e+02
114             	3.20868299e+02
115             	3.20877666e+02
116             	3.20885182e+02
117             	3.20879021e+02
118             	3.20864049e+02
119             	3.20850149e+02
120             	3.20838917e+02
121             	3.20827926e+02
122             	3.20823346e+02
123             	3.20823686e+02
124             	3.20829117e+02
125             	3.20841310e+02
126             	3.20857711e+02
127             	3.20875053e+02
128             	3.20895696e+02
129             	3.20904332e+02
130             	3.20913897e+02
131             	3.20921334e+02
132             	3.20928122e+02
133             	3.20933231e+02
134             	3.20936724e+02
135             	3.20940864e+02
136             	3.20946096e+02
137             	3.20956788e+02
138             	3.20972681e+02
139             	3.20989555e+02
140             	3.21007939e+02
141             	3.21031047e+02
142             	3.21034978e+02
143             	3.21019522e+02
144             	3.21011889e+02
145             	3.21005636e+02
146             	3.20998410e+02
147             	3.20993050e+02
148             	3.20989306e+02
149             	3.20992678e+02
150             	3.21004458e+02
151             	3.21020865e+02
152             	3.21035998e+02
153             	3.21054085e+02
154             	3.21067003e+02
155             	3.21076551e+02
156             	3.21081974e+02
157             	3.21084552e+02
158             	3.21080590e+02
159             	3.21077730e+02
160             	3.21077809e+02
161             	3.21081148e+02
162             	3.21086623e+02
163             	3.21099569e+02
164             	3.21111146e+02
165             	3.21117353e+02
166             	3.21123320e+02
167             	3.21131878e+02
168             	3.21126037e+02
169             	3.21120044e+02
170             	3.21107735e+02
171             	3.21095570e+02
172             	3.21073987e+02
173             	3.21054542e+02
174             	3.21044249e+02
175             	3.21039443e+02
176             	3.21041610e+02
177             	3.21049160e+02
178             	3.21064028e+02
179             	3.21085440e+02
180             	3.21109916e+02
181             	3.21134714e+02
182             	3.21160738e+02
183             	3.21187480e+02
184             	3.21211221e+02
185             	3.21225704e+02
186             	3.21242303e+02
187             	3.21258878e+02
188             	3.21275319e+02
189             	3.21290780e+02
190             	3.21303299e+02
191             	3.21312447e+02
192             	3.21318292e+02
193             	3.21322330e+02
194             	3.21324598e+02
195             	3.21325177e+02
196             	3.21328271e+02
197             	3.21337346e+02
198             	3.21349974e+02
199             	3.21365384e+02
200             	3.21386680e+02
201             	3.21410523e+02
202             	3.21425936e+02
203             	3.21453757e+02
204             	3.21487011e+02
205             	3.21522640e+02
206             	3.21558974e+02
207             	3.21593347e+02
208             	3.21627269e+02
209             	3.21652633e+02
210             	3.21680418e+02
211             	3.21698075e+02
212             	3.21712871e+02
213             	3.21717754e+02
214             	3.21722287e+02
215             	3.21723357e+02
216             	3.21718583e+02
217             	3.21709226e+02
218             	3.21699143e+02
219             	3.21689290e+02
220             	3.21678098e+02
221             	3.21666195e+02
222             	3.21659092e+02
223             	3.21658291e+02
224             	3.21662325e+02
225             	3.21668505e+02
226             	3.21681035e+02
227             	3.21694576e+02
228             	3.21713187e+02
229             	3.21736938e+02
230             	3.21763314e+02
231             	3.21791674e+02
232             	3.21819796e+02
233             	3.21845122e+02
234             	3.21864752e+02
235             	3.21878971e+02
236             	3.21884291e+02
237             	3.21884963e+02
238             	3.21879615e+02
239             	3.21868063e+02
240             	3.21852924e+02
241             	3.21833357e+02
242             	3.21810599e+02
243             	3.21787274e+02
244             	3.21763943e+02
245             	3.21740633e+02
246             	3.21718414e+02
247             	3.21699076e+02
248             	3.21683552e+02
249             	3.21673932e+02
250             	3.21671309e+02
251             	3.21674601e+02
252             	3.21684515e+02
253             	3.21700751e+02
254             	3.21721211e+02
255             	3.21745225e+02
256             	3.21771231e+02
257             	3.21796086e+02
258             	3.21817962e+02
259             	3.21835234e+02
260             	3.21846850e+02
261             	3.21852631e+02
262             	3.21851684e+02
263             	3.21845728e+02
264             	3.21835456e+02
265             	3.21823009e+02
266             	3.21809377e+02
267             	3.21796076e+02
268             	3.21784761e+02
269             	3.21776649e+02
270             	3.21770051e+02
271             	3.21766413e+02
272             	3.21766518e+02
273             	3.21770220e+02
274             	3.21775340e+02
275             	3.21783312e+02
276             	3.21793159e+02
277             	3.21803590e+02
278             	3.21812700e+02
279             	3.21821721e+02
280             	3.21829485e+02
281             	3.21832847e+02
282             	3.21834177e+02
283             	3.21832807e+02
284             	3.21829204e+02
285             	3.21822888e+02
286             	3.21816585e+02
287             	3.21807835e+02
288             	3.21798876e+02
289             	3.21790731e+02
290             	3.21783212e+02
291             	3.21777937e+02
292             	3.21776027e+02
293             	3.21777753e+02
294             	3.21782678e+02
295             	3.21788912e+02
296             	3.21796270e+02
297             	3.21803154e+02
298             	3.21810768e+02
299             	3.21816018e+02
300             	3.21819971e+02
301             	3.21822857e+02
302             	3.21825394e+02
303             	3.21825823e+02
304             	3.21823524e+02
305             	3.21819487e+02
306             	3.21816379e+02
307             	3.21813361e+02
308             	3.21809136e+02
309             	3.21804963e+02
310             	3.21800265e+02
311             	3.21797727e+02
312             	3.21799035e+02
313             	3.21802199e+02
314             	3.21805932e+02
315             	3.21811327e+02
316             	3.21815428e+02
317             	3.21820583e+02
318             	3.21826289e+02
319             	3.21831819e+02
320             	3.21836868e+02
321             	3.21840301e+02
322             	3.21841946e+02
323             	3.21842124e+02
324             	3.21840276e+02
325             	3.21836660e+02
326             	3.21831487e+02
327             	3.21825391e+02
328             	3.21818862e+02
329             	3.21811513e+02
330             	3.21805482e+02
331             	3.21800140e+02
332             	3.21797108e+02
333             	3.21796285e+02
334             	3.21797155e+02
335             	3.21800187e+02
336             	3.21804762e+02
337             	3.21810631e+02
338             	3.21816944e+02
339             	3.21823510e+02
340             	3.21829827e+02
341             	3.21836269e+02
342             	3.21841012e+02
343             	3.21843495e+02
344             	3.21843438e+02
345             	3.21840914e+02
346             	3.21837178e+02
347             	3.21832083e+02
348             	3.21825543e+02
349             	3.21817366e+02
350             	3.21808946e+02
351             	3.21800936e+02
352             	3.21793708e+02
353             	3.21787122e+02
354             	3.21781560e+02
355             	3.21777725e+02
356             	3.21776128e+02
357             	3.21776010e+02
358             	3.21778064e+02
359             	3.21782128e+02
360             	3.21787805e+02
361             	3.21794620e+02
362             	3.21802301e+02
363             	3.21810337e+02
364             	3.21818645e+02
365             	3.21826869e+02
366             	3.21834553e+02
367             	3.21840213e+02
368             	3.21842327e+02
369             	3.21843615e+02
370             	3.21843884e+02
371             	3.21842340e+02
372             	3.21838925e+02
373             	3.21834303e+02
374             	3.21828879e+02
375             	3.21823447e+02
376             	3.21818255e+02
377             	3.21813801e+02
378             	3.21811123e+02
379             	3.21810782e+02
380             	3.21811871e+02
381             	3.21812399e+02
382             	3.21813866e+02
383             	3.21816889e+02
384             	3.21820752e+02
385             	3.21824338e+02
386             	3.21827570e+02
387             	3.21830615e+02
388             	3.21833622e+02
389             	3.21835849e+02
390             	3.21837861e+02
391             	3.21839018e+02
392             	3.21838998e+02
393             	3.21837594e+02
394             	3.21835883e+02
395             	3.21834684e+02
396             	3.21833385e+02
397             	3.21831752e+02
398             	3.21830288e+02
399             	3.21829181e+02
400             	3.21828869e+02
401             	3.21829197e+02
402             	3.21829716e+02
403             	3.21830731e+02
404             	3.21832437e+02
405             	3.21834688e+02
406             	3.21837222e+02
407             	3.21839805e+02
408             	3.21842644e+02
409             	3.21845345e+02
410             	3.21847488e+02
411             	3.21849146e+02
412             	3.21850201e+02
413             	3.21850778e+02
414             	3.21850833e+02
415             	3.21849939e+02
416             	3.21847756e+02
417             	3.21845885e+02
418             	3.21843970e+02
419             	3.21841730e+02
420             	3.21839439e+02
421             	3.21837430e+02
422             	3.21835772e+02
423             	3.21834613e+02
424             	3.21834114e+02
425             	3.21834413e+02
426             	3.21835516e+02
427             	3.21837171e+02
428             	3.21839394e+02
429             	3.21842188e+02
430             	3.21845699e+02
431             	3.21849029e+02
432             	3.21852503e+02
433             	3.21856171e+02
434             	3.21859709e+02
435             	3.21862740e+02
436             	3.21865407e+02
437             	3.21867525e+02
438             	3.21868676e+02
439             	3.21868731e+02
440             	3.21868100e+02
441             	3.21866657e+02
442             	3.21864086e+02
443             	3.21860497e+02
444             	3.21856102e+02
445             	3.21850792e+02
446             	3.21845234e+02
447             	3.21839491e+02
448             	3.21833724e+02
449             	3.21828113e+02
450             	3.21822787e+02
451             	3.21818371e+02
452             	3.21814820e+02
453             	3.21812310e+02
454             	3.21811045e+02
455             	3.21811095e+02
456             	3.21812363e+02
457             	3.21814628e+02
458             	3.21817961e+02
459             	3.21822109e+02
460             	3.21826721e+02
461             	3.21831448e+02
462             	3.21837059e+02
463             	3.21841263e+02
464             	3.21844296e+02
465             	3.21846411e+02
466             	3.21847367e+02
467             	3.21847004e+02
468             	3.21845371e+02
469             	3.21842277e+02
470             	3.21838613e+02
471             	3.21834964e+02
472             	3.21831480e+02
473             	3.21828257e+02
474             	3.21825709e+02
475             	3.21824170e+02
476             	3.21823698e+02
477             	3.21824416e+02
478             	3.21826607e+02
479             	3.21830381e+02
480             	3.21834551e+02
481             	3.21839534e+02
482             	3.21845347e+02
483             	3.21851009e+02
484             	3.21856397e+02
485             	3.21861456e+02
486             	3.21865378e+02
487             	3.21868573e+02
488             	3.21870430e+02
489             	3.21871367e+02
490             	3.21871405e+02
491             	3.21870321e+02
492             	3.21868160e+02
493             	3.21865187e+02
494             	3.21861793e+02
495             	3.21858532e+02
496             	3.21855262e+02
497             	3.21851935e+02
498             	3.21848913e+02
499             	3.21846342e+02
500             	3.21844434e+02
501             	3.21843156e+02
502             	3.21842801e+02
503             	3.21843182e+02
504             	3.21845162e+02
505             	3.21848006e+02
506             	3.21851736e+02
507             	3.21856671e+02
508             	3.21860831e+02
509             	3.21864827e+02
510             	3.21868823e+02
511             	3.21872680e+02
512             	3.21875892e+02
513             	3.21878321e+02
514             	3.21879711e+02
515             	3.21880110e+02
516             	3.21879705e+02
517             	3.21878555e+02
518             	3.21876693e+02
519             	3.21874311e+02
520             	3.21871565e+02
521             	3.21868813e+02
522             	3.21866383e+02
523             	3.21864442e+02
524             	3.21863129e+02
525             	3.21862643e+02
526             	3.21862682e+02
527             	3.21863348e+02
528             	3.21864939e+02
529             	3.21867560e+02
530             	3.21870771e+02
531             	3.21874359e+02
532             	3.21878061e+02
533             	3.21881789e+02
534             	3.21886299e+02
535             	3.21889587e+02
536             	3.21891773e+02
537             	3.21893266e+02
538             	3.21893936e+02
539             	3.21893599e+02
540             	3.21892046e+02
541             	3.21889279e+02
542             	3.21885545e+02
543             	3.21881006e+02
544             	3.21876184e+02
545             	3.21871262e+02
546             	3.21866454e+02
547             	3.21862118e+02
548             	3.21858331e+02
549             	3.21855285e+02
550             	3.21853307e+02
551             	3.21852541e+02
552             	3.21852935e+02
553             	3.21854321e+02
554             	3.21856681e+02
555             	3.21859806e+02
556             	3.21863299e+02
557             	3.21867245e+02
558             	3.21871045e+02
559             	3.21874751e+02
560             	3.21877932e+02
561             	3.21880194e+02
562             	3.21880713e+02
563             	3.21881015e+02
564             	3.21880654e+02
565             	3.21879275e+02
566             	3.21877082e+02
567             	3.21874469e+02
568             	3.21871795e+02
569             	3.21869145e+02
570             	3.21866862e+02
571             	3.21865151e+02
572             	3.21863763e+02
573             	3.21862911e+02
574             	3.21862564e+02
575             	3.21862678e+02
576             	3.21863178e+02
577             	3.21863943e+02
578             	3.21865024e+02
579             	3.21866682e+02
580             	3.21868125e+02
581             	3.21869357e+02
582             	3.21870610e+02
583             	3.21872115e+02
584             	3.21873358e+02
585             	3.21874122e+02
586             	3.21874297e+02
587             	3.21873887e+02
588             	3.21872948e+02
589             	3.21871758e+02
590             	3.21870157e+02
591             	3.21868213e+02
592             	3.21865719e+02
593             	3.21863450e+02
594             	3.21861517e+02
595             	3.21859799e+02
596             	3.21858438e+02
597             	3.21857440e+02
598             	3.21856982e+02
599             	3.21857114e+02
600             	3.21857823e+02
601             	3.21859067e+02
602             	3.21861014e+02
603             	3.21863127e+02
604             	3.21865245e+02
605             	3.21867351e+02
606             	3.21869130e+02
607             	3.21870704e+02
608             	3.21871479e+02
609             	3.21871035e+02
610             	3.21869489e+02
611             	3.21866916e+02
612             	3.21863686e+02
613             	3.21859664e+02
614             	3.21854999e+02
615             	3.21849954e+02
616             	3.21844860e+02
617             	3.21839816e+02
618             	3.21834884e+02
619             	3.21830778e+02
620             	3.21827745e+02
621             	3.21825585e+02
