# Region        : cellZone pcb
# Cells         : 594
# Volume        : 1.03782225e+00
# Time          	volAverage(T)
1               	3.00019368e+02
2               	3.00055986e+02
3               	3.00106520e+02
4               	3.00169867e+02
5               	3.00241626e+02
6               	3.00323035e+02
7               	3.00413360e+02
8               	3.00512261e+02
9               	3.00619075e+02
10              	3.00733210e+02
11              	3.00854841e+02
12              	3.00981446e+02
13              	3.01112876e+02
14              	3.01250974e+02
15              	3.01396656e+02
16              	3.01547440e+02
17              	3.01701634e+02
18              	3.01861848e+02
19              	3.02025103e+02
20              	3.02189678e+02
21              	3.02358894e+02
22              	3.02530899e+02
23              	3.02704746e+02
24              	3.02882174e+02
25              	3.03059878e+02
26              	3.03237616e+02
27              	3.03419930e+02
28              	3.03604763e+02
29              	3.03788030e+02
30              	3.03971863e+02
31              	3.04157166e+02
32              	3.04343345e+02
33              	3.04529720e+02
34              	3.04715462e+02
35              	3.04899021e+02
36              	3.05080255e+02
37              	3.05258362e+02
38              	3.05438937e+02
39              	3.05622097e+02
40              	3.05807815e+02
41              	3.05993153e+02
42              	3.06177449e+02
43              	3.06361098e+02
44              	3.06543629e+02
45              	3.06725796e+02
46              	3.06908421e+02
47              	3.07088220e+02
48              	3.07270812e+02
49              	3.07453023e+02
50              	3.07631302e+02
51              	3.07810188e+02
52              	3.07988892e+02
53              	3.08165011e+02
54              	3.08345041e+02
55              	3.08521293e+02
56              	3.08699665e+02
57              	3.08875911e+02
58              	3.09044844e+02
59              	3.09216188e+02
60              	3.09389191e+02
61              	3.09560024e+02
62              	3.09726362e+02
63              	3.09893838e+02
64              	3.10060318e+02
65              	3.10225437e+02
66              	3.10388687e+02
67              	3.10548070e+02
68              	3.10707017e+02
69              	3.10867053e+02
70              	3.11028259e+02
71              	3.11181099e+02
72              	3.11339601e+02
73              	3.11497378e+02
74              	3.11651002e+02
75              	3.11805202e+02
76              	3.11959588e+02
77              	3.12117932e+02
78              	3.12270880e+02
79              	3.12422454e+02
80              	3.12566779e+02
81              	3.12705740e+02
82              	3.12845239e+02
83              	3.12983793e+02
84              	3.13120406e+02
85              	3.13253206e+02
86              	3.13383171e+02
87              	3.13512711e+02
88              	3.13637657e+02
89              	3.13764197e+02
90              	3.13886417e+02
91              	3.14010916e+02
92              	3.14137215e+02
93              	3.14261688e+02
94              	3.14390902e+02
95              	3.14523640e+02
96              	3.14646596e+02
97              	3.14767564e+02
98              	3.14883479e+02
99              	3.14994858e+02
100             	3.15109080e+02
101             	3.15221638e+02
102             	3.15332938e+02
103             	3.15443932e+02
104             	3.15552581e+02
105             	3.15655606e+02
106             	3.15757561e+02
107             	3.15857339e+02
108             	3.15954235e+02
109             	3.16049530e+02
110             	3.16141998e+02
111             	3.16233496e+02
112             	3.16322757e+02
113             	3.16410641e+02
114             	3.16497541e+02
115             	3.16586800e+02
116             	3.16673321e+02
117             	3.16761459e+02
118             	3.16854286e+02
119             	3.16950440e+02
120             	3.17040687e+02
121             	3.17126617e+02
122             	3.17213736e+02
123             	3.17302299e+02
124             	3.17387350e+02
125             	3.17474591e+02
126             	3.17556726e+02
127             	3.17635652e+02
128             	3.17714681e+02
129             	3.17792918e+02
130             	3.17868152e+02
131             	3.17944216e+02
132             	3.18018475e+02
133             	3.18090719e+02
134             	3.18158721e+02
135             	3.18224200e+02
136             	3.18288496e+02
137             	3.18351442e+02
138             	3.18416720e+02
139             	3.18480308e+02
140             	3.18542745e+02
141             	3.18610096e+02
142             	3.18676917e+02
143             	3.18743690e+02
144             	3.18808832e+02
145             	3.18874014e+02
146             	3.18941316e+02
147             	3.19009839e+02
148             	3.19079179e+02
149             	3.19145673e+02
150             	3.19213393e+02
151             	3.19279997e+02
152             	3.19346236e+02
153             	3.19412401e+02
154             	3.19477228e+02
155             	3.19539626e+02
156             	3.19599523e+02
157             	3.19654688e+02
158             	3.19711061e+02
159             	3.19766591e+02
160             	3.19821183e+02
161             	3.19875100e+02
162             	3.19931089e+02
163             	3.19986243e+02
164             	3.20044098e+02
165             	3.20101814e+02
166             	3.20159378e+02
167             	3.20216691e+02
168             	3.20272661e+02
169             	3.20327407e+02
170             	3.20381142e+02
171             	3.20435581e+02
172             	3.20489269e+02
173             	3.20542898e+02
174             	3.20594211e+02
175             	3.20644748e+02
176             	3.20694277e+02
177             	3.20741811e+02
178             	3.20786217e+02
179             	3.20829602e+02
180             	3.20872732e+02
181             	3.20915448e+02
182             	3.20958470e+02
183             	3.21002945e+02
184             	3.21049049e+02
185             	3.21096492e+02
186             	3.21144878e+02
187             	3.21193677e+02
188             	3.21242033e+02
189             	3.21288263e+02
190             	3.21333161e+02
191             	3.21377456e+02
192             	3.21420979e+02
193             	3.21463480e+02
194             	3.21504529e+02
195             	3.21545234e+02
196             	3.21586962e+02
197             	3.21628300e+02
198             	3.21670044e+02
199             	3.21710578e+02
200             	3.21750374e+02
201             	3.21789517e+02
202             	3.21828028e+02
203             	3.21865266e+02
204             	3.21901245e+02
205             	3.21937225e+02
206             	3.21972703e+02
207             	3.22007899e+02
208             	3.22042720e+02
209             	3.22077905e+02
210             	3.22113652e+02
211             	3.22149460e+02
212             	3.22185916e+02
213             	3.22223001e+02
214             	3.22260279e+02
215             	3.22297160e+02
216             	3.22333898e+02
217             	3.22370326e+02
218             	3.22406400e+02
219             	3.22442141e+02
220             	3.22476820e+02
221             	3.22510528e+02
222             	3.22544991e+02
223             	3.22579414e+02
224             	3.22613402e+02
225             	3.22646703e+02
226             	3.22678835e+02
227             	3.22710348e+02
228             	3.22741758e+02
229             	3.22772565e+02
230             	3.22802388e+02
231             	3.22831582e+02
232             	3.22860173e+02
233             	3.22889170e+02
234             	3.22918375e+02
235             	3.22947673e+02
236             	3.22977328e+02
237             	3.23007413e+02
238             	3.23038023e+02
239             	3.23068926e+02
240             	3.23099744e+02
241             	3.23130605e+02
242             	3.23160788e+02
243             	3.23190364e+02
244             	3.23219078e+02
245             	3.23246839e+02
246             	3.23273824e+02
247             	3.23299896e+02
248             	3.23325490e+02
249             	3.23351185e+02
250             	3.23376888e+02
251             	3.23402618e+02
252             	3.23427774e+02
253             	3.23452992e+02
254             	3.23477994e+02
255             	3.23502940e+02
256             	3.23528125e+02
257             	3.23553147e+02
258             	3.23577598e+02
259             	3.23601766e+02
260             	3.23625640e+02
261             	3.23649808e+02
262             	3.23673581e+02
263             	3.23697106e+02
264             	3.23720008e+02
265             	3.23742540e+02
266             	3.23764801e+02
267             	3.23787644e+02
268             	3.23811076e+02
269             	3.23833472e+02
270             	3.23855566e+02
271             	3.23877514e+02
272             	3.23899685e+02
273             	3.23921680e+02
274             	3.23943078e+02
275             	3.23964706e+02
276             	3.23986589e+02
277             	3.24008356e+02
278             	3.24029702e+02
279             	3.24050847e+02
280             	3.24072437e+02
281             	3.24094127e+02
282             	3.24115505e+02
283             	3.24134041e+02
284             	3.24151469e+02
285             	3.24168402e+02
286             	3.24185859e+02
287             	3.24203504e+02
288             	3.24221210e+02
289             	3.24239469e+02
290             	3.24257517e+02
291             	3.24275455e+02
292             	3.24293559e+02
293             	3.24312999e+02
294             	3.24332318e+02
295             	3.24351110e+02
296             	3.24367812e+02
297             	3.24385885e+02
298             	3.24400871e+02
299             	3.24414587e+02
300             	3.24428571e+02
301             	3.24442214e+02
302             	3.24455881e+02
303             	3.24469814e+02
304             	3.24484384e+02
305             	3.24498772e+02
306             	3.24513397e+02
307             	3.24528224e+02
308             	3.24542068e+02
309             	3.24556526e+02
310             	3.24571357e+02
311             	3.24585862e+02
312             	3.24599775e+02
313             	3.24613108e+02
314             	3.24626475e+02
315             	3.24639333e+02
316             	3.24652365e+02
317             	3.24664836e+02
318             	3.24677185e+02
319             	3.24689763e+02
320             	3.24702179e+02
321             	3.24714365e+02
322             	3.24726047e+02
323             	3.24738502e+02
324             	3.24751616e+02
325             	3.24764278e+02
326             	3.24776570e+02
327             	3.24788477e+02
328             	3.24799686e+02
329             	3.24810848e+02
330             	3.24821948e+02
331             	3.24832565e+02
332             	3.24843195e+02
333             	3.24853680e+02
334             	3.24863635e+02
335             	3.24874095e+02
336             	3.24884604e+02
337             	3.24895607e+02
338             	3.24906794e+02
339             	3.24918067e+02
340             	3.24928978e+02
341             	3.24939016e+02
342             	3.24948554e+02
343             	3.24958157e+02
344             	3.24967293e+02
345             	3.24976376e+02
346             	3.24985046e+02
347             	3.24994015e+02
348             	3.25003341e+02
349             	3.25012640e+02
350             	3.25021555e+02
351             	3.25030319e+02
352             	3.25039031e+02
353             	3.25047825e+02
354             	3.25056543e+02
355             	3.25065445e+02
356             	3.25074521e+02
357             	3.25083910e+02
358             	3.25093615e+02
359             	3.25102859e+02
360             	3.25112246e+02
361             	3.25121929e+02
362             	3.25131664e+02
363             	3.25141558e+02
364             	3.25151065e+02
365             	3.25159639e+02
366             	3.25167816e+02
367             	3.25175454e+02
368             	3.25182959e+02
369             	3.25190319e+02
370             	3.25197510e+02
371             	3.25203999e+02
372             	3.25210581e+02
373             	3.25217086e+02
374             	3.25223736e+02
375             	3.25230116e+02
376             	3.25236706e+02
377             	3.25243189e+02
378             	3.25250372e+02
379             	3.25257689e+02
380             	3.25265034e+02
381             	3.25272175e+02
382             	3.25279631e+02
383             	3.25286212e+02
384             	3.25292581e+02
385             	3.25298788e+02
386             	3.25304292e+02
387             	3.25309858e+02
388             	3.25315309e+02
389             	3.25321061e+02
390             	3.25327043e+02
391             	3.25333327e+02
392             	3.25339924e+02
393             	3.25346187e+02
394             	3.25353163e+02
395             	3.25360541e+02
396             	3.25368292e+02
397             	3.25375634e+02
398             	3.25382577e+02
399             	3.25388770e+02
400             	3.25394543e+02
401             	3.25399880e+02
402             	3.25404688e+02
403             	3.25409323e+02
404             	3.25414019e+02
405             	3.25418222e+02
406             	3.25422491e+02
407             	3.25426527e+02
408             	3.25431097e+02
409             	3.25435717e+02
410             	3.25440682e+02
411             	3.25445204e+02
412             	3.25450155e+02
413             	3.25455585e+02
414             	3.25460907e+02
415             	3.25466361e+02
416             	3.25471399e+02
417             	3.25476435e+02
418             	3.25480994e+02
419             	3.25485207e+02
420             	3.25488806e+02
421             	3.25492637e+02
422             	3.25496007e+02
423             	3.25498786e+02
424             	3.25501607e+02
425             	3.25504395e+02
426             	3.25507240e+02
427             	3.25510212e+02
428             	3.25513794e+02
429             	3.25517461e+02
430             	3.25521627e+02
431             	3.25525698e+02
432             	3.25530052e+02
433             	3.25534226e+02
434             	3.25538840e+02
435             	3.25543736e+02
436             	3.25548438e+02
437             	3.25552615e+02
438             	3.25556415e+02
439             	3.25559860e+02
440             	3.25563426e+02
441             	3.25566176e+02
442             	3.25568362e+02
443             	3.25570486e+02
444             	3.25572581e+02
445             	3.25575041e+02
446             	3.25577806e+02
447             	3.25580459e+02
448             	3.25582682e+02
449             	3.25585910e+02
450             	3.25589605e+02
451             	3.25593817e+02
452             	3.25597389e+02
453             	3.25600948e+02
454             	3.25603980e+02
455             	3.25606857e+02
456             	3.25609394e+02
457             	3.25612060e+02
458             	3.25614071e+02
459             	3.25616195e+02
460             	3.25618182e+02
461             	3.25620528e+02
462             	3.25622849e+02
463             	3.25625433e+02
464             	3.25628418e+02
465             	3.25630851e+02
466             	3.25633836e+02
467             	3.25636994e+02
468             	3.25640105e+02
469             	3.25643068e+02
470             	3.25646129e+02
471             	3.25648849e+02
472             	3.25651441e+02
473             	3.25653744e+02
474             	3.25655834e+02
475             	3.25658105e+02
476             	3.25660715e+02
477             	3.25662811e+02
478             	3.25665006e+02
479             	3.25667170e+02
480             	3.25669545e+02
481             	3.25671751e+02
482             	3.25673877e+02
483             	3.25676070e+02
484             	3.25678517e+02
485             	3.25680853e+02
486             	3.25683300e+02
487             	3.25685888e+02
488             	3.25688311e+02
489             	3.25690782e+02
490             	3.25693082e+02
491             	3.25695284e+02
492             	3.25697431e+02
493             	3.25699307e+02
494             	3.25701096e+02
495             	3.25702881e+02
496             	3.25704803e+02
497             	3.25706690e+02
498             	3.25708964e+02
499             	3.25711289e+02
500             	3.25713894e+02
501             	3.25716380e+02
502             	3.25719083e+02
503             	3.25721508e+02
504             	3.25723785e+02
505             	3.25726097e+02
506             	3.25728272e+02
507             	3.25730366e+02
508             	3.25732293e+02
509             	3.25734180e+02
510             	3.25735950e+02
511             	3.25737734e+02
512             	3.25739444e+02
513             	3.25741114e+02
514             	3.25743026e+02
515             	3.25744812e+02
516             	3.25746463e+02
517             	3.25747916e+02
518             	3.25749507e+02
519             	3.25750974e+02
520             	3.25752677e+02
521             	3.25754210e+02
522             	3.25755504e+02
523             	3.25756937e+02
524             	3.25758595e+02
525             	3.25760450e+02
526             	3.25762239e+02
527             	3.25763959e+02
528             	3.25765681e+02
529             	3.25767419e+02
530             	3.25768735e+02
531             	3.25770057e+02
532             	3.25771240e+02
533             	3.25772304e+02
534             	3.25773692e+02
535             	3.25774913e+02
536             	3.25776309e+02
537             	3.25777894e+02
538             	3.25779637e+02
539             	3.25781358e+02
540             	3.25783140e+02
541             	3.25784619e+02
542             	3.25786452e+02
543             	3.25787716e+02
544             	3.25789031e+02
545             	3.25790085e+02
546             	3.25791325e+02
547             	3.25792306e+02
548             	3.25793581e+02
549             	3.25794746e+02
550             	3.25795991e+02
551             	3.25797474e+02
552             	3.25798951e+02
553             	3.25800456e+02
554             	3.25801786e+02
555             	3.25803101e+02
556             	3.25804159e+02
557             	3.25805159e+02
558             	3.25805864e+02
559             	3.25806734e+02
560             	3.25807825e+02
561             	3.25808936e+02
562             	3.25809742e+02
563             	3.25810735e+02
564             	3.25811597e+02
565             	3.25812755e+02
566             	3.25813806e+02
567             	3.25815076e+02
568             	3.25816240e+02
569             	3.25817428e+02
570             	3.25818288e+02
571             	3.25819468e+02
572             	3.25820493e+02
573             	3.25821545e+02
574             	3.25822385e+02
575             	3.25823483e+02
576             	3.25824490e+02
577             	3.25825592e+02
578             	3.25826421e+02
579             	3.25827442e+02
580             	3.25828248e+02
581             	3.25829352e+02
582             	3.25830213e+02
583             	3.25830838e+02
584             	3.25831734e+02
585             	3.25832536e+02
586             	3.25833352e+02
587             	3.25833928e+02
588             	3.25834522e+02
589             	3.25834927e+02
590             	3.25835949e+02
591             	3.25837194e+02
592             	3.25837912e+02
593             	3.25838679e+02
594             	3.25839394e+02
595             	3.25840149e+02
596             	3.25840783e+02
597             	3.25841148e+02
598             	3.25842135e+02
599             	3.25842804e+02
600             	3.25843559e+02
601             	3.25843916e+02
602             	3.25844317e+02
603             	3.25844459e+02
604             	3.25844958e+02
605             	3.25845546e+02
606             	3.25846320e+02
607             	3.25846550e+02
608             	3.25847092e+02
609             	3.25847592e+02
610             	3.25848643e+02
611             	3.25849453e+02
612             	3.25849775e+02
613             	3.25850587e+02
614             	3.25850628e+02
615             	3.25851176e+02
616             	3.25852280e+02
617             	3.25853215e+02
618             	3.25854146e+02
619             	3.25854644e+02
620             	3.25855108e+02
621             	3.25856231e+02
