# Region        : cellZone component_4
# Cells         : 408
# Volume        : 7.50475272e-01
# Time          	volAverage(T)
1               	3.00169250e+02
2               	3.00337431e+02
3               	3.00497983e+02
4               	3.00653943e+02
5               	3.00807265e+02
6               	3.00958638e+02
7               	3.01108280e+02
8               	3.01256999e+02
9               	3.01404614e+02
10              	3.01551134e+02
11              	3.01696884e+02
12              	3.01841930e+02
13              	3.01986210e+02
14              	3.02129825e+02
15              	3.02273411e+02
16              	3.02417146e+02
17              	3.02560761e+02
18              	3.02702501e+02
19              	3.02843115e+02
20              	3.02982816e+02
21              	3.03122750e+02
22              	3.03261157e+02
23              	3.03398070e+02
24              	3.03533109e+02
25              	3.03666599e+02
26              	3.03797976e+02
27              	3.03927325e+02
28              	3.04055082e+02
29              	3.04180997e+02
30              	3.04305180e+02
31              	3.04428737e+02
32              	3.04550654e+02
33              	3.04671293e+02
34              	3.04787929e+02
35              	3.04902469e+02
36              	3.05016090e+02
37              	3.05132794e+02
38              	3.05247272e+02
39              	3.05357703e+02
40              	3.05465910e+02
41              	3.05572053e+02
42              	3.05676820e+02
43              	3.05779951e+02
44              	3.05880016e+02
45              	3.05981209e+02
46              	3.06081911e+02
47              	3.06181876e+02
48              	3.06284000e+02
49              	3.06386274e+02
50              	3.06488827e+02
51              	3.06591047e+02
52              	3.06692869e+02
53              	3.06794172e+02
54              	3.06895249e+02
55              	3.06995701e+02
56              	3.07096260e+02
57              	3.07195244e+02
58              	3.07290966e+02
59              	3.07386369e+02
60              	3.07480145e+02
61              	3.07571957e+02
62              	3.07662595e+02
63              	3.07750770e+02
64              	3.07837351e+02
65              	3.07921915e+02
66              	3.08007400e+02
67              	3.08096049e+02
68              	3.08187419e+02
69              	3.08261086e+02
70              	3.08321692e+02
71              	3.08376131e+02
72              	3.08430269e+02
73              	3.08491894e+02
74              	3.08553828e+02
75              	3.08614101e+02
76              	3.08674818e+02
77              	3.08736675e+02
78              	3.08800960e+02
79              	3.08867396e+02
80              	3.08936491e+02
81              	3.09008562e+02
82              	3.09082141e+02
83              	3.09159125e+02
84              	3.09236690e+02
85              	3.09314222e+02
86              	3.09390965e+02
87              	3.09465897e+02
88              	3.09538489e+02
89              	3.09609543e+02
90              	3.09682282e+02
91              	3.09758539e+02
92              	3.09829256e+02
93              	3.09891289e+02
94              	3.09950196e+02
95              	3.10010216e+02
96              	3.10069201e+02
97              	3.10124216e+02
98              	3.10176032e+02
99              	3.10225976e+02
100             	3.10275527e+02
101             	3.10325767e+02
102             	3.10379689e+02
103             	3.10436289e+02
104             	3.10495001e+02
105             	3.10556806e+02
106             	3.10618977e+02
107             	3.10681108e+02
108             	3.10742716e+02
109             	3.10801395e+02
110             	3.10856415e+02
111             	3.10907501e+02
112             	3.10957168e+02
113             	3.11006918e+02
114             	3.11058811e+02
115             	3.11114362e+02
116             	3.11171266e+02
117             	3.11229692e+02
118             	3.11286333e+02
119             	3.11341170e+02
120             	3.11393248e+02
121             	3.11441572e+02
122             	3.11486224e+02
123             	3.11527452e+02
124             	3.11566082e+02
125             	3.11603580e+02
126             	3.11641681e+02
127             	3.11681819e+02
128             	3.11723635e+02
129             	3.11767717e+02
130             	3.11813353e+02
131             	3.11860774e+02
132             	3.11908253e+02
133             	3.11953799e+02
134             	3.11996916e+02
135             	3.12036695e+02
136             	3.12073857e+02
137             	3.12109029e+02
138             	3.12143890e+02
139             	3.12180920e+02
140             	3.12219574e+02
141             	3.12259473e+02
142             	3.12301639e+02
143             	3.12345101e+02
144             	3.12388518e+02
145             	3.12431988e+02
146             	3.12473275e+02
147             	3.12511842e+02
148             	3.12547667e+02
149             	3.12581334e+02
150             	3.12613825e+02
151             	3.12645232e+02
152             	3.12677157e+02
153             	3.12709722e+02
154             	3.12742829e+02
155             	3.12777651e+02
156             	3.12814051e+02
157             	3.12851986e+02
158             	3.12890499e+02
159             	3.12927818e+02
160             	3.12962894e+02
161             	3.12996010e+02
162             	3.13027161e+02
163             	3.13056990e+02
164             	3.13086202e+02
165             	3.13114712e+02
166             	3.13145096e+02
167             	3.13176136e+02
168             	3.13209285e+02
169             	3.13243629e+02
170             	3.13278948e+02
171             	3.13313405e+02
172             	3.13347217e+02
173             	3.13379028e+02
174             	3.13409260e+02
175             	3.13438238e+02
176             	3.13465881e+02
177             	3.13492485e+02
178             	3.13517947e+02
179             	3.13543875e+02
180             	3.13570018e+02
181             	3.13596737e+02
182             	3.13624261e+02
183             	3.13652982e+02
184             	3.13682441e+02
185             	3.13711619e+02
186             	3.13740315e+02
187             	3.13767965e+02
188             	3.13794477e+02
189             	3.13820550e+02
190             	3.13846163e+02
191             	3.13871180e+02
192             	3.13895972e+02
193             	3.13920743e+02
194             	3.13945436e+02
195             	3.13970403e+02
196             	3.13995672e+02
197             	3.14021560e+02
198             	3.14047847e+02
199             	3.14074311e+02
200             	3.14100479e+02
201             	3.14126067e+02
202             	3.14151225e+02
203             	3.14175945e+02
204             	3.14200098e+02
205             	3.14223395e+02
206             	3.14246164e+02
207             	3.14268564e+02
208             	3.14290602e+02
209             	3.14312255e+02
210             	3.14333440e+02
211             	3.14354598e+02
212             	3.14375783e+02
213             	3.14397277e+02
214             	3.14418924e+02
215             	3.14440828e+02
216             	3.14462614e+02
217             	3.14484483e+02
218             	3.14506253e+02
219             	3.14527677e+02
220             	3.14548879e+02
221             	3.14570031e+02
222             	3.14590974e+02
223             	3.14611515e+02
224             	3.14631588e+02
225             	3.14651369e+02
226             	3.14670814e+02
227             	3.14689981e+02
228             	3.14709164e+02
229             	3.14727994e+02
230             	3.14746904e+02
231             	3.14765608e+02
232             	3.14784337e+02
233             	3.14802961e+02
234             	3.14821632e+02
235             	3.14840236e+02
236             	3.14858794e+02
237             	3.14876857e+02
238             	3.14894735e+02
239             	3.14912522e+02
240             	3.14930119e+02
241             	3.14947613e+02
242             	3.14965006e+02
243             	3.14982275e+02
244             	3.14999229e+02
245             	3.15015999e+02
246             	3.15032676e+02
247             	3.15049065e+02
248             	3.15065380e+02
249             	3.15081591e+02
250             	3.15097678e+02
251             	3.15113585e+02
252             	3.15129611e+02
253             	3.15145757e+02
254             	3.15161921e+02
255             	3.15178107e+02
256             	3.15194060e+02
257             	3.15209928e+02
258             	3.15225432e+02
259             	3.15240586e+02
260             	3.15255416e+02
261             	3.15269927e+02
262             	3.15284145e+02
263             	3.15298177e+02
264             	3.15312112e+02
265             	3.15326006e+02
266             	3.15339832e+02
267             	3.15353474e+02
268             	3.15367289e+02
269             	3.15381027e+02
270             	3.15394608e+02
271             	3.15408224e+02
272             	3.15421803e+02
273             	3.15435277e+02
274             	3.15448650e+02
275             	3.15461894e+02
276             	3.15475052e+02
277             	3.15487936e+02
278             	3.15500581e+02
279             	3.15512854e+02
280             	3.15524851e+02
281             	3.15536651e+02
282             	3.15548256e+02
283             	3.15559692e+02
284             	3.15571059e+02
285             	3.15582354e+02
286             	3.15593630e+02
287             	3.15604974e+02
288             	3.15616248e+02
289             	3.15627481e+02
290             	3.15638746e+02
291             	3.15650034e+02
292             	3.15661266e+02
293             	3.15672400e+02
294             	3.15683463e+02
295             	3.15694443e+02
296             	3.15705401e+02
297             	3.15716256e+02
298             	3.15726859e+02
299             	3.15737314e+02
300             	3.15747583e+02
301             	3.15757675e+02
302             	3.15767594e+02
303             	3.15777311e+02
304             	3.15786861e+02
305             	3.15796291e+02
306             	3.15805598e+02
307             	3.15814895e+02
308             	3.15824077e+02
309             	3.15833217e+02
310             	3.15842377e+02
311             	3.15851555e+02
312             	3.15860754e+02
313             	3.15870015e+02
314             	3.15879251e+02
315             	3.15888243e+02
316             	3.15897219e+02
317             	3.15906266e+02
318             	3.15915250e+02
319             	3.15924170e+02
320             	3.15933017e+02
321             	3.15941776e+02
322             	3.15950399e+02
323             	3.15958965e+02
324             	3.15967455e+02
325             	3.15975856e+02
326             	3.15983934e+02
327             	3.15991902e+02
328             	3.15999730e+02
329             	3.16007424e+02
330             	3.16014954e+02
331             	3.16022376e+02
332             	3.16029759e+02
333             	3.16037128e+02
334             	3.16044496e+02
335             	3.16051920e+02
336             	3.16059275e+02
337             	3.16066533e+02
338             	3.16073732e+02
339             	3.16080825e+02
340             	3.16087932e+02
341             	3.16095022e+02
342             	3.16102120e+02
343             	3.16109186e+02
344             	3.16116269e+02
345             	3.16123321e+02
346             	3.16130341e+02
347             	3.16137237e+02
348             	3.16143919e+02
349             	3.16150543e+02
350             	3.16157070e+02
351             	3.16163470e+02
352             	3.16169786e+02
353             	3.16176018e+02
354             	3.16182181e+02
355             	3.16188252e+02
356             	3.16194233e+02
357             	3.16200138e+02
358             	3.16206080e+02
359             	3.16211923e+02
360             	3.16217710e+02
361             	3.16223438e+02
362             	3.16229133e+02
363             	3.16234792e+02
364             	3.16240421e+02
365             	3.16246029e+02
366             	3.16251590e+02
367             	3.16257099e+02
368             	3.16262559e+02
369             	3.16268008e+02
370             	3.16273440e+02
371             	3.16278825e+02
372             	3.16284157e+02
373             	3.16289433e+02
374             	3.16294630e+02
375             	3.16299756e+02
376             	3.16304821e+02
377             	3.16309828e+02
378             	3.16314780e+02
379             	3.16319677e+02
380             	3.16324553e+02
381             	3.16329385e+02
382             	3.16334170e+02
383             	3.16338910e+02
384             	3.16343546e+02
385             	3.16348092e+02
386             	3.16352600e+02
387             	3.16357089e+02
388             	3.16361550e+02
389             	3.16365965e+02
390             	3.16370331e+02
391             	3.16374688e+02
392             	3.16379046e+02
393             	3.16383388e+02
394             	3.16387730e+02
395             	3.16392065e+02
396             	3.16396379e+02
397             	3.16400675e+02
398             	3.16404959e+02
399             	3.16409211e+02
400             	3.16413424e+02
401             	3.16417613e+02
402             	3.16421779e+02
403             	3.16425934e+02
404             	3.16430070e+02
405             	3.16434184e+02
406             	3.16438237e+02
407             	3.16442209e+02
408             	3.16446076e+02
409             	3.16449908e+02
410             	3.16453682e+02
411             	3.16457416e+02
412             	3.16461073e+02
413             	3.16464776e+02
414             	3.16468463e+02
415             	3.16472136e+02
416             	3.16475803e+02
417             	3.16479485e+02
418             	3.16483151e+02
419             	3.16486711e+02
420             	3.16490299e+02
421             	3.16493747e+02
422             	3.16497186e+02
423             	3.16500593e+02
424             	3.16504021e+02
425             	3.16507369e+02
426             	3.16510639e+02
427             	3.16513848e+02
428             	3.16517014e+02
429             	3.16520129e+02
430             	3.16523205e+02
431             	3.16526282e+02
432             	3.16529346e+02
433             	3.16532399e+02
434             	3.16535457e+02
435             	3.16538517e+02
436             	3.16541574e+02
437             	3.16544620e+02
438             	3.16547635e+02
439             	3.16550647e+02
440             	3.16553646e+02
441             	3.16556628e+02
442             	3.16559577e+02
443             	3.16562510e+02
444             	3.16565416e+02
445             	3.16568295e+02
446             	3.16571152e+02
447             	3.16573993e+02
448             	3.16576806e+02
449             	3.16579563e+02
450             	3.16582292e+02
451             	3.16585015e+02
452             	3.16587725e+02
453             	3.16590415e+02
454             	3.16593083e+02
455             	3.16595643e+02
456             	3.16598186e+02
457             	3.16600722e+02
458             	3.16603245e+02
459             	3.16605745e+02
460             	3.16608228e+02
461             	3.16610695e+02
462             	3.16613144e+02
463             	3.16615575e+02
464             	3.16617990e+02
465             	3.16620388e+02
466             	3.16622769e+02
467             	3.16625135e+02
468             	3.16627485e+02
469             	3.16629820e+02
470             	3.16632142e+02
471             	3.16634451e+02
472             	3.16636749e+02
473             	3.16639034e+02
474             	3.16641304e+02
475             	3.16643551e+02
476             	3.16645786e+02
477             	3.16648001e+02
478             	3.16650197e+02
479             	3.16652371e+02
480             	3.16654522e+02
481             	3.16656651e+02
482             	3.16658759e+02
483             	3.16660846e+02
484             	3.16662915e+02
485             	3.16664967e+02
486             	3.16667001e+02
487             	3.16669019e+02
488             	3.16671022e+02
489             	3.16673009e+02
490             	3.16674982e+02
491             	3.16676940e+02
492             	3.16678884e+02
493             	3.16680813e+02
494             	3.16682726e+02
495             	3.16684626e+02
496             	3.16686512e+02
497             	3.16688383e+02
498             	3.16690239e+02
499             	3.16692080e+02
500             	3.16693905e+02
501             	3.16695717e+02
502             	3.16697515e+02
503             	3.16699301e+02
504             	3.16701074e+02
505             	3.16702834e+02
506             	3.16704581e+02
507             	3.16706313e+02
508             	3.16708029e+02
509             	3.16709729e+02
510             	3.16711412e+02
511             	3.16713079e+02
512             	3.16714732e+02
513             	3.16716370e+02
514             	3.16717994e+02
515             	3.16719604e+02
516             	3.16721199e+02
517             	3.16722780e+02
518             	3.16724347e+02
519             	3.16725899e+02
520             	3.16727438e+02
521             	3.16728963e+02
522             	3.16730476e+02
523             	3.16731977e+02
524             	3.16733467e+02
525             	3.16734946e+02
526             	3.16736414e+02
527             	3.16737872e+02
528             	3.16739320e+02
529             	3.16740757e+02
530             	3.16742182e+02
531             	3.16743595e+02
532             	3.16744997e+02
533             	3.16746387e+02
534             	3.16747766e+02
535             	3.16749133e+02
536             	3.16750486e+02
537             	3.16751826e+02
538             	3.16753151e+02
539             	3.16754463e+02
540             	3.16755760e+02
541             	3.16757043e+02
542             	3.16758313e+02
543             	3.16759571e+02
544             	3.16760818e+02
545             	3.16762056e+02
546             	3.16763285e+02
547             	3.16764507e+02
548             	3.16765721e+02
549             	3.16766929e+02
550             	3.16768130e+02
551             	3.16769324e+02
552             	3.16770509e+02
553             	3.16771685e+02
554             	3.16772852e+02
555             	3.16774008e+02
556             	3.16775154e+02
557             	3.16776288e+02
558             	3.16777410e+02
559             	3.16778519e+02
560             	3.16779617e+02
561             	3.16780703e+02
562             	3.16781778e+02
563             	3.16782846e+02
564             	3.16783906e+02
565             	3.16784957e+02
566             	3.16786000e+02
567             	3.16787035e+02
568             	3.16788061e+02
569             	3.16789080e+02
570             	3.16790091e+02
571             	3.16791092e+02
572             	3.16792087e+02
573             	3.16793073e+02
574             	3.16794052e+02
575             	3.16795024e+02
576             	3.16795987e+02
577             	3.16796943e+02
578             	3.16797892e+02
579             	3.16798832e+02
580             	3.16799765e+02
581             	3.16800690e+02
582             	3.16801607e+02
583             	3.16802515e+02
584             	3.16803415e+02
585             	3.16804308e+02
586             	3.16805193e+02
587             	3.16806073e+02
588             	3.16806946e+02
589             	3.16807814e+02
590             	3.16808675e+02
591             	3.16809531e+02
592             	3.16810380e+02
593             	3.16811223e+02
594             	3.16812059e+02
595             	3.16812888e+02
596             	3.16813711e+02
597             	3.16814527e+02
598             	3.16815337e+02
599             	3.16816141e+02
600             	3.16816939e+02
601             	3.16817730e+02
602             	3.16818514e+02
603             	3.16819291e+02
604             	3.16820061e+02
605             	3.16820825e+02
606             	3.16821581e+02
607             	3.16822330e+02
608             	3.16823073e+02
609             	3.16823808e+02
610             	3.16824536e+02
611             	3.16825257e+02
612             	3.16825971e+02
613             	3.16826680e+02
614             	3.16827382e+02
615             	3.16828078e+02
616             	3.16828769e+02
617             	3.16829453e+02
618             	3.16830132e+02
619             	3.16830805e+02
620             	3.16831473e+02
621             	3.16832135e+02
