# Region        : cellZone component_2
# Cells         : 177
# Volume        : 3.30413002e-01
# Time          	volAverage(T)
1               	3.00251972e+02
2               	3.00502478e+02
3               	3.00745193e+02
4               	3.00983909e+02
5               	3.01220464e+02
6               	3.01455494e+02
7               	3.01689542e+02
8               	3.01923169e+02
9               	3.02156263e+02
10              	3.02388971e+02
11              	3.02621116e+02
12              	3.02852565e+02
13              	3.03083285e+02
14              	3.03313597e+02
15              	3.03543177e+02
16              	3.03771547e+02
17              	3.03998076e+02
18              	3.04222983e+02
19              	3.04448130e+02
20              	3.04673358e+02
21              	3.04896684e+02
22              	3.05117539e+02
23              	3.05336391e+02
24              	3.05554262e+02
25              	3.05770835e+02
26              	3.05987080e+02
27              	3.06198604e+02
28              	3.06404796e+02
29              	3.06608767e+02
30              	3.06811433e+02
31              	3.07014852e+02
32              	3.07216802e+02
33              	3.07415651e+02
34              	3.07612101e+02
35              	3.07809604e+02
36              	3.08005314e+02
37              	3.08195054e+02
38              	3.08381528e+02
39              	3.08565264e+02
40              	3.08744018e+02
41              	3.08924354e+02
42              	3.09107441e+02
43              	3.09288183e+02
44              	3.09468929e+02
45              	3.09650963e+02
46              	3.09837196e+02
47              	3.10021269e+02
48              	3.10200626e+02
49              	3.10375164e+02
50              	3.10551749e+02
51              	3.10736113e+02
52              	3.10916741e+02
53              	3.11091089e+02
54              	3.11263100e+02
55              	3.11436442e+02
56              	3.11611342e+02
57              	3.11775536e+02
58              	3.11930279e+02
59              	3.12080588e+02
60              	3.12229328e+02
61              	3.12390900e+02
62              	3.12543184e+02
63              	3.12687417e+02
64              	3.12826192e+02
65              	3.12969279e+02
66              	3.13112006e+02
67              	3.13255946e+02
68              	3.13403657e+02
69              	3.13543032e+02
70              	3.13684056e+02
71              	3.13836473e+02
72              	3.13964243e+02
73              	3.14067101e+02
74              	3.14159080e+02
75              	3.14263496e+02
76              	3.14369603e+02
77              	3.14457416e+02
78              	3.14519859e+02
79              	3.14583638e+02
80              	3.14668660e+02
81              	3.14739849e+02
82              	3.14796702e+02
83              	3.14835777e+02
84              	3.14867300e+02
85              	3.14929667e+02
86              	3.14967148e+02
87              	3.14964702e+02
88              	3.14959404e+02
89              	3.15014773e+02
90              	3.15093404e+02
91              	3.15132184e+02
92              	3.15105637e+02
93              	3.15031568e+02
94              	3.14982430e+02
95              	3.15004463e+02
96              	3.14996630e+02
97              	3.14918034e+02
98              	3.14786434e+02
99              	3.14746494e+02
100             	3.14775216e+02
101             	3.14552250e+02
102             	3.14343842e+02
103             	3.14242020e+02
104             	3.14033300e+02
105             	3.13967503e+02
106             	3.12381054e+02
107             	3.12406448e+02
108             	3.12744810e+02
109             	3.12691834e+02
110             	3.12286572e+02
111             	3.10973030e+02
112             	3.11492070e+02
113             	3.16216122e+02
114             	3.11629145e+02
115             	3.07826580e+02
116             	3.10366723e+02
117             	3.16373200e+02
118             	3.15215400e+02
119             	3.11427836e+02
120             	3.10956482e+02
121             	3.15239309e+02
122             	3.10331702e+02
123             	3.07077229e+02
124             	3.11720559e+02
125             	3.19166030e+02
126             	3.19733501e+02
127             	3.07756073e+02
128             	3.08615368e+02
129             	3.12298335e+02
130             	3.15871552e+02
131             	3.16921579e+02
132             	3.05424768e+02
133             	3.11670345e+02
134             	3.19943207e+02
135             	3.15373759e+02
136             	3.32927378e+02
137             	3.62472181e+02
138             	3.55928305e+02
139             	3.12698820e+02
140             	3.07461890e+02
141             	3.05731222e+02
142             	3.06122746e+02
143             	3.05364113e+02
144             	3.04431697e+02
145             	3.45774711e+02
146             	4.82541719e+02
147             	6.15246976e+02
148             	6.79112084e+02
149             	6.84643691e+02
150             	2.80276617e+02
151             	6.00000000e+03
152             	2.50000000e+02
153             	5.19980424e+03
154             	5.50948259e+03
155             	2.97726388e+03
