# Region        : cellZone fluid
# Cells         : 9541
# Volume        : 1.80703689e+01
# Time          	volAverage(T)
1               	3.00000196e+02
2               	3.00000384e+02
3               	3.00001751e+02
4               	3.00003603e+02
5               	3.00005291e+02
6               	3.00006959e+02
7               	3.00008786e+02
8               	3.00010963e+02
9               	3.00013929e+02
10              	3.00017727e+02
11              	3.00021091e+02
12              	3.00024620e+02
13              	3.00028142e+02
14              	3.00032109e+02
15              	3.00037393e+02
16              	3.00042321e+02
17              	3.00046446e+02
18              	3.00050555e+02
19              	3.00054663e+02
20              	3.00058931e+02
21              	3.00063878e+02
22              	3.00069112e+02
23              	3.00074270e+02
24              	3.00081171e+02
25              	3.00087496e+02
26              	3.00095484e+02
27              	3.00101468e+02
28              	3.00108260e+02
29              	3.00115751e+02
30              	3.00121103e+02
31              	3.00127026e+02
32              	3.00133005e+02
33              	3.00139389e+02
34              	3.00147255e+02
35              	3.00154812e+02
36              	3.00162011e+02
37              	3.00169866e+02
38              	3.00176770e+02
39              	3.00186035e+02
40              	3.00193038e+02
41              	3.00199782e+02
42              	3.00207262e+02
43              	3.00214238e+02
44              	3.00220869e+02
45              	3.00227345e+02
46              	3.00234510e+02
47              	3.00240511e+02
48              	3.00245879e+02
49              	3.00250779e+02
50              	3.00256145e+02
51              	3.00261675e+02
52              	3.00267341e+02
53              	3.00272450e+02
54              	3.00277959e+02
55              	3.00285313e+02
56              	3.00293150e+02
57              	3.00298594e+02
58              	3.00306903e+02
59              	3.00313813e+02
60              	3.00321652e+02
61              	3.00326783e+02
62              	3.00332598e+02
63              	3.00340314e+02
64              	3.00348083e+02
65              	3.00355371e+02
66              	3.00361649e+02
67              	3.00367542e+02
68              	3.00373312e+02
69              	3.00378877e+02
70              	3.00382016e+02
71              	3.00384809e+02
72              	3.00389664e+02
73              	3.00396007e+02
74              	3.00399998e+02
75              	3.00404179e+02
76              	3.00409104e+02
77              	3.00415198e+02
78              	3.00420829e+02
79              	3.00425571e+02
80              	3.00429544e+02
81              	3.00435976e+02
82              	3.00440628e+02
83              	3.00444878e+02
84              	3.00448757e+02
85              	3.00451177e+02
86              	3.00455869e+02
87              	3.00459882e+02
88              	3.00464982e+02
89              	3.00468008e+02
90              	3.00471744e+02
91              	3.00475272e+02
92              	3.00478674e+02
93              	3.00481908e+02
94              	3.00485238e+02
95              	3.00488410e+02
96              	3.00492258e+02
97              	3.00495008e+02
98              	3.00497271e+02
99              	3.00499885e+02
100             	3.00502994e+02
101             	3.00505844e+02
102             	3.00509891e+02
103             	3.00512195e+02
104             	3.00514768e+02
105             	3.00517262e+02
106             	3.00519779e+02
107             	3.00522313e+02
108             	3.00524572e+02
109             	3.00527614e+02
110             	3.00530756e+02
111             	3.00533991e+02
112             	3.00536263e+02
113             	3.00537732e+02
114             	3.00539337e+02
115             	3.00541323e+02
116             	3.00543245e+02
117             	3.00545532e+02
118             	3.00547703e+02
119             	3.00549562e+02
120             	3.00551793e+02
121             	3.00554115e+02
122             	3.00556358e+02
123             	3.00558427e+02
124             	3.00560081e+02
125             	3.00562124e+02
126             	3.00564025e+02
127             	3.00565750e+02
128             	3.00567416e+02
129             	3.00568945e+02
130             	3.00570372e+02
131             	3.00572001e+02
132             	3.00573362e+02
133             	3.00574449e+02
134             	3.00575571e+02
135             	3.00576702e+02
136             	3.00577796e+02
137             	3.00578652e+02
138             	3.00579497e+02
139             	3.00580149e+02
140             	3.00581044e+02
141             	3.00581804e+02
142             	3.00582416e+02
143             	3.00582995e+02
144             	3.00583274e+02
145             	3.00583799e+02
146             	3.00584118e+02
147             	3.00584266e+02
148             	3.00584398e+02
149             	3.00584432e+02
150             	3.00584260e+02
151             	3.00584096e+02
152             	3.00583970e+02
153             	3.00583827e+02
154             	3.00583648e+02
155             	3.00583444e+02
156             	3.00583175e+02
157             	3.00582973e+02
158             	3.00582602e+02
159             	3.00582262e+02
160             	3.00581871e+02
161             	3.00581451e+02
162             	3.00581007e+02
163             	3.00580501e+02
164             	3.00579974e+02
165             	3.00579447e+02
166             	3.00578914e+02
167             	3.00578326e+02
168             	3.00577697e+02
169             	3.00577069e+02
170             	3.00576352e+02
171             	3.00575691e+02
172             	3.00574960e+02
173             	3.00574306e+02
174             	3.00573571e+02
175             	3.00572898e+02
176             	3.00572209e+02
177             	3.00571482e+02
178             	3.00570767e+02
179             	3.00570070e+02
180             	3.00569385e+02
181             	3.00568728e+02
182             	3.00568085e+02
183             	3.00567448e+02
184             	3.00566792e+02
185             	3.00566178e+02
186             	3.00565557e+02
187             	3.00564923e+02
188             	3.00564244e+02
189             	3.00563606e+02
190             	3.00563096e+02
191             	3.00562440e+02
192             	3.00561871e+02
193             	3.00561236e+02
194             	3.00560644e+02
195             	3.00560053e+02
196             	3.00559489e+02
197             	3.00558919e+02
198             	3.00558368e+02
199             	3.00557850e+02
200             	3.00557347e+02
201             	3.00556874e+02
202             	3.00556396e+02
203             	3.00555943e+02
204             	3.00555488e+02
205             	3.00555048e+02
206             	3.00554644e+02
207             	3.00554207e+02
208             	3.00553804e+02
209             	3.00553375e+02
210             	3.00552999e+02
211             	3.00552605e+02
212             	3.00552235e+02
213             	3.00551862e+02
214             	3.00551516e+02
215             	3.00551167e+02
216             	3.00550840e+02
217             	3.00550511e+02
218             	3.00550202e+02
219             	3.00549895e+02
220             	3.00549614e+02
221             	3.00549324e+02
222             	3.00549095e+02
223             	3.00548789e+02
224             	3.00548563e+02
225             	3.00548298e+02
226             	3.00548097e+02
227             	3.00547848e+02
228             	3.00547660e+02
229             	3.00547387e+02
230             	3.00547228e+02
231             	3.00546963e+02
232             	3.00546800e+02
233             	3.00546572e+02
234             	3.00546412e+02
235             	3.00546182e+02
236             	3.00546028e+02
237             	3.00545819e+02
238             	3.00545694e+02
239             	3.00545477e+02
240             	3.00545337e+02
241             	3.00545148e+02
242             	3.00545009e+02
243             	3.00544836e+02
244             	3.00544698e+02
245             	3.00544548e+02
246             	3.00544388e+02
247             	3.00544256e+02
248             	3.00544115e+02
249             	3.00544003e+02
250             	3.00543867e+02
251             	3.00543764e+02
252             	3.00543604e+02
253             	3.00543499e+02
254             	3.00543385e+02
255             	3.00543273e+02
256             	3.00543130e+02
257             	3.00543008e+02
258             	3.00542879e+02
259             	3.00542774e+02
260             	3.00542630e+02
261             	3.00542548e+02
262             	3.00542398e+02
263             	3.00542305e+02
264             	3.00542175e+02
265             	3.00542092e+02
266             	3.00541976e+02
267             	3.00541894e+02
268             	3.00541785e+02
269             	3.00541703e+02
270             	3.00541592e+02
271             	3.00541510e+02
272             	3.00541416e+02
273             	3.00541333e+02
274             	3.00541240e+02
275             	3.00541163e+02
276             	3.00541074e+02
277             	3.00540996e+02
278             	3.00540909e+02
279             	3.00540837e+02
280             	3.00540751e+02
281             	3.00540674e+02
282             	3.00540586e+02
283             	3.00540491e+02
284             	3.00540424e+02
285             	3.00540340e+02
286             	3.00540262e+02
287             	3.00540185e+02
288             	3.00540116e+02
289             	3.00540042e+02
290             	3.00539970e+02
291             	3.00539905e+02
292             	3.00539836e+02
293             	3.00539771e+02
294             	3.00539721e+02
295             	3.00539633e+02
296             	3.00539580e+02
297             	3.00539520e+02
298             	3.00539462e+02
299             	3.00539404e+02
300             	3.00539349e+02
301             	3.00539296e+02
302             	3.00539238e+02
303             	3.00539167e+02
304             	3.00539111e+02
305             	3.00539069e+02
306             	3.00539008e+02
307             	3.00538953e+02
308             	3.00538892e+02
309             	3.00538841e+02
310             	3.00538799e+02
311             	3.00538751e+02
312             	3.00538682e+02
313             	3.00538645e+02
314             	3.00538595e+02
315             	3.00538560e+02
316             	3.00538513e+02
317             	3.00538481e+02
318             	3.00538436e+02
319             	3.00538380e+02
320             	3.00538362e+02
321             	3.00538285e+02
322             	3.00538281e+02
323             	3.00538204e+02
324             	3.00538189e+02
325             	3.00538123e+02
326             	3.00538098e+02
327             	3.00538035e+02
328             	3.00538012e+02
329             	3.00537965e+02
330             	3.00537947e+02
331             	3.00537882e+02
332             	3.00537868e+02
333             	3.00537818e+02
334             	3.00537806e+02
335             	3.00537762e+02
336             	3.00537750e+02
337             	3.00537704e+02
338             	3.00537699e+02
339             	3.00537655e+02
340             	3.00537636e+02
341             	3.00537612e+02
342             	3.00537593e+02
343             	3.00537557e+02
344             	3.00537539e+02
345             	3.00537509e+02
346             	3.00537485e+02
347             	3.00537454e+02
348             	3.00537428e+02
349             	3.00537398e+02
350             	3.00537373e+02
351             	3.00537351e+02
352             	3.00537320e+02
353             	3.00537299e+02
354             	3.00537274e+02
355             	3.00537257e+02
356             	3.00537236e+02
357             	3.00537222e+02
358             	3.00537202e+02
359             	3.00537189e+02
360             	3.00537171e+02
361             	3.00537158e+02
362             	3.00537141e+02
363             	3.00537129e+02
364             	3.00537112e+02
365             	3.00537101e+02
366             	3.00537086e+02
367             	3.00537077e+02
368             	3.00537064e+02
369             	3.00537053e+02
370             	3.00537041e+02
371             	3.00537029e+02
372             	3.00537018e+02
373             	3.00537008e+02
374             	3.00536995e+02
375             	3.00536981e+02
376             	3.00536970e+02
377             	3.00536957e+02
378             	3.00536947e+02
379             	3.00536935e+02
380             	3.00536924e+02
381             	3.00536915e+02
382             	3.00536908e+02
383             	3.00536898e+02
384             	3.00536890e+02
385             	3.00536882e+02
386             	3.00536875e+02
387             	3.00536868e+02
388             	3.00536861e+02
389             	3.00536853e+02
390             	3.00536847e+02
391             	3.00536839e+02
392             	3.00536832e+02
393             	3.00536823e+02
394             	3.00536818e+02
395             	3.00536810e+02
396             	3.00536803e+02
397             	3.00536795e+02
398             	3.00536789e+02
399             	3.00536783e+02
400             	3.00536776e+02
401             	3.00536769e+02
402             	3.00536763e+02
403             	3.00536757e+02
404             	3.00536751e+02
405             	3.00536745e+02
406             	3.00536740e+02
407             	3.00536734e+02
408             	3.00536729e+02
409             	3.00536724e+02
410             	3.00536720e+02
411             	3.00536716e+02
412             	3.00536712e+02
413             	3.00536708e+02
414             	3.00536705e+02
415             	3.00536703e+02
416             	3.00536700e+02
417             	3.00536699e+02
418             	3.00536697e+02
419             	3.00536696e+02
420             	3.00536694e+02
421             	3.00536694e+02
422             	3.00536693e+02
423             	3.00536691e+02
424             	3.00536688e+02
425             	3.00536688e+02
426             	3.00536686e+02
427             	3.00536685e+02
428             	3.00536682e+02
429             	3.00536681e+02
430             	3.00536677e+02
431             	3.00536676e+02
432             	3.00536674e+02
433             	3.00536674e+02
434             	3.00536671e+02
435             	3.00536671e+02
436             	3.00536670e+02
437             	3.00536670e+02
438             	3.00536670e+02
439             	3.00536668e+02
440             	3.00536668e+02
441             	3.00536667e+02
442             	3.00536665e+02
443             	3.00536664e+02
444             	3.00536662e+02
445             	3.00536662e+02
446             	3.00536660e+02
447             	3.00536659e+02
448             	3.00536657e+02
449             	3.00536655e+02
450             	3.00536655e+02
451             	3.00536652e+02
452             	3.00536651e+02
453             	3.00536648e+02
454             	3.00536647e+02
455             	3.00536644e+02
456             	3.00536642e+02
457             	3.00536639e+02
458             	3.00536638e+02
459             	3.00536636e+02
460             	3.00536635e+02
461             	3.00536632e+02
462             	3.00536631e+02
463             	3.00536629e+02
464             	3.00536629e+02
465             	3.00536628e+02
466             	3.00536628e+02
467             	3.00536628e+02
468             	3.00536629e+02
469             	3.00536629e+02
470             	3.00536631e+02
471             	3.00536632e+02
472             	3.00536634e+02
473             	3.00536634e+02
474             	3.00536636e+02
475             	3.00536638e+02
476             	3.00536639e+02
477             	3.00536641e+02
478             	3.00536642e+02
479             	3.00536644e+02
480             	3.00536646e+02
481             	3.00536648e+02
482             	3.00536649e+02
483             	3.00536651e+02
484             	3.00536654e+02
485             	3.00536656e+02
486             	3.00536658e+02
487             	3.00536659e+02
488             	3.00536660e+02
489             	3.00536661e+02
490             	3.00536662e+02
491             	3.00536662e+02
492             	3.00536662e+02
493             	3.00536661e+02
494             	3.00536660e+02
495             	3.00536660e+02
496             	3.00536659e+02
497             	3.00536659e+02
498             	3.00536659e+02
499             	3.00536659e+02
500             	3.00536660e+02
501             	3.00536660e+02
502             	3.00536662e+02
503             	3.00536663e+02
504             	3.00536665e+02
505             	3.00536665e+02
506             	3.00536667e+02
507             	3.00536667e+02
508             	3.00536668e+02
509             	3.00536667e+02
510             	3.00536668e+02
511             	3.00536666e+02
512             	3.00536667e+02
513             	3.00536665e+02
514             	3.00536666e+02
515             	3.00536664e+02
516             	3.00536665e+02
517             	3.00536664e+02
518             	3.00536664e+02
519             	3.00536664e+02
520             	3.00536665e+02
521             	3.00536664e+02
522             	3.00536667e+02
523             	3.00536666e+02
524             	3.00536668e+02
525             	3.00536668e+02
526             	3.00536671e+02
527             	3.00536671e+02
528             	3.00536673e+02
529             	3.00536674e+02
530             	3.00536676e+02
531             	3.00536677e+02
532             	3.00536678e+02
533             	3.00536678e+02
534             	3.00536680e+02
535             	3.00536681e+02
536             	3.00536683e+02
537             	3.00536683e+02
538             	3.00536685e+02
539             	3.00536685e+02
540             	3.00536687e+02
541             	3.00536686e+02
542             	3.00536688e+02
543             	3.00536687e+02
544             	3.00536689e+02
545             	3.00536688e+02
546             	3.00536689e+02
547             	3.00536687e+02
548             	3.00536687e+02
549             	3.00536685e+02
550             	3.00536685e+02
551             	3.00536682e+02
552             	3.00536683e+02
553             	3.00536680e+02
554             	3.00536679e+02
555             	3.00536677e+02
556             	3.00536678e+02
557             	3.00536676e+02
558             	3.00536676e+02
559             	3.00536675e+02
560             	3.00536676e+02
561             	3.00536675e+02
562             	3.00536676e+02
563             	3.00536676e+02
564             	3.00536677e+02
565             	3.00536677e+02
566             	3.00536679e+02
567             	3.00536679e+02
568             	3.00536680e+02
569             	3.00536681e+02
570             	3.00536682e+02
571             	3.00536683e+02
572             	3.00536684e+02
573             	3.00536685e+02
574             	3.00536686e+02
575             	3.00536687e+02
576             	3.00536688e+02
577             	3.00536689e+02
578             	3.00536690e+02
579             	3.00536691e+02
580             	3.00536691e+02
581             	3.00536693e+02
582             	3.00536693e+02
583             	3.00536694e+02
584             	3.00536695e+02
585             	3.00536696e+02
586             	3.00536697e+02
587             	3.00536698e+02
588             	3.00536699e+02
589             	3.00536700e+02
590             	3.00536701e+02
591             	3.00536702e+02
592             	3.00536703e+02
593             	3.00536703e+02
594             	3.00536704e+02
595             	3.00536705e+02
596             	3.00536706e+02
597             	3.00536707e+02
598             	3.00536708e+02
599             	3.00536709e+02
600             	3.00536710e+02
601             	3.00536711e+02
602             	3.00536712e+02
603             	3.00536713e+02
604             	3.00536714e+02
605             	3.00536714e+02
606             	3.00536715e+02
607             	3.00536715e+02
608             	3.00536716e+02
609             	3.00536715e+02
610             	3.00536716e+02
611             	3.00536716e+02
612             	3.00536715e+02
613             	3.00536715e+02
614             	3.00536715e+02
615             	3.00536715e+02
616             	3.00536715e+02
617             	3.00536715e+02
618             	3.00536715e+02
619             	3.00536716e+02
620             	3.00536716e+02
621             	3.00536717e+02
