# Region        : cellZone component_0
# Cells         : 63
# Volume        : 1.08504968e-01
# Time          	volAverage(T)
1               	3.02465487e+02
2               	3.04873686e+02
3               	3.07077763e+02
4               	3.09157973e+02
5               	3.11175669e+02
6               	3.13154567e+02
7               	3.15103641e+02
8               	3.17033451e+02
9               	3.18986000e+02
10              	3.20845624e+02
11              	3.22601297e+02
12              	3.24295486e+02
13              	3.25981942e+02
14              	3.27679169e+02
15              	3.29354551e+02
16              	3.31010302e+02
17              	3.32631522e+02
18              	3.34220519e+02
19              	3.35775449e+02
20              	3.37281319e+02
21              	3.38758317e+02
22              	3.40247318e+02
23              	3.41749674e+02
24              	3.43245807e+02
25              	3.44730837e+02
26              	3.46202824e+02
27              	3.47661573e+02
28              	3.49175523e+02
29              	3.50640883e+02
30              	3.52035457e+02
31              	3.53345209e+02
32              	3.54592186e+02
33              	3.55776785e+02
34              	3.56956116e+02
35              	3.58152580e+02
36              	3.59381926e+02
37              	3.60597999e+02
38              	3.61784619e+02
39              	3.62971245e+02
40              	3.64188636e+02
41              	3.65407708e+02
42              	3.66606857e+02
43              	3.67758292e+02
44              	3.68784511e+02
45              	3.69732844e+02
46              	3.70711062e+02
47              	3.71768048e+02
48              	3.72797946e+02
49              	3.73831860e+02
50              	3.74869574e+02
51              	3.75898051e+02
52              	3.77008737e+02
53              	3.78075545e+02
54              	3.79098634e+02
55              	3.80134841e+02
56              	3.81165734e+02
57              	3.82186274e+02
58              	3.83199780e+02
59              	3.84204897e+02
60              	3.85181152e+02
61              	3.86140820e+02
62              	3.87083155e+02
63              	3.87998081e+02
64              	3.88902704e+02
65              	3.89798493e+02
66              	3.90689405e+02
67              	3.91599124e+02
68              	3.92535407e+02
69              	3.93483388e+02
70              	3.94422842e+02
71              	3.95355805e+02
72              	3.96256562e+02
73              	3.97145540e+02
74              	3.97984856e+02
75              	3.98775556e+02
76              	3.99525885e+02
77              	4.00337021e+02
78              	4.01093402e+02
79              	4.01829957e+02
80              	4.02586817e+02
81              	4.03377982e+02
82              	4.04222764e+02
83              	4.05040514e+02
84              	4.05831648e+02
85              	4.06594319e+02
86              	4.07371446e+02
87              	4.08138046e+02
88              	4.08897797e+02
89              	4.09645400e+02
90              	4.10388252e+02
91              	4.11133198e+02
92              	4.11866399e+02
93              	4.12596508e+02
94              	4.13324468e+02
95              	4.14021127e+02
96              	4.14741140e+02
97              	4.15471316e+02
98              	4.16148057e+02
99              	4.16818279e+02
100             	4.17495388e+02
101             	4.18139829e+02
102             	4.18791023e+02
103             	4.19460205e+02
104             	4.20135114e+02
105             	4.20789482e+02
106             	4.21406723e+02
107             	4.21987249e+02
108             	4.22561283e+02
109             	4.23134321e+02
110             	4.23713839e+02
111             	4.24301373e+02
112             	4.24845568e+02
113             	4.25411405e+02
114             	4.25974899e+02
115             	4.26568817e+02
116             	4.27164295e+02
117             	4.27713488e+02
118             	4.28274714e+02
119             	4.28826729e+02
120             	4.29406141e+02
121             	4.29963181e+02
122             	4.30511842e+02
123             	4.31045616e+02
124             	4.31553094e+02
125             	4.32037427e+02
126             	4.32508593e+02
127             	4.32973647e+02
128             	4.33444227e+02
129             	4.33910090e+02
130             	4.34368067e+02
131             	4.34836582e+02
132             	4.35314106e+02
133             	4.35769647e+02
134             	4.36260745e+02
135             	4.36744785e+02
136             	4.37214636e+02
137             	4.37681079e+02
138             	4.38096702e+02
139             	4.38510229e+02
140             	4.38899393e+02
141             	4.39295974e+02
142             	4.39684871e+02
143             	4.40111461e+02
144             	4.40532462e+02
145             	4.40924078e+02
146             	4.41346052e+02
147             	4.41742770e+02
148             	4.42158861e+02
149             	4.42581985e+02
150             	4.42954015e+02
151             	4.43337785e+02
152             	4.43729749e+02
153             	4.44130508e+02
154             	4.44531523e+02
155             	4.44926166e+02
156             	4.45319973e+02
157             	4.45704315e+02
158             	4.46073869e+02
159             	4.46441891e+02
160             	4.46773386e+02
161             	4.47125768e+02
162             	4.47498524e+02
163             	4.47871885e+02
164             	4.48224084e+02
165             	4.48567324e+02
166             	4.48901712e+02
167             	4.49233402e+02
168             	4.49565192e+02
169             	4.49891950e+02
170             	4.50187333e+02
171             	4.50487297e+02
172             	4.50791530e+02
173             	4.51072563e+02
174             	4.51394967e+02
175             	4.51712353e+02
176             	4.52054525e+02
177             	4.52371013e+02
178             	4.52669895e+02
179             	4.52950636e+02
180             	4.53208074e+02
181             	4.53467050e+02
182             	4.53716054e+02
183             	4.53961012e+02
184             	4.54227958e+02
185             	4.54479941e+02
186             	4.54773872e+02
187             	4.55066248e+02
188             	4.55314944e+02
189             	4.55578773e+02
190             	4.55866133e+02
191             	4.56102357e+02
192             	4.56358964e+02
193             	4.56627391e+02
194             	4.56902972e+02
195             	4.57177304e+02
196             	4.57445833e+02
197             	4.57665101e+02
198             	4.57908007e+02
199             	4.58171102e+02
200             	4.58435660e+02
201             	4.58661368e+02
202             	4.58890804e+02
203             	4.59129444e+02
204             	4.59350313e+02
205             	4.59574525e+02
206             	4.59798047e+02
207             	4.60032821e+02
208             	4.60228157e+02
209             	4.60451646e+02
210             	4.60667792e+02
211             	4.60907052e+02
212             	4.61121871e+02
213             	4.61347667e+02
214             	4.61572350e+02
215             	4.61791655e+02
216             	4.61981012e+02
217             	4.62160277e+02
218             	4.62330285e+02
219             	4.62514503e+02
220             	4.62712713e+02
221             	4.62880542e+02
222             	4.63087868e+02
223             	4.63315006e+02
224             	4.63524055e+02
225             	4.63679941e+02
226             	4.63844757e+02
227             	4.64018513e+02
228             	4.64188312e+02
229             	4.64360370e+02
230             	4.64502803e+02
231             	4.64677616e+02
232             	4.64868968e+02
233             	4.65059946e+02
234             	4.65202267e+02
235             	4.65359258e+02
236             	4.65531461e+02
237             	4.65708256e+02
238             	4.65846676e+02
239             	4.66000734e+02
240             	4.66153738e+02
241             	4.66308143e+02
242             	4.66476591e+02
243             	4.66608526e+02
244             	4.66766816e+02
245             	4.66939434e+02
246             	4.67080740e+02
247             	4.67238555e+02
248             	4.67419747e+02
249             	4.67554382e+02
250             	4.67703687e+02
251             	4.67856546e+02
252             	4.68012452e+02
253             	4.68163687e+02
254             	4.68311756e+02
255             	4.68449052e+02
256             	4.68577518e+02
257             	4.68717296e+02
258             	4.68863740e+02
259             	4.69018624e+02
260             	4.69168121e+02
261             	4.69269810e+02
262             	4.69394304e+02
263             	4.69529667e+02
264             	4.69630955e+02
265             	4.69750855e+02
266             	4.69886267e+02
267             	4.70030838e+02
268             	4.70159634e+02
269             	4.70266898e+02
270             	4.70368913e+02
271             	4.70469586e+02
272             	4.70568070e+02
273             	4.70664473e+02
274             	4.70766687e+02
275             	4.70878067e+02
276             	4.70992882e+02
277             	4.71114369e+02
278             	4.71190686e+02
279             	4.71290475e+02
280             	4.71377519e+02
281             	4.71492927e+02
282             	4.71588424e+02
283             	4.71696441e+02
284             	4.71813859e+02
285             	4.71929477e+02
286             	4.72037824e+02
287             	4.72135552e+02
288             	4.72228712e+02
289             	4.72319852e+02
290             	4.72410288e+02
291             	4.72499681e+02
292             	4.72588090e+02
293             	4.72679377e+02
294             	4.72777983e+02
295             	4.72884104e+02
296             	4.72999217e+02
297             	4.73070371e+02
298             	4.73163105e+02
299             	4.73271399e+02
300             	4.73345342e+02
301             	4.73440277e+02
302             	4.73551440e+02
303             	4.73622614e+02
304             	4.73711473e+02
305             	4.73810243e+02
306             	4.73871911e+02
307             	4.73959719e+02
308             	4.74059032e+02
309             	4.74133403e+02
310             	4.74231564e+02
311             	4.74338479e+02
312             	4.74442404e+02
313             	4.74527754e+02
314             	4.74594102e+02
315             	4.74658597e+02
316             	4.74734674e+02
317             	4.74812414e+02
318             	4.74893466e+02
319             	4.74977102e+02
320             	4.75068185e+02
321             	4.75159579e+02
322             	4.75205618e+02
323             	4.75270189e+02
324             	4.75349354e+02
325             	4.75394282e+02
326             	4.75463149e+02
327             	4.75544572e+02
328             	4.75633990e+02
329             	4.75716811e+02
330             	4.75797339e+02
331             	4.75868824e+02
332             	4.75939249e+02
333             	4.76009022e+02
334             	4.76080353e+02
335             	4.76148852e+02
336             	4.76217962e+02
337             	4.76290068e+02
338             	4.76364389e+02
339             	4.76440376e+02
340             	4.76514693e+02
341             	4.76546699e+02
342             	4.76600639e+02
343             	4.76670325e+02
344             	4.76710191e+02
345             	4.76768602e+02
346             	4.76844406e+02
347             	4.76885899e+02
348             	4.76945596e+02
349             	4.77017632e+02
350             	4.77096166e+02
351             	4.77131893e+02
352             	4.77187128e+02
353             	4.77254853e+02
354             	4.77324628e+02
355             	4.77389197e+02
356             	4.77446844e+02
357             	4.77499497e+02
358             	4.77551372e+02
359             	4.77606004e+02
360             	4.77663156e+02
361             	4.77725137e+02
362             	4.77792467e+02
363             	4.77818085e+02
364             	4.77864197e+02
365             	4.77926226e+02
366             	4.77956221e+02
367             	4.78010297e+02
368             	4.78080743e+02
369             	4.78110741e+02
370             	4.78156059e+02
371             	4.78214149e+02
372             	4.78274717e+02
373             	4.78331527e+02
374             	4.78382143e+02
375             	4.78430072e+02
376             	4.78475759e+02
377             	4.78521272e+02
378             	4.78567067e+02
379             	4.78614075e+02
380             	4.78657045e+02
381             	4.78700262e+02
382             	4.78746912e+02
383             	4.78795075e+02
384             	4.78847406e+02
385             	4.78900202e+02
386             	4.78912573e+02
387             	4.78944532e+02
388             	4.78990394e+02
389             	4.79044943e+02
390             	4.79055896e+02
391             	4.79085524e+02
392             	4.79129540e+02
393             	4.79184363e+02
394             	4.79195634e+02
395             	4.79226683e+02
396             	4.79272363e+02
397             	4.79327200e+02
398             	4.79338797e+02
399             	4.79370907e+02
400             	4.79418593e+02
401             	4.79466638e+02
402             	4.79507615e+02
403             	4.79541299e+02
404             	4.79569739e+02
405             	4.79594964e+02
406             	4.79629057e+02
407             	4.79662719e+02
408             	4.79703722e+02
409             	4.79748191e+02
410             	4.79795003e+02
411             	4.79795637e+02
412             	4.79821072e+02
413             	4.79866565e+02
414             	4.79873684e+02
415             	4.79902528e+02
416             	4.79949825e+02
417             	4.79961660e+02
418             	4.79992714e+02
419             	4.80030910e+02
420             	4.80072421e+02
421             	4.80109281e+02
422             	4.80142919e+02
423             	4.80173737e+02
424             	4.80204576e+02
425             	4.80234613e+02
426             	4.80265254e+02
427             	4.80298134e+02
428             	4.80336364e+02
429             	4.80377354e+02
430             	4.80420110e+02
431             	4.80461711e+02
432             	4.80462720e+02
433             	4.80484981e+02
434             	4.80525772e+02
435             	4.80531014e+02
436             	4.80556093e+02
437             	4.80598535e+02
438             	4.80602727e+02
439             	4.80624717e+02
440             	4.80660218e+02
441             	4.80700718e+02
442             	4.80700850e+02
443             	4.80719186e+02
444             	4.80749776e+02
445             	4.80785360e+02
446             	4.80822580e+02
447             	4.80858080e+02
448             	4.80891270e+02
449             	4.80921274e+02
450             	4.80947983e+02
451             	4.80971249e+02
452             	4.80992330e+02
453             	4.81006467e+02
454             	4.81015317e+02
455             	4.81034222e+02
456             	4.81057449e+02
457             	4.81088488e+02
458             	4.81108939e+02
459             	4.81123727e+02
460             	4.81142220e+02
461             	4.81118896e+02
462             	4.81122909e+02
463             	4.81120342e+02
464             	4.81151673e+02
465             	4.81201049e+02
466             	4.81198101e+02
467             	4.81210532e+02
468             	4.81232124e+02
469             	4.81257259e+02
470             	4.81267173e+02
471             	4.81277878e+02
472             	4.81295943e+02
473             	4.81315109e+02
474             	4.81339055e+02
475             	4.81367139e+02
476             	4.81398438e+02
477             	4.81428852e+02
478             	4.81416252e+02
479             	4.81423603e+02
480             	4.81448400e+02
481             	4.81438684e+02
482             	4.81448157e+02
483             	4.81469967e+02
484             	4.81457118e+02
485             	4.81467777e+02
486             	4.81494381e+02
487             	4.81486017e+02
488             	4.81501113e+02
489             	4.81544381e+02
490             	4.81588504e+02
491             	4.81618361e+02
492             	4.81638336e+02
493             	4.81646060e+02
494             	4.81644204e+02
495             	4.81640000e+02
496             	4.81635966e+02
497             	4.81627445e+02
498             	4.81633467e+02
499             	4.81655304e+02
500             	4.81638976e+02
501             	4.81653963e+02
502             	4.81691535e+02
503             	4.81677273e+02
504             	4.81681039e+02
505             	4.81700426e+02
506             	4.81686458e+02
507             	4.81688449e+02
508             	4.81703590e+02
509             	4.81725352e+02
510             	4.81746915e+02
511             	4.81767016e+02
512             	4.81785972e+02
513             	4.81806226e+02
514             	4.81827931e+02
515             	4.81850393e+02
516             	4.81874688e+02
517             	4.81897361e+02
518             	4.81913546e+02
519             	4.81924798e+02
520             	4.81930997e+02
521             	4.81940872e+02
522             	4.81958165e+02
523             	4.81982413e+02
524             	4.82010798e+02
525             	4.81996717e+02
526             	4.82003709e+02
527             	4.82028659e+02
528             	4.82021368e+02
529             	4.82030442e+02
530             	4.82053405e+02
531             	4.82038415e+02
532             	4.82044265e+02
533             	4.82063721e+02
534             	4.82084952e+02
535             	4.82101548e+02
536             	4.82114627e+02
537             	4.82124933e+02
538             	4.82135666e+02
539             	4.82148170e+02
540             	4.82162857e+02
541             	4.82182298e+02
542             	4.82206627e+02
543             	4.82234301e+02
544             	4.82258419e+02
545             	4.82240285e+02
546             	4.82243644e+02
547             	4.82263577e+02
548             	4.82250469e+02
549             	4.82257285e+02
550             	4.82283061e+02
551             	4.82273938e+02
552             	4.82282798e+02
553             	4.82303302e+02
554             	4.82330934e+02
555             	4.82359012e+02
556             	4.82384849e+02
557             	4.82408053e+02
558             	4.82425795e+02
559             	4.82444375e+02
560             	4.82467796e+02
561             	4.82492025e+02
562             	4.82476134e+02
563             	4.82480120e+02
564             	4.82500501e+02
565             	4.82487134e+02
566             	4.82491903e+02
567             	4.82510035e+02
568             	4.82534606e+02
569             	4.82515042e+02
570             	4.82513115e+02
571             	4.82523625e+02
572             	4.82540388e+02
573             	4.82557774e+02
574             	4.82572928e+02
575             	4.82585130e+02
576             	4.82595767e+02
577             	4.82604836e+02
578             	4.82613284e+02
579             	4.82621610e+02
580             	4.82630933e+02
581             	4.82641085e+02
582             	4.82652027e+02
583             	4.82663677e+02
584             	4.82676827e+02
585             	4.82690442e+02
586             	4.82705386e+02
587             	4.82720556e+02
588             	4.82736540e+02
589             	4.82752694e+02
590             	4.82769269e+02
591             	4.82785882e+02
592             	4.82802756e+02
593             	4.82819567e+02
594             	4.82836415e+02
595             	4.82853060e+02
596             	4.82869809e+02
597             	4.82885807e+02
598             	4.82901399e+02
599             	4.82916688e+02
600             	4.82932009e+02
601             	4.82947737e+02
602             	4.82963436e+02
603             	4.82979033e+02
604             	4.82994426e+02
605             	4.83009674e+02
606             	4.83023518e+02
607             	4.83036023e+02
608             	4.83047611e+02
609             	4.83058527e+02
610             	4.83069009e+02
611             	4.83079110e+02
612             	4.83088746e+02
613             	4.83097720e+02
614             	4.83106421e+02
615             	4.83114716e+02
616             	4.83122905e+02
617             	4.83130701e+02
618             	4.83137972e+02
619             	4.83144935e+02
620             	4.83151916e+02
621             	4.83159155e+02
