# Region        : cellZone pcb
# Cells         : 486
# Volume        : 8.50479026e-01
# Time          	volAverage(T)
1               	3.00010534e+02
2               	3.00030680e+02
3               	3.00058710e+02
4               	3.00093956e+02
5               	3.00135242e+02
6               	3.00182235e+02
7               	3.00234812e+02
8               	3.00292279e+02
9               	3.00354022e+02
10              	3.00419960e+02
11              	3.00490437e+02
12              	3.00564808e+02
13              	3.00642634e+02
14              	3.00722254e+02
15              	3.00803380e+02
16              	3.00886844e+02
17              	3.00972691e+02
18              	3.01061031e+02
19              	3.01151527e+02
20              	3.01243941e+02
21              	3.01338377e+02
22              	3.01435186e+02
23              	3.01533185e+02
24              	3.01632387e+02
25              	3.01733250e+02
26              	3.01833721e+02
27              	3.01933411e+02
28              	3.02033966e+02
29              	3.02136684e+02
30              	3.02241463e+02
31              	3.02346663e+02
32              	3.02452454e+02
33              	3.02557708e+02
34              	3.02662352e+02
35              	3.02767282e+02
36              	3.02871275e+02
37              	3.02974629e+02
38              	3.03079072e+02
39              	3.03179986e+02
40              	3.03283065e+02
41              	3.03385074e+02
42              	3.03485786e+02
43              	3.03585921e+02
44              	3.03685697e+02
45              	3.03785504e+02
46              	3.03884902e+02
47              	3.03984019e+02
48              	3.04081214e+02
49              	3.04177983e+02
50              	3.04274613e+02
51              	3.04370223e+02
52              	3.04463918e+02
53              	3.04557021e+02
54              	3.04649060e+02
55              	3.04742526e+02
56              	3.04836407e+02
57              	3.04927137e+02
58              	3.05015134e+02
59              	3.05101668e+02
60              	3.05187639e+02
61              	3.05272975e+02
62              	3.05356683e+02
63              	3.05440450e+02
64              	3.05525048e+02
65              	3.05609158e+02
66              	3.05691447e+02
67              	3.05771626e+02
68              	3.05849996e+02
69              	3.05926785e+02
70              	3.06004029e+02
71              	3.06081382e+02
72              	3.06153145e+02
73              	3.06222957e+02
74              	3.06291558e+02
75              	3.06360654e+02
76              	3.06430536e+02
77              	3.06502685e+02
78              	3.06571899e+02
79              	3.06638850e+02
80              	3.06704531e+02
81              	3.06769568e+02
82              	3.06833741e+02
83              	3.06897080e+02
84              	3.06959449e+02
85              	3.07020923e+02
86              	3.07081807e+02
87              	3.07141577e+02
88              	3.07200990e+02
89              	3.07260565e+02
90              	3.07315854e+02
91              	3.07372266e+02
92              	3.07427201e+02
93              	3.07480544e+02
94              	3.07533077e+02
95              	3.07584641e+02
96              	3.07637381e+02
97              	3.07692950e+02
98              	3.07747788e+02
99              	3.07800148e+02
100             	3.07849998e+02
101             	3.07897182e+02
102             	3.07942326e+02
103             	3.07985505e+02
104             	3.08028110e+02
105             	3.08070934e+02
106             	3.08112781e+02
107             	3.08154402e+02
108             	3.08195562e+02
109             	3.08236417e+02
110             	3.08277749e+02
111             	3.08318982e+02
112             	3.08360459e+02
113             	3.08403124e+02
114             	3.08443264e+02
115             	3.08482522e+02
116             	3.08521658e+02
117             	3.08560085e+02
118             	3.08597687e+02
119             	3.08636276e+02
120             	3.08674094e+02
121             	3.08709602e+02
122             	3.08743496e+02
123             	3.08776235e+02
124             	3.08808658e+02
125             	3.08842317e+02
126             	3.08876804e+02
127             	3.08909000e+02
128             	3.08939646e+02
129             	3.08967575e+02
130             	3.08995618e+02
131             	3.09023988e+02
132             	3.09052639e+02
133             	3.09082409e+02
134             	3.09113058e+02
135             	3.09143445e+02
136             	3.09173208e+02
137             	3.09202659e+02
138             	3.09230847e+02
139             	3.09258516e+02
140             	3.09285203e+02
141             	3.09310674e+02
142             	3.09335976e+02
143             	3.09360601e+02
144             	3.09385950e+02
145             	3.09410854e+02
146             	3.09434456e+02
147             	3.09460451e+02
148             	3.09483730e+02
149             	3.09505223e+02
150             	3.09526954e+02
151             	3.09549152e+02
152             	3.09571552e+02
153             	3.09594029e+02
154             	3.09616523e+02
155             	3.09638749e+02
156             	3.09661027e+02
157             	3.09682849e+02
158             	3.09703601e+02
159             	3.09723868e+02
160             	3.09744879e+02
161             	3.09764485e+02
162             	3.09782539e+02
163             	3.09801004e+02
164             	3.09819351e+02
165             	3.09837045e+02
166             	3.09854347e+02
167             	3.09871362e+02
168             	3.09888154e+02
169             	3.09905069e+02
170             	3.09921819e+02
171             	3.09938242e+02
172             	3.09955390e+02
173             	3.09972723e+02
174             	3.09989455e+02
175             	3.10005502e+02
176             	3.10020864e+02
177             	3.10036481e+02
178             	3.10051934e+02
179             	3.10067005e+02
180             	3.10081431e+02
181             	3.10095149e+02
182             	3.10108456e+02
183             	3.10121944e+02
184             	3.10135066e+02
185             	3.10147691e+02
186             	3.10160170e+02
187             	3.10172732e+02
188             	3.10185157e+02
189             	3.10198018e+02
190             	3.10211513e+02
191             	3.10224658e+02
192             	3.10237538e+02
193             	3.10250063e+02
194             	3.10262197e+02
195             	3.10273727e+02
196             	3.10284396e+02
197             	3.10294850e+02
198             	3.10305895e+02
199             	3.10317018e+02
200             	3.10328179e+02
201             	3.10339182e+02
202             	3.10350000e+02
203             	3.10360967e+02
204             	3.10370048e+02
205             	3.10378005e+02
206             	3.10386261e+02
207             	3.10394979e+02
208             	3.10404037e+02
209             	3.10413025e+02
210             	3.10421884e+02
211             	3.10432240e+02
212             	3.10442601e+02
213             	3.10452459e+02
214             	3.10461563e+02
215             	3.10469805e+02
216             	3.10477204e+02
217             	3.10484295e+02
218             	3.10491626e+02
219             	3.10499084e+02
220             	3.10505907e+02
221             	3.10512569e+02
222             	3.10519425e+02
223             	3.10526464e+02
224             	3.10533553e+02
225             	3.10540756e+02
226             	3.10547866e+02
227             	3.10554351e+02
228             	3.10561107e+02
229             	3.10567822e+02
230             	3.10574376e+02
231             	3.10580732e+02
232             	3.10586932e+02
233             	3.10593004e+02
234             	3.10599104e+02
235             	3.10605040e+02
236             	3.10610749e+02
237             	3.10616305e+02
238             	3.10621436e+02
239             	3.10626324e+02
240             	3.10631334e+02
241             	3.10636530e+02
242             	3.10641913e+02
243             	3.10647476e+02
244             	3.10653160e+02
245             	3.10658766e+02
246             	3.10664085e+02
247             	3.10669053e+02
248             	3.10673781e+02
249             	3.10678324e+02
250             	3.10682888e+02
251             	3.10687375e+02
252             	3.10691826e+02
253             	3.10696045e+02
254             	3.10700203e+02
255             	3.10704321e+02
256             	3.10708774e+02
257             	3.10712976e+02
258             	3.10716881e+02
259             	3.10720479e+02
260             	3.10723911e+02
261             	3.10727385e+02
262             	3.10730963e+02
263             	3.10734480e+02
264             	3.10737969e+02
265             	3.10741552e+02
266             	3.10745275e+02
267             	3.10749009e+02
268             	3.10752602e+02
269             	3.10756048e+02
270             	3.10759376e+02
271             	3.10762576e+02
272             	3.10765887e+02
273             	3.10769240e+02
274             	3.10772060e+02
275             	3.10774703e+02
276             	3.10777385e+02
277             	3.10780177e+02
278             	3.10783131e+02
279             	3.10786025e+02
280             	3.10788819e+02
281             	3.10791614e+02
282             	3.10794406e+02
283             	3.10797182e+02
284             	3.10800180e+02
285             	3.10803294e+02
286             	3.10806237e+02
287             	3.10808830e+02
288             	3.10811143e+02
289             	3.10813354e+02
290             	3.10815441e+02
291             	3.10817497e+02
292             	3.10819791e+02
293             	3.10821858e+02
294             	3.10823783e+02
295             	3.10825845e+02
296             	3.10827832e+02
297             	3.10829787e+02
298             	3.10831767e+02
299             	3.10833774e+02
300             	3.10835786e+02
301             	3.10837721e+02
302             	3.10839586e+02
303             	3.10841426e+02
304             	3.10843440e+02
305             	3.10845376e+02
306             	3.10847202e+02
307             	3.10849004e+02
308             	3.10850728e+02
309             	3.10852466e+02
310             	3.10853981e+02
311             	3.10855365e+02
312             	3.10856918e+02
313             	3.10858626e+02
314             	3.10860335e+02
315             	3.10862065e+02
316             	3.10863705e+02
317             	3.10865308e+02
318             	3.10866889e+02
319             	3.10868478e+02
320             	3.10870099e+02
321             	3.10871728e+02
322             	3.10873411e+02
323             	3.10875042e+02
324             	3.10876540e+02
325             	3.10878120e+02
326             	3.10879632e+02
327             	3.10880946e+02
328             	3.10882120e+02
329             	3.10883201e+02
330             	3.10884154e+02
331             	3.10884988e+02
332             	3.10885871e+02
333             	3.10886871e+02
334             	3.10887929e+02
335             	3.10888724e+02
336             	3.10889639e+02
337             	3.10890794e+02
338             	3.10891940e+02
339             	3.10893122e+02
340             	3.10894309e+02
341             	3.10895236e+02
342             	3.10896146e+02
343             	3.10897293e+02
344             	3.10898437e+02
345             	3.10899486e+02
346             	3.10900433e+02
347             	3.10901331e+02
348             	3.10902176e+02
349             	3.10902996e+02
350             	3.10903883e+02
351             	3.10904807e+02
352             	3.10905611e+02
353             	3.10906288e+02
354             	3.10906944e+02
355             	3.10907629e+02
356             	3.10908389e+02
357             	3.10909260e+02
358             	3.10910171e+02
359             	3.10911088e+02
360             	3.10912013e+02
361             	3.10912869e+02
362             	3.10913743e+02
363             	3.10914522e+02
364             	3.10915239e+02
365             	3.10916072e+02
366             	3.10916927e+02
367             	3.10917681e+02
368             	3.10918317e+02
369             	3.10918883e+02
370             	3.10919414e+02
371             	3.10919960e+02
372             	3.10920466e+02
373             	3.10920909e+02
374             	3.10921274e+02
375             	3.10921650e+02
376             	3.10922079e+02
377             	3.10922529e+02
378             	3.10923051e+02
379             	3.10923660e+02
380             	3.10924087e+02
381             	3.10924466e+02
382             	3.10924860e+02
383             	3.10925290e+02
384             	3.10925779e+02
385             	3.10926333e+02
386             	3.10926909e+02
387             	3.10927493e+02
388             	3.10928096e+02
389             	3.10928713e+02
390             	3.10929382e+02
391             	3.10930085e+02
392             	3.10930759e+02
393             	3.10931371e+02
394             	3.10931922e+02
395             	3.10932399e+02
396             	3.10932797e+02
397             	3.10933175e+02
398             	3.10933508e+02
399             	3.10933828e+02
400             	3.10934146e+02
401             	3.10934455e+02
402             	3.10934742e+02
403             	3.10934984e+02
404             	3.10935173e+02
405             	3.10935347e+02
406             	3.10935580e+02
407             	3.10935833e+02
408             	3.10935954e+02
409             	3.10936081e+02
410             	3.10936249e+02
411             	3.10936454e+02
412             	3.10936733e+02
413             	3.10937080e+02
414             	3.10937399e+02
415             	3.10937757e+02
416             	3.10938014e+02
417             	3.10938399e+02
418             	3.10938837e+02
419             	3.10939401e+02
420             	3.10939910e+02
421             	3.10940332e+02
422             	3.10940680e+02
423             	3.10940954e+02
424             	3.10941184e+02
425             	3.10941407e+02
426             	3.10941654e+02
427             	3.10942019e+02
428             	3.10942232e+02
429             	3.10942437e+02
430             	3.10942611e+02
431             	3.10942720e+02
432             	3.10942840e+02
433             	3.10943069e+02
434             	3.10943396e+02
435             	3.10943748e+02
436             	3.10944111e+02
437             	3.10944463e+02
438             	3.10944830e+02
439             	3.10945148e+02
440             	3.10945309e+02
441             	3.10945583e+02
442             	3.10945827e+02
443             	3.10946019e+02
444             	3.10946124e+02
445             	3.10946156e+02
446             	3.10946104e+02
447             	3.10946051e+02
448             	3.10946136e+02
449             	3.10946263e+02
450             	3.10946335e+02
451             	3.10946271e+02
452             	3.10946259e+02
453             	3.10946441e+02
454             	3.10946716e+02
455             	3.10947041e+02
456             	3.10947391e+02
457             	3.10947722e+02
458             	3.10948018e+02
459             	3.10948232e+02
460             	3.10948419e+02
461             	3.10948739e+02
462             	3.10949027e+02
463             	3.10949273e+02
464             	3.10949484e+02
465             	3.10949657e+02
466             	3.10949958e+02
467             	3.10949938e+02
468             	3.10949739e+02
469             	3.10949659e+02
470             	3.10949786e+02
471             	3.10949919e+02
472             	3.10950112e+02
473             	3.10950333e+02
474             	3.10950564e+02
475             	3.10950800e+02
476             	3.10951020e+02
477             	3.10951113e+02
478             	3.10951067e+02
479             	3.10951294e+02
480             	3.10951541e+02
481             	3.10951690e+02
482             	3.10951751e+02
483             	3.10951828e+02
484             	3.10951844e+02
485             	3.10951813e+02
486             	3.10951754e+02
487             	3.10951540e+02
488             	3.10951325e+02
489             	3.10951209e+02
490             	3.10951107e+02
491             	3.10951163e+02
492             	3.10951270e+02
493             	3.10951514e+02
494             	3.10951868e+02
495             	3.10952328e+02
496             	3.10952696e+02
497             	3.10952865e+02
498             	3.10952939e+02
499             	3.10953100e+02
500             	3.10953207e+02
501             	3.10953331e+02
502             	3.10953473e+02
503             	3.10953637e+02
504             	3.10953808e+02
505             	3.10953910e+02
506             	3.10953813e+02
507             	3.10953779e+02
508             	3.10953855e+02
509             	3.10953899e+02
510             	3.10953774e+02
511             	3.10953618e+02
512             	3.10953552e+02
513             	3.10953552e+02
514             	3.10953621e+02
515             	3.10953771e+02
516             	3.10953916e+02
517             	3.10953953e+02
518             	3.10953762e+02
519             	3.10953838e+02
520             	3.10953994e+02
521             	3.10954088e+02
522             	3.10954084e+02
523             	3.10954010e+02
524             	3.10953894e+02
525             	3.10953923e+02
526             	3.10953799e+02
527             	3.10953570e+02
528             	3.10953405e+02
529             	3.10953333e+02
530             	3.10953342e+02
531             	3.10953422e+02
532             	3.10953564e+02
533             	3.10953818e+02
534             	3.10954060e+02
535             	3.10954307e+02
536             	3.10954608e+02
537             	3.10954944e+02
538             	3.10955270e+02
539             	3.10955518e+02
540             	3.10955466e+02
541             	3.10955575e+02
542             	3.10955705e+02
543             	3.10955782e+02
544             	3.10955794e+02
545             	3.10955771e+02
546             	3.10955758e+02
547             	3.10955748e+02
548             	3.10955783e+02
549             	3.10955778e+02
550             	3.10955722e+02
551             	3.10955543e+02
552             	3.10955393e+02
553             	3.10955374e+02
554             	3.10955409e+02
555             	3.10955554e+02
556             	3.10955617e+02
557             	3.10955487e+02
558             	3.10955439e+02
559             	3.10955627e+02
560             	3.10955842e+02
561             	3.10955929e+02
562             	3.10956028e+02
563             	3.10956172e+02
564             	3.10956339e+02
565             	3.10955980e+02
566             	3.10955572e+02
567             	3.10955361e+02
568             	3.10955385e+02
569             	3.10955530e+02
570             	3.10955657e+02
571             	3.10955728e+02
572             	3.10956013e+02
573             	3.10956477e+02
574             	3.10956853e+02
575             	3.10957042e+02
576             	3.10957085e+02
577             	3.10957058e+02
578             	3.10956932e+02
579             	3.10956849e+02
580             	3.10956632e+02
581             	3.10956233e+02
582             	3.10955926e+02
583             	3.10955758e+02
584             	3.10955720e+02
585             	3.10955773e+02
586             	3.10955936e+02
587             	3.10955853e+02
588             	3.10955996e+02
589             	3.10956304e+02
590             	3.10956487e+02
591             	3.10956543e+02
592             	3.10956559e+02
593             	3.10956565e+02
594             	3.10956499e+02
595             	3.10956305e+02
596             	3.10956080e+02
597             	3.10955881e+02
598             	3.10955896e+02
599             	3.10955771e+02
600             	3.10955503e+02
601             	3.10955300e+02
602             	3.10955172e+02
603             	3.10955113e+02
604             	3.10955137e+02
605             	3.10955241e+02
606             	3.10955417e+02
607             	3.10955424e+02
608             	3.10955556e+02
609             	3.10955865e+02
610             	3.10956126e+02
611             	3.10956269e+02
612             	3.10956335e+02
613             	3.10956352e+02
614             	3.10956349e+02
615             	3.10956406e+02
616             	3.10956106e+02
617             	3.10955674e+02
618             	3.10955390e+02
619             	3.10955288e+02
620             	3.10955401e+02
621             	3.10955600e+02
