# Region        : cellZone component_2
# Cells         : 36
# Volume        : 4.97138913e-02
# Time          	volAverage(T)
1               	3.07899739e+02
2               	3.15506660e+02
3               	3.20590201e+02
4               	3.24559701e+02
5               	3.28773821e+02
6               	3.33284751e+02
7               	3.37745813e+02
8               	3.42064716e+02
9               	3.46444669e+02
10              	3.50656840e+02
11              	3.54581128e+02
12              	3.58074267e+02
13              	3.61238023e+02
14              	3.64056042e+02
15              	3.66665697e+02
16              	3.69142243e+02
17              	3.71411450e+02
18              	3.73367400e+02
19              	3.75459106e+02
20              	3.77494784e+02
21              	3.79650197e+02
22              	3.81794504e+02
23              	3.83716495e+02
24              	3.85707233e+02
25              	3.87453428e+02
26              	3.89358816e+02
27              	3.90996004e+02
28              	3.92365138e+02
29              	3.93426945e+02
30              	3.94224507e+02
31              	3.94881741e+02
32              	3.95432488e+02
33              	3.95240376e+02
34              	3.94631398e+02
35              	3.93630145e+02
36              	3.92726437e+02
37              	3.92078439e+02
38              	3.91644814e+02
39              	3.91463764e+02
40              	3.91466876e+02
41              	3.91853250e+02
42              	3.92596421e+02
43              	3.93448685e+02
44              	3.94458965e+02
45              	3.95225899e+02
46              	3.95884838e+02
47              	3.96374992e+02
48              	3.97315749e+02
49              	3.97796209e+02
50              	3.98298261e+02
51              	3.98801540e+02
52              	3.99292548e+02
53              	3.99980106e+02
54              	4.00786021e+02
55              	4.01969493e+02
56              	4.03161963e+02
57              	4.04592882e+02
58              	4.05792568e+02
59              	4.06771301e+02
60              	4.07667024e+02
61              	4.08560352e+02
62              	4.09228802e+02
63              	4.09909848e+02
64              	4.09840638e+02
65              	4.09226097e+02
66              	4.08557990e+02
67              	4.08454132e+02
68              	4.08344376e+02
69              	4.08216278e+02
70              	4.08018537e+02
71              	4.07966266e+02
72              	4.08089306e+02
73              	4.08481960e+02
74              	4.08888253e+02
75              	4.09401030e+02
76              	4.10024410e+02
77              	4.10462837e+02
78              	4.10472163e+02
79              	4.10202021e+02
80              	4.10028789e+02
81              	4.09967944e+02
82              	4.10012728e+02
83              	4.10037117e+02
84              	4.09831431e+02
85              	4.09802556e+02
86              	4.10038768e+02
87              	4.10455734e+02
88              	4.10970490e+02
89              	4.11292882e+02
90              	4.11474844e+02
91              	4.11512471e+02
92              	4.11429334e+02
93              	4.10904742e+02
94              	4.10322322e+02
95              	4.09738499e+02
96              	4.09162455e+02
97              	4.08437605e+02
98              	4.07567026e+02
99              	4.06735433e+02
100             	4.06175586e+02
101             	4.05923195e+02
102             	4.05820754e+02
103             	4.05797330e+02
104             	4.05695004e+02
105             	4.05628770e+02
106             	4.05539067e+02
107             	4.05257000e+02
108             	4.05174687e+02
109             	4.05114817e+02
110             	4.04648706e+02
111             	4.03712501e+02
112             	4.03259317e+02
113             	4.03108704e+02
114             	4.03051330e+02
115             	4.02766181e+02
116             	4.02484035e+02
117             	4.02233196e+02
118             	4.02229558e+02
119             	4.02257374e+02
120             	4.02023638e+02
121             	4.01709100e+02
122             	4.01119234e+02
123             	4.00682336e+02
124             	4.00541662e+02
125             	4.00380097e+02
126             	4.00109660e+02
127             	3.99750336e+02
128             	3.99552985e+02
129             	3.99592970e+02
130             	3.99758243e+02
131             	3.99896313e+02
132             	3.99769006e+02
133             	3.99579742e+02
134             	3.99513591e+02
135             	3.99602023e+02
136             	3.99590896e+02
137             	3.99266900e+02
138             	3.99012179e+02
139             	3.98771747e+02
140             	3.98318321e+02
141             	3.97840981e+02
142             	3.97540225e+02
143             	3.97397634e+02
144             	3.97417705e+02
145             	3.97534282e+02
146             	3.97694031e+02
147             	3.97685859e+02
148             	3.97643344e+02
149             	3.97531716e+02
150             	3.97540755e+02
151             	3.97616028e+02
152             	3.97819506e+02
153             	3.98035193e+02
154             	3.98238208e+02
155             	3.98347242e+02
156             	3.98433057e+02
157             	3.98489311e+02
158             	3.98572243e+02
159             	3.98686770e+02
160             	3.98776045e+02
161             	3.98859795e+02
162             	3.98982395e+02
163             	3.99131828e+02
164             	3.99335148e+02
165             	3.99531176e+02
166             	3.99722059e+02
167             	3.99959874e+02
168             	4.00251210e+02
169             	4.00573905e+02
170             	4.00878232e+02
171             	4.01126606e+02
172             	4.01317419e+02
173             	4.01485861e+02
174             	4.01620327e+02
175             	4.01679806e+02
176             	4.01704733e+02
177             	4.01845768e+02
178             	4.02064572e+02
179             	4.02205105e+02
180             	4.02375911e+02
181             	4.02613620e+02
182             	4.02839419e+02
183             	4.03037229e+02
184             	4.03276378e+02
185             	4.03538662e+02
186             	4.03741375e+02
187             	4.03820437e+02
188             	4.03915756e+02
189             	4.04048706e+02
190             	4.04181886e+02
191             	4.04286155e+02
192             	4.04335717e+02
193             	4.04361741e+02
194             	4.04392468e+02
195             	4.04349739e+02
196             	4.04280593e+02
197             	4.04302345e+02
198             	4.04357868e+02
199             	4.04374962e+02
200             	4.04362092e+02
201             	4.04337778e+02
202             	4.04344656e+02
203             	4.04344236e+02
204             	4.04296203e+02
205             	4.04279229e+02
206             	4.04382359e+02
207             	4.04518437e+02
208             	4.04617914e+02
209             	4.04655005e+02
210             	4.04634258e+02
211             	4.04648687e+02
212             	4.04698467e+02
213             	4.04780227e+02
214             	4.04872230e+02
215             	4.04916986e+02
216             	4.04933621e+02
217             	4.04951183e+02
218             	4.04943730e+02
219             	4.04947059e+02
220             	4.05004670e+02
221             	4.05077901e+02
222             	4.05142590e+02
223             	4.05223497e+02
224             	4.05298294e+02
225             	4.05345137e+02
226             	4.05368170e+02
227             	4.05395123e+02
228             	4.05430583e+02
229             	4.05466576e+02
230             	4.05490361e+02
231             	4.05493653e+02
232             	4.05521510e+02
233             	4.05556409e+02
234             	4.05586644e+02
235             	4.05609637e+02
236             	4.05628679e+02
237             	4.05648599e+02
238             	4.05665508e+02
239             	4.05661813e+02
240             	4.05635349e+02
241             	4.05623480e+02
242             	4.05607039e+02
243             	4.05596180e+02
244             	4.05595823e+02
245             	4.05599324e+02
246             	4.05598066e+02
247             	4.05597983e+02
248             	4.05597190e+02
249             	4.05595612e+02
250             	4.05602339e+02
251             	4.05614542e+02
252             	4.05628934e+02
253             	4.05645758e+02
254             	4.05664797e+02
255             	4.05684440e+02
256             	4.05706522e+02
257             	4.05737394e+02
258             	4.05757706e+02
259             	4.05773879e+02
260             	4.05792183e+02
261             	4.05811828e+02
262             	4.05826883e+02
263             	4.05835180e+02
264             	4.05841690e+02
265             	4.05849319e+02
266             	4.05857701e+02
267             	4.05851210e+02
268             	4.05854777e+02
269             	4.05868757e+02
270             	4.05881438e+02
271             	4.05889426e+02
272             	4.05894167e+02
273             	4.05901644e+02
274             	4.05899405e+02
275             	4.05888747e+02
276             	4.05880935e+02
277             	4.05877839e+02
278             	4.05873227e+02
279             	4.05873467e+02
280             	4.05874767e+02
281             	4.05890260e+02
282             	4.05910415e+02
283             	4.05922379e+02
284             	4.05930233e+02
285             	4.05937678e+02
286             	4.05944726e+02
287             	4.05947080e+02
288             	4.05950779e+02
289             	4.05959368e+02
290             	4.05967880e+02
291             	4.05976300e+02
292             	4.05987616e+02
293             	4.05999200e+02
294             	4.06008430e+02
295             	4.06016014e+02
296             	4.06022995e+02
297             	4.06033308e+02
298             	4.06044064e+02
299             	4.06056035e+02
300             	4.06069119e+02
301             	4.06080722e+02
302             	4.06087517e+02
303             	4.06087186e+02
304             	4.06085846e+02
305             	4.06086632e+02
306             	4.06089232e+02
307             	4.06088049e+02
308             	4.06085601e+02
309             	4.06089457e+02
310             	4.06095284e+02
311             	4.06097077e+02
312             	4.06100957e+02
313             	4.06105403e+02
314             	4.06108243e+02
315             	4.06109230e+02
316             	4.06109816e+02
317             	4.06110251e+02
318             	4.06108778e+02
319             	4.06105818e+02
320             	4.06107690e+02
321             	4.06111972e+02
322             	4.06116314e+02
323             	4.06120057e+02
324             	4.06124926e+02
325             	4.06133032e+02
326             	4.06141241e+02
327             	4.06148113e+02
328             	4.06155756e+02
329             	4.06163264e+02
330             	4.06167958e+02
331             	4.06172315e+02
332             	4.06177661e+02
333             	4.06183583e+02
334             	4.06190272e+02
335             	4.06193887e+02
336             	4.06196861e+02
337             	4.06200332e+02
338             	4.06204259e+02
339             	4.06208008e+02
340             	4.06211215e+02
341             	4.06213563e+02
342             	4.06215893e+02
343             	4.06215236e+02
344             	4.06217838e+02
345             	4.06221354e+02
346             	4.06223801e+02
347             	4.06225332e+02
348             	4.06226734e+02
349             	4.06228455e+02
350             	4.06230520e+02
351             	4.06231661e+02
352             	4.06232431e+02
353             	4.06234254e+02
354             	4.06237080e+02
355             	4.06239875e+02
356             	4.06241736e+02
357             	4.06244599e+02
358             	4.06249310e+02
359             	4.06253819e+02
360             	4.06256932e+02
361             	4.06258839e+02
362             	4.06260455e+02
363             	4.06263297e+02
364             	4.06265327e+02
365             	4.06266570e+02
366             	4.06268270e+02
367             	4.06270162e+02
368             	4.06272338e+02
369             	4.06274531e+02
370             	4.06276343e+02
371             	4.06277575e+02
372             	4.06279149e+02
373             	4.06280596e+02
374             	4.06281350e+02
375             	4.06281962e+02
376             	4.06282867e+02
377             	4.06283574e+02
378             	4.06284130e+02
379             	4.06284466e+02
380             	4.06284622e+02
381             	4.06284741e+02
382             	4.06284913e+02
383             	4.06285830e+02
384             	4.06286964e+02
385             	4.06287994e+02
386             	4.06288938e+02
387             	4.06289745e+02
388             	4.06290266e+02
389             	4.06291160e+02
390             	4.06292184e+02
391             	4.06292975e+02
392             	4.06293461e+02
393             	4.06293886e+02
394             	4.06294326e+02
395             	4.06295131e+02
396             	4.06296109e+02
397             	4.06297152e+02
398             	4.06298698e+02
399             	4.06300478e+02
400             	4.06302392e+02
401             	4.06304338e+02
402             	4.06305660e+02
403             	4.06307191e+02
404             	4.06308144e+02
405             	4.06308834e+02
406             	4.06309545e+02
407             	4.06309864e+02
408             	4.06310523e+02
409             	4.06311153e+02
410             	4.06311480e+02
411             	4.06311597e+02
412             	4.06311672e+02
413             	4.06311634e+02
414             	4.06311425e+02
415             	4.06311132e+02
416             	4.06310718e+02
417             	4.06310491e+02
418             	4.06309790e+02
419             	4.06308887e+02
420             	4.06308101e+02
421             	4.06307380e+02
422             	4.06306639e+02
423             	4.06305772e+02
424             	4.06305743e+02
425             	4.06306079e+02
426             	4.06306330e+02
427             	4.06306486e+02
428             	4.06306746e+02
429             	4.06307279e+02
430             	4.06308140e+02
431             	4.06308697e+02
432             	4.06310382e+02
433             	4.06312879e+02
434             	4.06316006e+02
435             	4.06316227e+02
436             	4.06315579e+02
437             	4.06315544e+02
438             	4.06315923e+02
439             	4.06316282e+02
440             	4.06316026e+02
441             	4.06315465e+02
442             	4.06314138e+02
443             	4.06312507e+02
444             	4.06310810e+02
445             	4.06309033e+02
446             	4.06307526e+02
447             	4.06306072e+02
448             	4.06304383e+02
449             	4.06302378e+02
450             	4.06300417e+02
451             	4.06300192e+02
452             	4.06300600e+02
453             	4.06300839e+02
454             	4.06301138e+02
455             	4.06301776e+02
456             	4.06303024e+02
457             	4.06304252e+02
458             	4.06305947e+02
459             	4.06306592e+02
460             	4.06307039e+02
461             	4.06308121e+02
462             	4.06309485e+02
463             	4.06310799e+02
464             	4.06311871e+02
465             	4.06313135e+02
466             	4.06313916e+02
467             	4.06315135e+02
468             	4.06316388e+02
469             	4.06317322e+02
470             	4.06317897e+02
471             	4.06318154e+02
472             	4.06318469e+02
473             	4.06318241e+02
474             	4.06317819e+02
475             	4.06317458e+02
476             	4.06317199e+02
477             	4.06316951e+02
478             	4.06316316e+02
479             	4.06315632e+02
480             	4.06315100e+02
481             	4.06314678e+02
482             	4.06314260e+02
483             	4.06313792e+02
484             	4.06313274e+02
485             	4.06312669e+02
486             	4.06311506e+02
487             	4.06311282e+02
488             	4.06311409e+02
489             	4.06311262e+02
490             	4.06310925e+02
491             	4.06310575e+02
492             	4.06310347e+02
493             	4.06310239e+02
494             	4.06310181e+02
495             	4.06310058e+02
496             	4.06309722e+02
497             	4.06309561e+02
498             	4.06308797e+02
499             	4.06307725e+02
500             	4.06306659e+02
501             	4.06305650e+02
502             	4.06304873e+02
503             	4.06303903e+02
504             	4.06302877e+02
505             	4.06301933e+02
506             	4.06300879e+02
507             	4.06300582e+02
508             	4.06300672e+02
509             	4.06300857e+02
510             	4.06300940e+02
511             	4.06301456e+02
512             	4.06302222e+02
513             	4.06303142e+02
514             	4.06303768e+02
515             	4.06304279e+02
516             	4.06304775e+02
517             	4.06305238e+02
518             	4.06305732e+02
519             	4.06305458e+02
520             	4.06304826e+02
521             	4.06304556e+02
522             	4.06304350e+02
523             	4.06304057e+02
524             	4.06303678e+02
525             	4.06303680e+02
526             	4.06303863e+02
527             	4.06304014e+02
528             	4.06303961e+02
529             	4.06303774e+02
530             	4.06303727e+02
531             	4.06303487e+02
532             	4.06303100e+02
533             	4.06302495e+02
534             	4.06301645e+02
535             	4.06300612e+02
536             	4.06300406e+02
537             	4.06299110e+02
538             	4.06297422e+02
539             	4.06296025e+02
540             	4.06294485e+02
541             	4.06293833e+02
542             	4.06293435e+02
543             	4.06292819e+02
544             	4.06291989e+02
545             	4.06291165e+02
546             	4.06290476e+02
547             	4.06290008e+02
548             	4.06289648e+02
549             	4.06288930e+02
550             	4.06288805e+02
551             	4.06288990e+02
552             	4.06289096e+02
553             	4.06289010e+02
554             	4.06288828e+02
555             	4.06288691e+02
556             	4.06288650e+02
557             	4.06288728e+02
558             	4.06288637e+02
559             	4.06288450e+02
560             	4.06288339e+02
561             	4.06288335e+02
562             	4.06288193e+02
563             	4.06287898e+02
564             	4.06287521e+02
565             	4.06287168e+02
566             	4.06286860e+02
567             	4.06286625e+02
568             	4.06286478e+02
569             	4.06286416e+02
570             	4.06286472e+02
571             	4.06286665e+02
572             	4.06286993e+02
573             	4.06287415e+02
574             	4.06287929e+02
575             	4.06288629e+02
576             	4.06289451e+02
577             	4.06290276e+02
578             	4.06291129e+02
579             	4.06292053e+02
580             	4.06292979e+02
581             	4.06293834e+02
582             	4.06294587e+02
583             	4.06295266e+02
584             	4.06295864e+02
585             	4.06296344e+02
586             	4.06297032e+02
587             	4.06296811e+02
588             	4.06296122e+02
589             	4.06295516e+02
590             	4.06295116e+02
591             	4.06294810e+02
592             	4.06294651e+02
593             	4.06293873e+02
594             	4.06292882e+02
595             	4.06292029e+02
596             	4.06290949e+02
597             	4.06289451e+02
598             	4.06289669e+02
599             	4.06290388e+02
600             	4.06290636e+02
601             	4.06290533e+02
602             	4.06290533e+02
603             	4.06291050e+02
604             	4.06291760e+02
605             	4.06292709e+02
606             	4.06293889e+02
607             	4.06295072e+02
608             	4.06296097e+02
609             	4.06297685e+02
610             	4.06298129e+02
611             	4.06298245e+02
612             	4.06298465e+02
613             	4.06298731e+02
614             	4.06299028e+02
615             	4.06299183e+02
616             	4.06299117e+02
617             	4.06298879e+02
618             	4.06298537e+02
619             	4.06298138e+02
620             	4.06297662e+02
621             	4.06297081e+02
