# Region        : cellZone component_0
# Cells         : 45
# Volume        : 7.05797783e-02
# Time          	volAverage(T)
1               	3.00839148e+02
2               	3.01660359e+02
3               	3.02392152e+02
4               	3.03073768e+02
5               	3.03736345e+02
6               	3.04388301e+02
7               	3.05033737e+02
8               	3.05672998e+02
9               	3.06314728e+02
10              	3.06928093e+02
11              	3.07508592e+02
12              	3.08054939e+02
13              	3.08575249e+02
14              	3.09078711e+02
15              	3.09566174e+02
16              	3.10055734e+02
17              	3.10543625e+02
18              	3.11031903e+02
19              	3.11504180e+02
20              	3.11980550e+02
21              	3.12452894e+02
22              	3.12912646e+02
23              	3.13371555e+02
24              	3.13826621e+02
25              	3.14289819e+02
26              	3.14759583e+02
27              	3.15225860e+02
28              	3.15684182e+02
29              	3.16136839e+02
30              	3.16589796e+02
31              	3.17042722e+02
32              	3.17503184e+02
33              	3.17942368e+02
34              	3.18384841e+02
35              	3.18812414e+02
36              	3.19207424e+02
37              	3.19602925e+02
38              	3.19995372e+02
39              	3.20379555e+02
40              	3.20720474e+02
41              	3.21031747e+02
42              	3.21314922e+02
43              	3.21590201e+02
44              	3.21855730e+02
45              	3.22111983e+02
46              	3.22366157e+02
47              	3.22624683e+02
48              	3.22899332e+02
49              	3.23191685e+02
50              	3.23464039e+02
51              	3.23713600e+02
52              	3.23935473e+02
53              	3.24121318e+02
54              	3.24284717e+02
55              	3.24420763e+02
56              	3.24566830e+02
57              	3.24718025e+02
58              	3.24853298e+02
59              	3.24980100e+02
60              	3.25106134e+02
61              	3.25236043e+02
62              	3.25389274e+02
63              	3.25553445e+02
64              	3.25697667e+02
65              	3.25864011e+02
66              	3.26046526e+02
67              	3.26215071e+02
68              	3.26369183e+02
69              	3.26497251e+02
70              	3.26585295e+02
71              	3.26644447e+02
72              	3.26686154e+02
73              	3.26723333e+02
74              	3.26756448e+02
75              	3.26794224e+02
76              	3.26840707e+02
77              	3.26910604e+02
78              	3.27013083e+02
79              	3.27128558e+02
80              	3.27174580e+02
81              	3.27145752e+02
82              	3.27158805e+02
83              	3.27177940e+02
84              	3.27180672e+02
85              	3.27162748e+02
86              	3.27131541e+02
87              	3.27098511e+02
88              	3.27066528e+02
89              	3.27044928e+02
90              	3.27043575e+02
91              	3.27036605e+02
92              	3.27045945e+02
93              	3.27067443e+02
94              	3.27069781e+02
95              	3.27090881e+02
96              	3.27108265e+02
97              	3.27134342e+02
98              	3.27167139e+02
99              	3.27195247e+02
100             	3.27213546e+02
101             	3.27227787e+02
102             	3.27225007e+02
103             	3.27269052e+02
104             	3.27297694e+02
105             	3.27323678e+02
106             	3.27335954e+02
107             	3.27361596e+02
108             	3.27387515e+02
109             	3.27386411e+02
110             	3.27382702e+02
111             	3.27368370e+02
112             	3.27343565e+02
113             	3.27313232e+02
114             	3.27282194e+02
115             	3.27254032e+02
116             	3.27232300e+02
117             	3.27220908e+02
118             	3.27230178e+02
119             	3.27233608e+02
120             	3.27254293e+02
121             	3.27289674e+02
122             	3.27326289e+02
123             	3.27356294e+02
124             	3.27390267e+02
125             	3.27424338e+02
126             	3.27457846e+02
127             	3.27490434e+02
128             	3.27515347e+02
129             	3.27528314e+02
130             	3.27533585e+02
131             	3.27542981e+02
132             	3.27547848e+02
133             	3.27537981e+02
134             	3.27540335e+02
135             	3.27544144e+02
136             	3.27548415e+02
137             	3.27556875e+02
138             	3.27563100e+02
139             	3.27570604e+02
140             	3.27573505e+02
141             	3.27576714e+02
142             	3.27580526e+02
143             	3.27585631e+02
144             	3.27579241e+02
145             	3.27579584e+02
146             	3.27583165e+02
147             	3.27590943e+02
148             	3.27590254e+02
149             	3.27593907e+02
150             	3.27597970e+02
151             	3.27597345e+02
152             	3.27596214e+02
153             	3.27592978e+02
154             	3.27588223e+02
155             	3.27583169e+02
156             	3.27578740e+02
157             	3.27575498e+02
158             	3.27573517e+02
159             	3.27572578e+02
160             	3.27573062e+02
161             	3.27574650e+02
162             	3.27577280e+02
163             	3.27585554e+02
164             	3.27588484e+02
165             	3.27589505e+02
166             	3.27592933e+02
167             	3.27598436e+02
168             	3.27601982e+02
169             	3.27604244e+02
170             	3.27603797e+02
171             	3.27603995e+02
172             	3.27608172e+02
173             	3.27610468e+02
174             	3.27611649e+02
175             	3.27611958e+02
176             	3.27611925e+02
177             	3.27610154e+02
178             	3.27612761e+02
179             	3.27608813e+02
180             	3.27607783e+02
181             	3.27603527e+02
182             	3.27597965e+02
183             	3.27593696e+02
184             	3.27589998e+02
185             	3.27585949e+02
186             	3.27581044e+02
187             	3.27575338e+02
188             	3.27568747e+02
189             	3.27561432e+02
190             	3.27553632e+02
191             	3.27544162e+02
192             	3.27535406e+02
193             	3.27526874e+02
194             	3.27518256e+02
195             	3.27510753e+02
196             	3.27502539e+02
197             	3.27494321e+02
198             	3.27486643e+02
199             	3.27479535e+02
200             	3.27473151e+02
201             	3.27467559e+02
202             	3.27462973e+02
203             	3.27460016e+02
204             	3.27457376e+02
205             	3.27455445e+02
206             	3.27453804e+02
207             	3.27452650e+02
208             	3.27451814e+02
209             	3.27451160e+02
210             	3.27450340e+02
211             	3.27449258e+02
212             	3.27447699e+02
213             	3.27445917e+02
214             	3.27443928e+02
215             	3.27441263e+02
216             	3.27437707e+02
217             	3.27434337e+02
218             	3.27430483e+02
219             	3.27426557e+02
220             	3.27422462e+02
221             	3.27418159e+02
222             	3.27413761e+02
223             	3.27409387e+02
224             	3.27405116e+02
225             	3.27400992e+02
226             	3.27397127e+02
227             	3.27395207e+02
228             	3.27392381e+02
229             	3.27390424e+02
230             	3.27388502e+02
231             	3.27385345e+02
232             	3.27383423e+02
233             	3.27381953e+02
234             	3.27380120e+02
235             	3.27377761e+02
236             	3.27374982e+02
237             	3.27371907e+02
238             	3.27368354e+02
239             	3.27364916e+02
240             	3.27360764e+02
241             	3.27357140e+02
242             	3.27353598e+02
243             	3.27349946e+02
244             	3.27346269e+02
245             	3.27342681e+02
246             	3.27339182e+02
247             	3.27335917e+02
248             	3.27335444e+02
249             	3.27333954e+02
250             	3.27334140e+02
251             	3.27333613e+02
252             	3.27332188e+02
253             	3.27331699e+02
254             	3.27330862e+02
255             	3.27329815e+02
256             	3.27328225e+02
257             	3.27326273e+02
258             	3.27323721e+02
259             	3.27320588e+02
260             	3.27316927e+02
261             	3.27312705e+02
262             	3.27309276e+02
263             	3.27306150e+02
264             	3.27304200e+02
265             	3.27302221e+02
266             	3.27299932e+02
267             	3.27298267e+02
268             	3.27298061e+02
269             	3.27298987e+02
270             	3.27300397e+02
271             	3.27300616e+02
272             	3.27301241e+02
273             	3.27301045e+02
274             	3.27300763e+02
275             	3.27300520e+02
276             	3.27299976e+02
277             	3.27299182e+02
278             	3.27298207e+02
279             	3.27297278e+02
280             	3.27296458e+02
281             	3.27295733e+02
282             	3.27295623e+02
283             	3.27295460e+02
284             	3.27294679e+02
285             	3.27294455e+02
286             	3.27294547e+02
287             	3.27294583e+02
288             	3.27292892e+02
289             	3.27292089e+02
290             	3.27291461e+02
291             	3.27290432e+02
292             	3.27289016e+02
293             	3.27288327e+02
294             	3.27289239e+02
295             	3.27289050e+02
296             	3.27288949e+02
297             	3.27288390e+02
298             	3.27288813e+02
299             	3.27289442e+02
300             	3.27290080e+02
301             	3.27290493e+02
302             	3.27290867e+02
303             	3.27290878e+02
304             	3.27290753e+02
305             	3.27292419e+02
306             	3.27293448e+02
307             	3.27294279e+02
308             	3.27295433e+02
309             	3.27295975e+02
310             	3.27295681e+02
311             	3.27295717e+02
312             	3.27296535e+02
313             	3.27297310e+02
314             	3.27297904e+02
315             	3.27298676e+02
316             	3.27298744e+02
317             	3.27299126e+02
318             	3.27300776e+02
319             	3.27301975e+02
320             	3.27303005e+02
321             	3.27304470e+02
322             	3.27305918e+02
323             	3.27307365e+02
324             	3.27308912e+02
325             	3.27310548e+02
326             	3.27312175e+02
327             	3.27313769e+02
328             	3.27315333e+02
329             	3.27316901e+02
330             	3.27318500e+02
331             	3.27320060e+02
332             	3.27321473e+02
333             	3.27323060e+02
334             	3.27324447e+02
335             	3.27325690e+02
336             	3.27326910e+02
337             	3.27328140e+02
338             	3.27329331e+02
339             	3.27330533e+02
340             	3.27331923e+02
341             	3.27333424e+02
342             	3.27335055e+02
343             	3.27336783e+02
344             	3.27338560e+02
345             	3.27340346e+02
346             	3.27341617e+02
347             	3.27342621e+02
348             	3.27343574e+02
349             	3.27344506e+02
350             	3.27345317e+02
351             	3.27345967e+02
352             	3.27346476e+02
353             	3.27347000e+02
354             	3.27347556e+02
355             	3.27347670e+02
356             	3.27348154e+02
357             	3.27348893e+02
358             	3.27349715e+02
359             	3.27350556e+02
360             	3.27351527e+02
361             	3.27352750e+02
362             	3.27354254e+02
363             	3.27355939e+02
364             	3.27357727e+02
365             	3.27359721e+02
366             	3.27361917e+02
367             	3.27364259e+02
368             	3.27366708e+02
369             	3.27369237e+02
370             	3.27371797e+02
371             	3.27374369e+02
372             	3.27376932e+02
373             	3.27379665e+02
374             	3.27382218e+02
375             	3.27384666e+02
376             	3.27387231e+02
377             	3.27389686e+02
378             	3.27392085e+02
379             	3.27394461e+02
380             	3.27396794e+02
381             	3.27399088e+02
382             	3.27401344e+02
383             	3.27403561e+02
384             	3.27405505e+02
385             	3.27407600e+02
386             	3.27409745e+02
387             	3.27411668e+02
388             	3.27413574e+02
389             	3.27415552e+02
390             	3.27417554e+02
391             	3.27419542e+02
392             	3.27421548e+02
393             	3.27423578e+02
394             	3.27425609e+02
395             	3.27427654e+02
396             	3.27429717e+02
397             	3.27432050e+02
398             	3.27434228e+02
399             	3.27436366e+02
400             	3.27438552e+02
401             	3.27440776e+02
402             	3.27443020e+02
403             	3.27445257e+02
404             	3.27447478e+02
405             	3.27449673e+02
406             	3.27451844e+02
407             	3.27453995e+02
408             	3.27456135e+02
409             	3.27458264e+02
410             	3.27460395e+02
411             	3.27462551e+02
412             	3.27464742e+02
413             	3.27466962e+02
414             	3.27469207e+02
415             	3.27471474e+02
416             	3.27473759e+02
417             	3.27476039e+02
418             	3.27478327e+02
419             	3.27480627e+02
420             	3.27482936e+02
421             	3.27485294e+02
422             	3.27487671e+02
423             	3.27490072e+02
424             	3.27492506e+02
425             	3.27494803e+02
426             	3.27497206e+02
427             	3.27499646e+02
428             	3.27502062e+02
429             	3.27504444e+02
430             	3.27506808e+02
431             	3.27509164e+02
432             	3.27511515e+02
433             	3.27513858e+02
434             	3.27516178e+02
435             	3.27517756e+02
436             	3.27519646e+02
437             	3.27521588e+02
438             	3.27523318e+02
439             	3.27525186e+02
440             	3.27527073e+02
441             	3.27528699e+02
442             	3.27530328e+02
443             	3.27532079e+02
444             	3.27534059e+02
445             	3.27535999e+02
446             	3.27537921e+02
447             	3.27539867e+02
448             	3.27541832e+02
449             	3.27543779e+02
450             	3.27545686e+02
451             	3.27547348e+02
452             	3.27549073e+02
453             	3.27550792e+02
454             	3.27552639e+02
455             	3.27554406e+02
456             	3.27556169e+02
457             	3.27558206e+02
458             	3.27560236e+02
459             	3.27562319e+02
460             	3.27564522e+02
461             	3.27566845e+02
462             	3.27568949e+02
463             	3.27571253e+02
464             	3.27573648e+02
465             	3.27576043e+02
466             	3.27578406e+02
467             	3.27580749e+02
468             	3.27583086e+02
469             	3.27585439e+02
470             	3.27587772e+02
471             	3.27590049e+02
472             	3.27592260e+02
473             	3.27594407e+02
474             	3.27596346e+02
475             	3.27598355e+02
476             	3.27600370e+02
477             	3.27602338e+02
478             	3.27604258e+02
479             	3.27606139e+02
480             	3.27608025e+02
481             	3.27609948e+02
482             	3.27611903e+02
483             	3.27613928e+02
484             	3.27616209e+02
485             	3.27618341e+02
486             	3.27620456e+02
487             	3.27622635e+02
488             	3.27624786e+02
489             	3.27626960e+02
490             	3.27629153e+02
491             	3.27631317e+02
492             	3.27633432e+02
493             	3.27635501e+02
494             	3.27637402e+02
495             	3.27639005e+02
496             	3.27640649e+02
497             	3.27642254e+02
498             	3.27643775e+02
499             	3.27645197e+02
500             	3.27646568e+02
501             	3.27647946e+02
502             	3.27649676e+02
503             	3.27651262e+02
504             	3.27652843e+02
505             	3.27654519e+02
506             	3.27656288e+02
507             	3.27658094e+02
508             	3.27659930e+02
509             	3.27661789e+02
510             	3.27663652e+02
511             	3.27665493e+02
512             	3.27667344e+02
513             	3.27669227e+02
514             	3.27671557e+02
515             	3.27673539e+02
516             	3.27675398e+02
517             	3.27677300e+02
518             	3.27679196e+02
519             	3.27681199e+02
520             	3.27682916e+02
521             	3.27684726e+02
522             	3.27686523e+02
523             	3.27688239e+02
524             	3.27689670e+02
525             	3.27690939e+02
526             	3.27691714e+02
527             	3.27692871e+02
528             	3.27694886e+02
529             	3.27696298e+02
530             	3.27697484e+02
531             	3.27698829e+02
532             	3.27700287e+02
533             	3.27701905e+02
534             	3.27704009e+02
535             	3.27705948e+02
536             	3.27707827e+02
537             	3.27709739e+02
538             	3.27711270e+02
539             	3.27713046e+02
540             	3.27714719e+02
541             	3.27716334e+02
542             	3.27717940e+02
543             	3.27719610e+02
544             	3.27721067e+02
545             	3.27722470e+02
546             	3.27723907e+02
547             	3.27725397e+02
548             	3.27726873e+02
549             	3.27728209e+02
550             	3.27729278e+02
551             	3.27730541e+02
552             	3.27731996e+02
553             	3.27733279e+02
554             	3.27734471e+02
555             	3.27735761e+02
556             	3.27737263e+02
557             	3.27738750e+02
558             	3.27740307e+02
559             	3.27742030e+02
560             	3.27743843e+02
561             	3.27745507e+02
562             	3.27747217e+02
563             	3.27748964e+02
564             	3.27750228e+02
565             	3.27751761e+02
566             	3.27753469e+02
567             	3.27755196e+02
568             	3.27756938e+02
569             	3.27759164e+02
570             	3.27761088e+02
571             	3.27762949e+02
572             	3.27764961e+02
573             	3.27767045e+02
574             	3.27769150e+02
575             	3.27771239e+02
576             	3.27773156e+02
577             	3.27775090e+02
578             	3.27776988e+02
579             	3.27778816e+02
580             	3.27780548e+02
581             	3.27782198e+02
582             	3.27783796e+02
583             	3.27785340e+02
584             	3.27786821e+02
585             	3.27788241e+02
586             	3.27789586e+02
587             	3.27790872e+02
588             	3.27792077e+02
589             	3.27792807e+02
590             	3.27793823e+02
591             	3.27794936e+02
592             	3.27796005e+02
593             	3.27797225e+02
594             	3.27798507e+02
595             	3.27799641e+02
596             	3.27800804e+02
597             	3.27802048e+02
598             	3.27803514e+02
599             	3.27804929e+02
600             	3.27806318e+02
601             	3.27807912e+02
602             	3.27809382e+02
603             	3.27810798e+02
604             	3.27812221e+02
605             	3.27813496e+02
606             	3.27814836e+02
607             	3.27816187e+02
608             	3.27817506e+02
609             	3.27818630e+02
610             	3.27819828e+02
611             	3.27821054e+02
612             	3.27822267e+02
613             	3.27823392e+02
614             	3.27824560e+02
615             	3.27825538e+02
616             	3.27826638e+02
617             	3.27827845e+02
618             	3.27829284e+02
619             	3.27830542e+02
620             	3.27831793e+02
621             	3.27833153e+02
