# Region        : cellZone component_2
# Cells         : 64
# Volume        : 1.12389365e-01
# Time          	volAverage(T)
1               	3.00613454e+02
2               	3.01220626e+02
3               	3.01786150e+02
4               	3.02329003e+02
5               	3.02866225e+02
6               	3.03397855e+02
7               	3.03925617e+02
8               	3.04448012e+02
9               	3.04967480e+02
10              	3.05483990e+02
11              	3.05997239e+02
12              	3.06504529e+02
13              	3.07009318e+02
14              	3.07504733e+02
15              	3.07998274e+02
16              	3.08478487e+02
17              	3.08942377e+02
18              	3.09399629e+02
19              	3.09855778e+02
20              	3.10310270e+02
21              	3.10770247e+02
22              	3.11225670e+02
23              	3.11674594e+02
24              	3.12115544e+02
25              	3.12547152e+02
26              	3.12979894e+02
27              	3.13400748e+02
28              	3.13827875e+02
29              	3.14253511e+02
30              	3.14675964e+02
31              	3.15094145e+02
32              	3.15503164e+02
33              	3.15906470e+02
34              	3.16303955e+02
35              	3.16695476e+02
36              	3.17072090e+02
37              	3.17444190e+02
38              	3.17798981e+02
39              	3.18160946e+02
40              	3.18510831e+02
41              	3.18862040e+02
42              	3.19212813e+02
43              	3.19563527e+02
44              	3.19911847e+02
45              	3.20259944e+02
46              	3.20607319e+02
47              	3.20954561e+02
48              	3.21301057e+02
49              	3.21646123e+02
50              	3.21987115e+02
51              	3.22327580e+02
52              	3.22667706e+02
53              	3.23005680e+02
54              	3.23342134e+02
55              	3.23670564e+02
56              	3.23990796e+02
57              	3.24307032e+02
58              	3.24614428e+02
59              	3.24905434e+02
60              	3.25193103e+02
61              	3.25468737e+02
62              	3.25745765e+02
63              	3.26020850e+02
64              	3.26294168e+02
65              	3.26567230e+02
66              	3.26840872e+02
67              	3.27114831e+02
68              	3.27386797e+02
69              	3.27657605e+02
70              	3.27924115e+02
71              	3.28187968e+02
72              	3.28447741e+02
73              	3.28697490e+02
74              	3.28940606e+02
75              	3.29179228e+02
76              	3.29411212e+02
77              	3.29636889e+02
78              	3.29855156e+02
79              	3.30065867e+02
80              	3.30273633e+02
81              	3.30480375e+02
82              	3.30686678e+02
83              	3.30896080e+02
84              	3.31107540e+02
85              	3.31319617e+02
86              	3.31523305e+02
87              	3.31726789e+02
88              	3.31919569e+02
89              	3.32109919e+02
90              	3.32292482e+02
91              	3.32468969e+02
92              	3.32642857e+02
93              	3.32814185e+02
94              	3.32983694e+02
95              	3.33151194e+02
96              	3.33314759e+02
97              	3.33481600e+02
98              	3.33644052e+02
99              	3.33810028e+02
100             	3.33982691e+02
101             	3.34149553e+02
102             	3.34311106e+02
103             	3.34474336e+02
104             	3.34627455e+02
105             	3.34773765e+02
106             	3.34919286e+02
107             	3.35063391e+02
108             	3.35207172e+02
109             	3.35353376e+02
110             	3.35498031e+02
111             	3.35640398e+02
112             	3.35787371e+02
113             	3.35936667e+02
114             	3.36085152e+02
115             	3.36231402e+02
116             	3.36374831e+02
117             	3.36515174e+02
118             	3.36652500e+02
119             	3.36788214e+02
120             	3.36922034e+02
121             	3.37052008e+02
122             	3.37176620e+02
123             	3.37297826e+02
124             	3.37415842e+02
125             	3.37532884e+02
126             	3.37646492e+02
127             	3.37759618e+02
128             	3.37871827e+02
129             	3.37983993e+02
130             	3.38095614e+02
131             	3.38205485e+02
132             	3.38312590e+02
133             	3.38418177e+02
134             	3.38521321e+02
135             	3.38622165e+02
136             	3.38716653e+02
137             	3.38809645e+02
138             	3.38900340e+02
139             	3.38987820e+02
140             	3.39073952e+02
141             	3.39158579e+02
142             	3.39241354e+02
143             	3.39323070e+02
144             	3.39403630e+02
145             	3.39484552e+02
146             	3.39565755e+02
147             	3.39646371e+02
148             	3.39726201e+02
149             	3.39803470e+02
150             	3.39880939e+02
151             	3.39957148e+02
152             	3.40031388e+02
153             	3.40101545e+02
154             	3.40169313e+02
155             	3.40236234e+02
156             	3.40300320e+02
157             	3.40362798e+02
158             	3.40422893e+02
159             	3.40482737e+02
160             	3.40541856e+02
161             	3.40600893e+02
162             	3.40659570e+02
163             	3.40717868e+02
164             	3.40775012e+02
165             	3.40831457e+02
166             	3.40887347e+02
167             	3.40941361e+02
168             	3.40993740e+02
169             	3.41045030e+02
170             	3.41095050e+02
171             	3.41144623e+02
172             	3.41192640e+02
173             	3.41239820e+02
174             	3.41285329e+02
175             	3.41330037e+02
176             	3.41373317e+02
177             	3.41414864e+02
178             	3.41455227e+02
179             	3.41494810e+02
180             	3.41533599e+02
181             	3.41571613e+02
182             	3.41608832e+02
183             	3.41645402e+02
184             	3.41681202e+02
185             	3.41716330e+02
186             	3.41750649e+02
187             	3.41784155e+02
188             	3.41817191e+02
189             	3.41849991e+02
190             	3.41882725e+02
191             	3.41914239e+02
192             	3.41945916e+02
193             	3.41976741e+02
194             	3.42006858e+02
195             	3.42036098e+02
196             	3.42064375e+02
197             	3.42091525e+02
198             	3.42117883e+02
199             	3.42143713e+02
200             	3.42168845e+02
201             	3.42193317e+02
202             	3.42217006e+02
203             	3.42240153e+02
204             	3.42262755e+02
205             	3.42285161e+02
206             	3.42307241e+02
207             	3.42328687e+02
208             	3.42349936e+02
209             	3.42370615e+02
210             	3.42391118e+02
211             	3.42411179e+02
212             	3.42430962e+02
213             	3.42450224e+02
214             	3.42469064e+02
215             	3.42487214e+02
216             	3.42504792e+02
217             	3.42521643e+02
218             	3.42537952e+02
219             	3.42553684e+02
220             	3.42568917e+02
221             	3.42583667e+02
222             	3.42598043e+02
223             	3.42611721e+02
224             	3.42625403e+02
225             	3.42638401e+02
226             	3.42651428e+02
227             	3.42663796e+02
228             	3.42676199e+02
229             	3.42688029e+02
230             	3.42700041e+02
231             	3.42711324e+02
232             	3.42722688e+02
233             	3.42733285e+02
234             	3.42744019e+02
235             	3.42754032e+02
236             	3.42764242e+02
237             	3.42773920e+02
238             	3.42783766e+02
239             	3.42792925e+02
240             	3.42802119e+02
241             	3.42810649e+02
242             	3.42819122e+02
243             	3.42826920e+02
244             	3.42834441e+02
245             	3.42841245e+02
246             	3.42847799e+02
247             	3.42854275e+02
248             	3.42860426e+02
249             	3.42866537e+02
250             	3.42872146e+02
251             	3.42877672e+02
252             	3.42883047e+02
253             	3.42888844e+02
254             	3.42894347e+02
255             	3.42899761e+02
256             	3.42904863e+02
257             	3.42909967e+02
258             	3.42914847e+02
259             	3.42919425e+02
260             	3.42923610e+02
261             	3.42927838e+02
262             	3.42931407e+02
263             	3.42935077e+02
264             	3.42938280e+02
265             	3.42941612e+02
266             	3.42944646e+02
267             	3.42947748e+02
268             	3.42950538e+02
269             	3.42953287e+02
270             	3.42955690e+02
271             	3.42958113e+02
272             	3.42960236e+02
273             	3.42962389e+02
274             	3.42964416e+02
275             	3.42966479e+02
276             	3.42968416e+02
277             	3.42970342e+02
278             	3.42972076e+02
279             	3.42973736e+02
280             	3.42975167e+02
281             	3.42976533e+02
282             	3.42977729e+02
283             	3.42978942e+02
284             	3.42980217e+02
285             	3.42981327e+02
286             	3.42982399e+02
287             	3.42983417e+02
288             	3.42984394e+02
289             	3.42985264e+02
290             	3.42986040e+02
291             	3.42986794e+02
292             	3.42987457e+02
293             	3.42988070e+02
294             	3.42988506e+02
295             	3.42988751e+02
296             	3.42989129e+02
297             	3.42989238e+02
298             	3.42989365e+02
299             	3.42989404e+02
300             	3.42989376e+02
301             	3.42989293e+02
302             	3.42989196e+02
303             	3.42989200e+02
304             	3.42989432e+02
305             	3.42989665e+02
306             	3.42989839e+02
307             	3.42990048e+02
308             	3.42990199e+02
309             	3.42990352e+02
310             	3.42990357e+02
311             	3.42990120e+02
312             	3.42989792e+02
313             	3.42989535e+02
314             	3.42989158e+02
315             	3.42988772e+02
316             	3.42988308e+02
317             	3.42987876e+02
318             	3.42987331e+02
319             	3.42986914e+02
320             	3.42986632e+02
321             	3.42986256e+02
322             	3.42986251e+02
323             	3.42985839e+02
324             	3.42985779e+02
325             	3.42985355e+02
326             	3.42985252e+02
327             	3.42984956e+02
328             	3.42984907e+02
329             	3.42984630e+02
330             	3.42984321e+02
331             	3.42983742e+02
332             	3.42983369e+02
333             	3.42982723e+02
334             	3.42982246e+02
335             	3.42981547e+02
336             	3.42981005e+02
337             	3.42980320e+02
338             	3.42979877e+02
339             	3.42979202e+02
340             	3.42978848e+02
341             	3.42978459e+02
342             	3.42978148e+02
343             	3.42977799e+02
344             	3.42977544e+02
345             	3.42977269e+02
346             	3.42977051e+02
347             	3.42976786e+02
348             	3.42976579e+02
349             	3.42976357e+02
350             	3.42976164e+02
351             	3.42975853e+02
352             	3.42975495e+02
353             	3.42975178e+02
354             	3.42974800e+02
355             	3.42974441e+02
356             	3.42974024e+02
357             	3.42973627e+02
358             	3.42973216e+02
359             	3.42972858e+02
360             	3.42972493e+02
361             	3.42972208e+02
362             	3.42971905e+02
363             	3.42971658e+02
364             	3.42971403e+02
365             	3.42971197e+02
366             	3.42970983e+02
367             	3.42970808e+02
368             	3.42970622e+02
369             	3.42970452e+02
370             	3.42970263e+02
371             	3.42970088e+02
372             	3.42969904e+02
373             	3.42969717e+02
374             	3.42969519e+02
375             	3.42969304e+02
376             	3.42969081e+02
377             	3.42968837e+02
378             	3.42968600e+02
379             	3.42968374e+02
380             	3.42968176e+02
381             	3.42968021e+02
382             	3.42967897e+02
383             	3.42967783e+02
384             	3.42967681e+02
385             	3.42967581e+02
386             	3.42967475e+02
387             	3.42967364e+02
388             	3.42967248e+02
389             	3.42967136e+02
390             	3.42967033e+02
391             	3.42966920e+02
392             	3.42966830e+02
393             	3.42966745e+02
394             	3.42966679e+02
395             	3.42966621e+02
396             	3.42966579e+02
397             	3.42966545e+02
398             	3.42966525e+02
399             	3.42966507e+02
400             	3.42966509e+02
401             	3.42966516e+02
402             	3.42966538e+02
403             	3.42966565e+02
404             	3.42966603e+02
405             	3.42966640e+02
406             	3.42966684e+02
407             	3.42966731e+02
408             	3.42966778e+02
409             	3.42966829e+02
410             	3.42966877e+02
411             	3.42966911e+02
412             	3.42966945e+02
413             	3.42966980e+02
414             	3.42967014e+02
415             	3.42967041e+02
416             	3.42967071e+02
417             	3.42967103e+02
418             	3.42967138e+02
419             	3.42967180e+02
420             	3.42967221e+02
421             	3.42967273e+02
422             	3.42967322e+02
423             	3.42967373e+02
424             	3.42967407e+02
425             	3.42967454e+02
426             	3.42967486e+02
427             	3.42967529e+02
428             	3.42967563e+02
429             	3.42967611e+02
430             	3.42967654e+02
431             	3.42967711e+02
432             	3.42967765e+02
433             	3.42967829e+02
434             	3.42967883e+02
435             	3.42967943e+02
436             	3.42967989e+02
437             	3.42968035e+02
438             	3.42968066e+02
439             	3.42968077e+02
440             	3.42968086e+02
441             	3.42968111e+02
442             	3.42968133e+02
443             	3.42968179e+02
444             	3.42968225e+02
445             	3.42968299e+02
446             	3.42968371e+02
447             	3.42968474e+02
448             	3.42968591e+02
449             	3.42968710e+02
450             	3.42968835e+02
451             	3.42968959e+02
452             	3.42969083e+02
453             	3.42969192e+02
454             	3.42969318e+02
455             	3.42969434e+02
456             	3.42969568e+02
457             	3.42969700e+02
458             	3.42969844e+02
459             	3.42969975e+02
460             	3.42970116e+02
461             	3.42970244e+02
462             	3.42970373e+02
463             	3.42970488e+02
464             	3.42970609e+02
465             	3.42970720e+02
466             	3.42970838e+02
467             	3.42970953e+02
468             	3.42971073e+02
469             	3.42971193e+02
470             	3.42971321e+02
471             	3.42971448e+02
472             	3.42971581e+02
473             	3.42971720e+02
474             	3.42971862e+02
475             	3.42971999e+02
476             	3.42972137e+02
477             	3.42972271e+02
478             	3.42972405e+02
479             	3.42972528e+02
480             	3.42972648e+02
481             	3.42972767e+02
482             	3.42972887e+02
483             	3.42973011e+02
484             	3.42973138e+02
485             	3.42973270e+02
486             	3.42973406e+02
487             	3.42973552e+02
488             	3.42973697e+02
489             	3.42973845e+02
490             	3.42973991e+02
491             	3.42974137e+02
492             	3.42974278e+02
493             	3.42974417e+02
494             	3.42974550e+02
495             	3.42974682e+02
496             	3.42974808e+02
497             	3.42974929e+02
498             	3.42975055e+02
499             	3.42975172e+02
500             	3.42975294e+02
501             	3.42975409e+02
502             	3.42975528e+02
503             	3.42975639e+02
504             	3.42975755e+02
505             	3.42975862e+02
506             	3.42975974e+02
507             	3.42976077e+02
508             	3.42976182e+02
509             	3.42976279e+02
510             	3.42976376e+02
511             	3.42976459e+02
512             	3.42976559e+02
513             	3.42976646e+02
514             	3.42976752e+02
515             	3.42976848e+02
516             	3.42976964e+02
517             	3.42977074e+02
518             	3.42977199e+02
519             	3.42977318e+02
520             	3.42977459e+02
521             	3.42977594e+02
522             	3.42977745e+02
523             	3.42977893e+02
524             	3.42978055e+02
525             	3.42978217e+02
526             	3.42978394e+02
527             	3.42978570e+02
528             	3.42978759e+02
529             	3.42978946e+02
530             	3.42979144e+02
531             	3.42979319e+02
532             	3.42979503e+02
533             	3.42979687e+02
534             	3.42979874e+02
535             	3.42980050e+02
536             	3.42980227e+02
537             	3.42980389e+02
538             	3.42980547e+02
539             	3.42980692e+02
540             	3.42980834e+02
541             	3.42980961e+02
542             	3.42981087e+02
543             	3.42981192e+02
544             	3.42981308e+02
545             	3.42981410e+02
546             	3.42981519e+02
547             	3.42981616e+02
548             	3.42981717e+02
549             	3.42981811e+02
550             	3.42981911e+02
551             	3.42982002e+02
552             	3.42982100e+02
553             	3.42982188e+02
554             	3.42982287e+02
555             	3.42982378e+02
556             	3.42982479e+02
557             	3.42982572e+02
558             	3.42982674e+02
559             	3.42982774e+02
560             	3.42982881e+02
561             	3.42982985e+02
562             	3.42983097e+02
563             	3.42983207e+02
564             	3.42983326e+02
565             	3.42983444e+02
566             	3.42983567e+02
567             	3.42983694e+02
568             	3.42983823e+02
569             	3.42983954e+02
570             	3.42984089e+02
571             	3.42984228e+02
572             	3.42984371e+02
573             	3.42984519e+02
574             	3.42984668e+02
575             	3.42984821e+02
576             	3.42984972e+02
577             	3.42985129e+02
578             	3.42985284e+02
579             	3.42985441e+02
580             	3.42985594e+02
581             	3.42985748e+02
582             	3.42985896e+02
583             	3.42986042e+02
584             	3.42986183e+02
585             	3.42986321e+02
586             	3.42986454e+02
587             	3.42986584e+02
588             	3.42986708e+02
589             	3.42986828e+02
590             	3.42986944e+02
591             	3.42987055e+02
592             	3.42987161e+02
593             	3.42987262e+02
594             	3.42987359e+02
595             	3.42987450e+02
596             	3.42987533e+02
597             	3.42987614e+02
598             	3.42987693e+02
599             	3.42987770e+02
600             	3.42987847e+02
601             	3.42987924e+02
602             	3.42988002e+02
603             	3.42988080e+02
604             	3.42988161e+02
605             	3.42988241e+02
606             	3.42988323e+02
607             	3.42988406e+02
608             	3.42988490e+02
609             	3.42988566e+02
610             	3.42988647e+02
611             	3.42988729e+02
612             	3.42988809e+02
613             	3.42988890e+02
614             	3.42988969e+02
615             	3.42989048e+02
616             	3.42989122e+02
617             	3.42989199e+02
618             	3.42989277e+02
619             	3.42989360e+02
620             	3.42989446e+02
621             	3.42989539e+02
