# Region        : cellZone component_4
# Cells         : 56
# Volume        : 8.41303983e-02
# Time          	volAverage(T)
1               	3.00363091e+02
2               	3.00721520e+02
3               	3.01054457e+02
4               	3.01369880e+02
5               	3.01682409e+02
6               	3.01989811e+02
7               	3.02291517e+02
8               	3.02588302e+02
9               	3.02881102e+02
10              	3.03167236e+02
11              	3.03452450e+02
12              	3.03737011e+02
13              	3.04016355e+02
14              	3.04289443e+02
15              	3.04553452e+02
16              	3.04805522e+02
17              	3.05048411e+02
18              	3.05286763e+02
19              	3.05513582e+02
20              	3.05728650e+02
21              	3.05928929e+02
22              	3.06143420e+02
23              	3.06357179e+02
24              	3.06568460e+02
25              	3.06777794e+02
26              	3.06985835e+02
27              	3.07195625e+02
28              	3.07395967e+02
29              	3.07604049e+02
30              	3.07806040e+02
31              	3.08001644e+02
32              	3.08202359e+02
33              	3.08386449e+02
34              	3.08553202e+02
35              	3.08705522e+02
36              	3.08847300e+02
37              	3.08981137e+02
38              	3.09123366e+02
39              	3.09280334e+02
40              	3.09447593e+02
41              	3.09623412e+02
42              	3.09804510e+02
43              	3.09987753e+02
44              	3.10162537e+02
45              	3.10333642e+02
46              	3.10495217e+02
47              	3.10649310e+02
48              	3.10802582e+02
49              	3.10954447e+02
50              	3.11101947e+02
51              	3.11250582e+02
52              	3.11397872e+02
53              	3.11529163e+02
54              	3.11641366e+02
55              	3.11731767e+02
56              	3.11819081e+02
57              	3.11906220e+02
58              	3.12004986e+02
59              	3.12108315e+02
60              	3.12213494e+02
61              	3.12315668e+02
62              	3.12413073e+02
63              	3.12503732e+02
64              	3.12590861e+02
65              	3.12683288e+02
66              	3.12773418e+02
67              	3.12862063e+02
68              	3.12952052e+02
69              	3.13045777e+02
70              	3.13143466e+02
71              	3.13243337e+02
72              	3.13320610e+02
73              	3.13379507e+02
74              	3.13448204e+02
75              	3.13507818e+02
76              	3.13566243e+02
77              	3.13618481e+02
78              	3.13669813e+02
79              	3.13723879e+02
80              	3.13782327e+02
81              	3.13849980e+02
82              	3.13925271e+02
83              	3.14007703e+02
84              	3.14094120e+02
85              	3.14178330e+02
86              	3.14249635e+02
87              	3.14306754e+02
88              	3.14354321e+02
89              	3.14400098e+02
90              	3.14438105e+02
91              	3.14467415e+02
92              	3.14495531e+02
93              	3.14515836e+02
94              	3.14532597e+02
95              	3.14547243e+02
96              	3.14561643e+02
97              	3.14574787e+02
98              	3.14594211e+02
99              	3.14622267e+02
100             	3.14654970e+02
101             	3.14689689e+02
102             	3.14722985e+02
103             	3.14756651e+02
104             	3.14785316e+02
105             	3.14814521e+02
106             	3.14842669e+02
107             	3.14867436e+02
108             	3.14888829e+02
109             	3.14895513e+02
110             	3.14902959e+02
111             	3.14908194e+02
112             	3.14907626e+02
113             	3.14907551e+02
114             	3.14901693e+02
115             	3.14902369e+02
116             	3.14912531e+02
117             	3.14929657e+02
118             	3.14955413e+02
119             	3.14986808e+02
120             	3.15018475e+02
121             	3.15059544e+02
122             	3.15098957e+02
123             	3.15122011e+02
124             	3.15155187e+02
125             	3.15177951e+02
126             	3.15183694e+02
127             	3.15177021e+02
128             	3.15162191e+02
129             	3.15146981e+02
130             	3.15131018e+02
131             	3.15128684e+02
132             	3.15137094e+02
133             	3.15161136e+02
134             	3.15183118e+02
135             	3.15193631e+02
136             	3.15186468e+02
137             	3.15171919e+02
138             	3.15165320e+02
139             	3.15160033e+02
140             	3.15149589e+02
141             	3.15130701e+02
142             	3.15104864e+02
143             	3.15076776e+02
144             	3.15050236e+02
145             	3.15038283e+02
146             	3.15039493e+02
147             	3.15055328e+02
148             	3.15069147e+02
149             	3.15076381e+02
150             	3.15071092e+02
151             	3.15063266e+02
152             	3.15067843e+02
153             	3.15066870e+02
154             	3.15053077e+02
155             	3.15030479e+02
156             	3.15007041e+02
157             	3.14982852e+02
158             	3.14967370e+02
159             	3.14956788e+02
160             	3.14952830e+02
161             	3.14947906e+02
162             	3.14946621e+02
163             	3.14954278e+02
164             	3.14972111e+02
165             	3.14993057e+02
166             	3.15011070e+02
167             	3.15027033e+02
168             	3.15040652e+02
169             	3.15050210e+02
170             	3.15059211e+02
171             	3.15067807e+02
172             	3.15070818e+02
173             	3.15073489e+02
174             	3.15076041e+02
175             	3.15078432e+02
176             	3.15083586e+02
177             	3.15087614e+02
178             	3.15096210e+02
179             	3.15107786e+02
180             	3.15123359e+02
181             	3.15142031e+02
182             	3.15162834e+02
183             	3.15179046e+02
184             	3.15199399e+02
185             	3.15220260e+02
186             	3.15239160e+02
187             	3.15255954e+02
188             	3.15270363e+02
189             	3.15282851e+02
190             	3.15295961e+02
191             	3.15309465e+02
192             	3.15324248e+02
193             	3.15341160e+02
194             	3.15359369e+02
195             	3.15369394e+02
196             	3.15383448e+02
197             	3.15398997e+02
198             	3.15413437e+02
199             	3.15427015e+02
200             	3.15438741e+02
201             	3.15451901e+02
202             	3.15464785e+02
203             	3.15476120e+02
204             	3.15490169e+02
205             	3.15506681e+02
206             	3.15520374e+02
207             	3.15539134e+02
208             	3.15561105e+02
209             	3.15583874e+02
210             	3.15604924e+02
211             	3.15621536e+02
212             	3.15634113e+02
213             	3.15645283e+02
214             	3.15654205e+02
215             	3.15658779e+02
216             	3.15660859e+02
217             	3.15662147e+02
218             	3.15664790e+02
219             	3.15667032e+02
220             	3.15670554e+02
221             	3.15675575e+02
222             	3.15683214e+02
223             	3.15692184e+02
224             	3.15703635e+02
225             	3.15717535e+02
226             	3.15732350e+02
227             	3.15746254e+02
228             	3.15760888e+02
229             	3.15774573e+02
230             	3.15786543e+02
231             	3.15797666e+02
232             	3.15807830e+02
233             	3.15816621e+02
234             	3.15825307e+02
235             	3.15832244e+02
236             	3.15838447e+02
237             	3.15844588e+02
238             	3.15850904e+02
239             	3.15858734e+02
240             	3.15868492e+02
241             	3.15877734e+02
242             	3.15889657e+02
243             	3.15903254e+02
244             	3.15918011e+02
245             	3.15932867e+02
246             	3.15947866e+02
247             	3.15959326e+02
248             	3.15971016e+02
249             	3.15981552e+02
250             	3.15990409e+02
251             	3.15997798e+02
252             	3.16003683e+02
253             	3.16008849e+02
254             	3.16013467e+02
255             	3.16017751e+02
256             	3.16021663e+02
257             	3.16026527e+02
258             	3.16032625e+02
259             	3.16041018e+02
260             	3.16050474e+02
261             	3.16061533e+02
262             	3.16074196e+02
263             	3.16086934e+02
264             	3.16097499e+02
265             	3.16106556e+02
266             	3.16116545e+02
267             	3.16125002e+02
268             	3.16133050e+02
269             	3.16140474e+02
270             	3.16147789e+02
271             	3.16155443e+02
272             	3.16162959e+02
273             	3.16170475e+02
274             	3.16178419e+02
275             	3.16186837e+02
276             	3.16194418e+02
277             	3.16202327e+02
278             	3.16209926e+02
279             	3.16217828e+02
280             	3.16224536e+02
281             	3.16230220e+02
282             	3.16235519e+02
283             	3.16240889e+02
284             	3.16247069e+02
285             	3.16251304e+02
286             	3.16255223e+02
287             	3.16259690e+02
288             	3.16264630e+02
289             	3.16269740e+02
290             	3.16274905e+02
291             	3.16280764e+02
292             	3.16286882e+02
293             	3.16293125e+02
294             	3.16299584e+02
295             	3.16306069e+02
296             	3.16312483e+02
297             	3.16318851e+02
298             	3.16325127e+02
299             	3.16331302e+02
300             	3.16337517e+02
301             	3.16343709e+02
302             	3.16350102e+02
303             	3.16355789e+02
304             	3.16361767e+02
305             	3.16367247e+02
306             	3.16371705e+02
307             	3.16375778e+02
308             	3.16378930e+02
309             	3.16381463e+02
310             	3.16384080e+02
311             	3.16386668e+02
312             	3.16389447e+02
313             	3.16391581e+02
314             	3.16393886e+02
315             	3.16396529e+02
316             	3.16399463e+02
317             	3.16402409e+02
318             	3.16404781e+02
319             	3.16407011e+02
320             	3.16408936e+02
321             	3.16410512e+02
322             	3.16412066e+02
323             	3.16413671e+02
324             	3.16415606e+02
325             	3.16417526e+02
326             	3.16419770e+02
327             	3.16422179e+02
328             	3.16424732e+02
329             	3.16427371e+02
330             	3.16430113e+02
331             	3.16432975e+02
332             	3.16436009e+02
333             	3.16439589e+02
334             	3.16443183e+02
335             	3.16447050e+02
336             	3.16451007e+02
337             	3.16454921e+02
338             	3.16458651e+02
339             	3.16462139e+02
340             	3.16465180e+02
341             	3.16467921e+02
342             	3.16470420e+02
343             	3.16472743e+02
344             	3.16474948e+02
345             	3.16477175e+02
346             	3.16479544e+02
347             	3.16481825e+02
348             	3.16484148e+02
349             	3.16486517e+02
350             	3.16488980e+02
351             	3.16491564e+02
352             	3.16494273e+02
353             	3.16497107e+02
354             	3.16499908e+02
355             	3.16502257e+02
356             	3.16504621e+02
357             	3.16506712e+02
358             	3.16508533e+02
359             	3.16510061e+02
360             	3.16511268e+02
361             	3.16512279e+02
362             	3.16513043e+02
363             	3.16513619e+02
364             	3.16514112e+02
365             	3.16514669e+02
366             	3.16515213e+02
367             	3.16516208e+02
368             	3.16516907e+02
369             	3.16517588e+02
370             	3.16518331e+02
371             	3.16519096e+02
372             	3.16519921e+02
373             	3.16520833e+02
374             	3.16521914e+02
375             	3.16523165e+02
376             	3.16524547e+02
377             	3.16526033e+02
378             	3.16527467e+02
379             	3.16528795e+02
380             	3.16530028e+02
381             	3.16531193e+02
382             	3.16531941e+02
383             	3.16532877e+02
384             	3.16533859e+02
385             	3.16534749e+02
386             	3.16535769e+02
387             	3.16536840e+02
388             	3.16538056e+02
389             	3.16539416e+02
390             	3.16540855e+02
391             	3.16542661e+02
392             	3.16544272e+02
393             	3.16545989e+02
394             	3.16547808e+02
395             	3.16549582e+02
396             	3.16551387e+02
397             	3.16552649e+02
398             	3.16554017e+02
399             	3.16555133e+02
400             	3.16556072e+02
401             	3.16556846e+02
402             	3.16557501e+02
403             	3.16558084e+02
404             	3.16558640e+02
405             	3.16559238e+02
406             	3.16559845e+02
407             	3.16560504e+02
408             	3.16561236e+02
409             	3.16562099e+02
410             	3.16563242e+02
411             	3.16564305e+02
412             	3.16565410e+02
413             	3.16566539e+02
414             	3.16567650e+02
415             	3.16568747e+02
416             	3.16569805e+02
417             	3.16570491e+02
418             	3.16571193e+02
419             	3.16571711e+02
420             	3.16572086e+02
421             	3.16572349e+02
422             	3.16572534e+02
423             	3.16572679e+02
424             	3.16572818e+02
425             	3.16572977e+02
426             	3.16573174e+02
427             	3.16573423e+02
428             	3.16573782e+02
429             	3.16574205e+02
430             	3.16574678e+02
431             	3.16575153e+02
432             	3.16575675e+02
433             	3.16576202e+02
434             	3.16576700e+02
435             	3.16577205e+02
436             	3.16577702e+02
437             	3.16578183e+02
438             	3.16578646e+02
439             	3.16579100e+02
440             	3.16579549e+02
441             	3.16580002e+02
442             	3.16580465e+02
443             	3.16580944e+02
444             	3.16581444e+02
445             	3.16581973e+02
446             	3.16582539e+02
447             	3.16583120e+02
448             	3.16583726e+02
449             	3.16584338e+02
450             	3.16584945e+02
451             	3.16585436e+02
452             	3.16585966e+02
453             	3.16586431e+02
454             	3.16586860e+02
455             	3.16587260e+02
456             	3.16587633e+02
457             	3.16587978e+02
458             	3.16588354e+02
459             	3.16588745e+02
460             	3.16589184e+02
461             	3.16589560e+02
462             	3.16589924e+02
463             	3.16590282e+02
464             	3.16590652e+02
465             	3.16591026e+02
466             	3.16591407e+02
467             	3.16591791e+02
468             	3.16592172e+02
469             	3.16592531e+02
470             	3.16592882e+02
471             	3.16593149e+02
472             	3.16593420e+02
473             	3.16593674e+02
474             	3.16593924e+02
475             	3.16594173e+02
476             	3.16594421e+02
477             	3.16594678e+02
478             	3.16594938e+02
479             	3.16595202e+02
480             	3.16595466e+02
481             	3.16595728e+02
482             	3.16595980e+02
483             	3.16596232e+02
484             	3.16596460e+02
485             	3.16596665e+02
486             	3.16596846e+02
487             	3.16597003e+02
488             	3.16597144e+02
489             	3.16597264e+02
490             	3.16597382e+02
491             	3.16597489e+02
492             	3.16597600e+02
493             	3.16597716e+02
494             	3.16597835e+02
495             	3.16597964e+02
496             	3.16598104e+02
497             	3.16598255e+02
498             	3.16598422e+02
499             	3.16598611e+02
500             	3.16598810e+02
501             	3.16599025e+02
502             	3.16599250e+02
503             	3.16599456e+02
504             	3.16599631e+02
505             	3.16599824e+02
506             	3.16600009e+02
507             	3.16600186e+02
508             	3.16600354e+02
509             	3.16600516e+02
510             	3.16600703e+02
511             	3.16600868e+02
512             	3.16601038e+02
513             	3.16601251e+02
514             	3.16601444e+02
515             	3.16601639e+02
516             	3.16601837e+02
517             	3.16602033e+02
518             	3.16602223e+02
519             	3.16602373e+02
520             	3.16602523e+02
521             	3.16602604e+02
522             	3.16602690e+02
523             	3.16602760e+02
524             	3.16602815e+02
525             	3.16602876e+02
526             	3.16602943e+02
527             	3.16603000e+02
528             	3.16603091e+02
529             	3.16603173e+02
530             	3.16603264e+02
531             	3.16603390e+02
532             	3.16603516e+02
533             	3.16603650e+02
534             	3.16603783e+02
535             	3.16603898e+02
536             	3.16604019e+02
537             	3.16604107e+02
538             	3.16604196e+02
539             	3.16604273e+02
540             	3.16604337e+02
541             	3.16604392e+02
542             	3.16604442e+02
543             	3.16604495e+02
544             	3.16604553e+02
545             	3.16604610e+02
546             	3.16604708e+02
547             	3.16604799e+02
548             	3.16604899e+02
549             	3.16605013e+02
550             	3.16605131e+02
551             	3.16605257e+02
552             	3.16605385e+02
553             	3.16605483e+02
554             	3.16605592e+02
555             	3.16605676e+02
556             	3.16605754e+02
557             	3.16605822e+02
558             	3.16605881e+02
559             	3.16605932e+02
560             	3.16605994e+02
561             	3.16606054e+02
562             	3.16606136e+02
563             	3.16606215e+02
564             	3.16606302e+02
565             	3.16606398e+02
566             	3.16606502e+02
567             	3.16606608e+02
568             	3.16606708e+02
569             	3.16606790e+02
570             	3.16606873e+02
571             	3.16606941e+02
572             	3.16607003e+02
573             	3.16607062e+02
574             	3.16607117e+02
575             	3.16607164e+02
576             	3.16607210e+02
577             	3.16607255e+02
578             	3.16607298e+02
579             	3.16607341e+02
580             	3.16607382e+02
581             	3.16607424e+02
582             	3.16607468e+02
583             	3.16607516e+02
584             	3.16607567e+02
585             	3.16607622e+02
586             	3.16607681e+02
587             	3.16607740e+02
588             	3.16607798e+02
589             	3.16607854e+02
590             	3.16607909e+02
591             	3.16607961e+02
592             	3.16608009e+02
593             	3.16608056e+02
594             	3.16608101e+02
595             	3.16608143e+02
596             	3.16608184e+02
597             	3.16608223e+02
598             	3.16608261e+02
599             	3.16608293e+02
600             	3.16608322e+02
601             	3.16608352e+02
602             	3.16608380e+02
603             	3.16608407e+02
604             	3.16608434e+02
605             	3.16608462e+02
606             	3.16608497e+02
607             	3.16608539e+02
608             	3.16608578e+02
609             	3.16608619e+02
610             	3.16608662e+02
611             	3.16608696e+02
612             	3.16608733e+02
613             	3.16608768e+02
614             	3.16608794e+02
615             	3.16608819e+02
616             	3.16608842e+02
617             	3.16608863e+02
618             	3.16608883e+02
619             	3.16608903e+02
620             	3.16608925e+02
621             	3.16608946e+02
