# Region        : cellZone component_1
# Cells         : 42
# Volume        : 6.48839752e-02
# Time          	volAverage(T)
1               	3.01103389e+02
2               	3.02167366e+02
3               	3.03106856e+02
4               	3.03976319e+02
5               	3.04807617e+02
6               	3.05601919e+02
7               	3.06366390e+02
8               	3.07108406e+02
9               	3.07831609e+02
10              	3.08523324e+02
11              	3.09187828e+02
12              	3.09816907e+02
13              	3.10410503e+02
14              	3.10970397e+02
15              	3.11502501e+02
16              	3.12005774e+02
17              	3.12461041e+02
18              	3.12914133e+02
19              	3.13363247e+02
20              	3.13813856e+02
21              	3.14257501e+02
22              	3.14726582e+02
23              	3.15232950e+02
24              	3.15725070e+02
25              	3.16188488e+02
26              	3.16672500e+02
27              	3.17172451e+02
28              	3.17670008e+02
29              	3.18148097e+02
30              	3.18589263e+02
31              	3.19003728e+02
32              	3.19376806e+02
33              	3.19715171e+02
34              	3.19998338e+02
35              	3.20245004e+02
36              	3.20477898e+02
37              	3.20675591e+02
38              	3.20853543e+02
39              	3.21014995e+02
40              	3.21240323e+02
41              	3.21483512e+02
42              	3.21738555e+02
43              	3.22037464e+02
44              	3.22369435e+02
45              	3.22726804e+02
46              	3.23097430e+02
47              	3.23450601e+02
48              	3.23770390e+02
49              	3.24076393e+02
50              	3.24354726e+02
51              	3.24536204e+02
52              	3.24643441e+02
53              	3.24738376e+02
54              	3.24840792e+02
55              	3.24921333e+02
56              	3.24984079e+02
57              	3.24998386e+02
58              	3.24980729e+02
59              	3.24989201e+02
60              	3.24982638e+02
61              	3.24985735e+02
62              	3.24975885e+02
63              	3.24890126e+02
64              	3.24809344e+02
65              	3.24740232e+02
66              	3.24682438e+02
67              	3.24639551e+02
68              	3.24600536e+02
69              	3.24572719e+02
70              	3.24541439e+02
71              	3.24513817e+02
72              	3.24506304e+02
73              	3.24504526e+02
74              	3.24492982e+02
75              	3.24474369e+02
76              	3.24455529e+02
77              	3.24428876e+02
78              	3.24401622e+02
79              	3.24372473e+02
80              	3.24346319e+02
81              	3.24326776e+02
82              	3.24306107e+02
83              	3.24290619e+02
84              	3.24280328e+02
85              	3.24272348e+02
86              	3.24275625e+02
87              	3.24273859e+02
88              	3.24268173e+02
89              	3.24256739e+02
90              	3.24250119e+02
91              	3.24243441e+02
92              	3.24240846e+02
93              	3.24237250e+02
94              	3.24223826e+02
95              	3.24210938e+02
96              	3.24200661e+02
97              	3.24203659e+02
98              	3.24209664e+02
99              	3.24217572e+02
100             	3.24223146e+02
101             	3.24230105e+02
102             	3.24234184e+02
103             	3.24235855e+02
104             	3.24234890e+02
105             	3.24234096e+02
106             	3.24234022e+02
107             	3.24233787e+02
108             	3.24233618e+02
109             	3.24233106e+02
110             	3.24232679e+02
111             	3.24232663e+02
112             	3.24229653e+02
113             	3.24224244e+02
114             	3.24214546e+02
115             	3.24201164e+02
116             	3.24185419e+02
117             	3.24170695e+02
118             	3.24161243e+02
119             	3.24149061e+02
120             	3.24134729e+02
121             	3.24119608e+02
122             	3.24103218e+02
123             	3.24085879e+02
124             	3.24069496e+02
125             	3.24055226e+02
126             	3.24042404e+02
127             	3.24032703e+02
128             	3.24024711e+02
129             	3.24014308e+02
130             	3.24005495e+02
131             	3.23998473e+02
132             	3.23989784e+02
133             	3.23982049e+02
134             	3.23976299e+02
135             	3.23975650e+02
136             	3.23978054e+02
137             	3.23980643e+02
138             	3.23982764e+02
139             	3.23981787e+02
140             	3.23978109e+02
141             	3.23973601e+02
142             	3.23967813e+02
143             	3.23960977e+02
144             	3.23952139e+02
145             	3.23941614e+02
146             	3.23929743e+02
147             	3.23916946e+02
148             	3.23904374e+02
149             	3.23892521e+02
150             	3.23882648e+02
151             	3.23873398e+02
152             	3.23865616e+02
153             	3.23857815e+02
154             	3.23848913e+02
155             	3.23839030e+02
156             	3.23828946e+02
157             	3.23819356e+02
158             	3.23810756e+02
159             	3.23803261e+02
160             	3.23797214e+02
161             	3.23792192e+02
162             	3.23788000e+02
163             	3.23785894e+02
164             	3.23784619e+02
165             	3.23783908e+02
166             	3.23784173e+02
167             	3.23785357e+02
168             	3.23783068e+02
169             	3.23782187e+02
170             	3.23782273e+02
171             	3.23781630e+02
172             	3.23782047e+02
173             	3.23782581e+02
174             	3.23785166e+02
175             	3.23788963e+02
176             	3.23794065e+02
177             	3.23800928e+02
178             	3.23809623e+02
179             	3.23819575e+02
180             	3.23828472e+02
181             	3.23837009e+02
182             	3.23844453e+02
183             	3.23852071e+02
184             	3.23861073e+02
185             	3.23872595e+02
186             	3.23886087e+02
187             	3.23901846e+02
188             	3.23920067e+02
189             	3.23941055e+02
190             	3.23958539e+02
191             	3.23974085e+02
192             	3.23990229e+02
193             	3.24005436e+02
194             	3.24018856e+02
195             	3.24029238e+02
196             	3.24036238e+02
197             	3.24043913e+02
198             	3.24052000e+02
199             	3.24059266e+02
200             	3.24064982e+02
201             	3.24069412e+02
202             	3.24073281e+02
203             	3.24075625e+02
204             	3.24075801e+02
205             	3.24074504e+02
206             	3.24072166e+02
207             	3.24069360e+02
208             	3.24066080e+02
209             	3.24062362e+02
210             	3.24058410e+02
211             	3.24055234e+02
212             	3.24052635e+02
213             	3.24050032e+02
214             	3.24047937e+02
215             	3.24046093e+02
216             	3.24043664e+02
217             	3.24039682e+02
218             	3.24034749e+02
219             	3.24029002e+02
220             	3.24023707e+02
221             	3.24016964e+02
222             	3.24009636e+02
223             	3.24002203e+02
224             	3.23995248e+02
225             	3.23989191e+02
226             	3.23984541e+02
227             	3.23981652e+02
228             	3.23978700e+02
229             	3.23975676e+02
230             	3.23973012e+02
231             	3.23971002e+02
232             	3.23969662e+02
233             	3.23968634e+02
234             	3.23968169e+02
235             	3.23969824e+02
236             	3.23973502e+02
237             	3.23978703e+02
238             	3.23985876e+02
239             	3.23993590e+02
240             	3.24001103e+02
241             	3.24008637e+02
242             	3.24016797e+02
243             	3.24025338e+02
244             	3.24034071e+02
245             	3.24043101e+02
246             	3.24052230e+02
247             	3.24061200e+02
248             	3.24070533e+02
249             	3.24079071e+02
250             	3.24086945e+02
251             	3.24094304e+02
252             	3.24101551e+02
253             	3.24109541e+02
254             	3.24116750e+02
255             	3.24122900e+02
256             	3.24128501e+02
257             	3.24133828e+02
258             	3.24138742e+02
259             	3.24142337e+02
260             	3.24145765e+02
261             	3.24149859e+02
262             	3.24153611e+02
263             	3.24157124e+02
264             	3.24160746e+02
265             	3.24164986e+02
266             	3.24168701e+02
267             	3.24170363e+02
268             	3.24171949e+02
269             	3.24172925e+02
270             	3.24173011e+02
271             	3.24171576e+02
272             	3.24168762e+02
273             	3.24166176e+02
274             	3.24164995e+02
275             	3.24163309e+02
276             	3.24161132e+02
277             	3.24158867e+02
278             	3.24156764e+02
279             	3.24154111e+02
280             	3.24150285e+02
281             	3.24146286e+02
282             	3.24142178e+02
283             	3.24137892e+02
284             	3.24133241e+02
285             	3.24128649e+02
286             	3.24125060e+02
287             	3.24121601e+02
288             	3.24118418e+02
289             	3.24115612e+02
290             	3.24113871e+02
291             	3.24113261e+02
292             	3.24113302e+02
293             	3.24112684e+02
294             	3.24112378e+02
295             	3.24112143e+02
296             	3.24111853e+02
297             	3.24111102e+02
298             	3.24110089e+02
299             	3.24109785e+02
300             	3.24111033e+02
301             	3.24112561e+02
302             	3.24114515e+02
303             	3.24117058e+02
304             	3.24119777e+02
305             	3.24122520e+02
306             	3.24124681e+02
307             	3.24126526e+02
308             	3.24128217e+02
309             	3.24129546e+02
310             	3.24130729e+02
311             	3.24132210e+02
312             	3.24134380e+02
313             	3.24136626e+02
314             	3.24138980e+02
315             	3.24141625e+02
316             	3.24145235e+02
317             	3.24150013e+02
318             	3.24155338e+02
319             	3.24160322e+02
320             	3.24165232e+02
321             	3.24170467e+02
322             	3.24175508e+02
323             	3.24180140e+02
324             	3.24184689e+02
325             	3.24191031e+02
326             	3.24197646e+02
327             	3.24204250e+02
328             	3.24211364e+02
329             	3.24219784e+02
330             	3.24227961e+02
331             	3.24234421e+02
332             	3.24240105e+02
333             	3.24245050e+02
334             	3.24249337e+02
335             	3.24252566e+02
336             	3.24254315e+02
337             	3.24255135e+02
338             	3.24256451e+02
339             	3.24257404e+02
340             	3.24257828e+02
341             	3.24257751e+02
342             	3.24257376e+02
343             	3.24256828e+02
344             	3.24256181e+02
345             	3.24254553e+02
346             	3.24251600e+02
347             	3.24247924e+02
348             	3.24244166e+02
349             	3.24240336e+02
350             	3.24235782e+02
351             	3.24231426e+02
352             	3.24228859e+02
353             	3.24226677e+02
354             	3.24224847e+02
355             	3.24222989e+02
356             	3.24221017e+02
357             	3.24218969e+02
358             	3.24216936e+02
359             	3.24214993e+02
360             	3.24212719e+02
361             	3.24210306e+02
362             	3.24207757e+02
363             	3.24205176e+02
364             	3.24202819e+02
365             	3.24201104e+02
366             	3.24200263e+02
367             	3.24200230e+02
368             	3.24200035e+02
369             	3.24199886e+02
370             	3.24199621e+02
371             	3.24199322e+02
372             	3.24198724e+02
373             	3.24198104e+02
374             	3.24197813e+02
375             	3.24198274e+02
376             	3.24199401e+02
377             	3.24200461e+02
378             	3.24201933e+02
379             	3.24203382e+02
380             	3.24205073e+02
381             	3.24206949e+02
382             	3.24208796e+02
383             	3.24210790e+02
384             	3.24213049e+02
385             	3.24215481e+02
386             	3.24218004e+02
387             	3.24220705e+02
388             	3.24223509e+02
389             	3.24226262e+02
390             	3.24229131e+02
391             	3.24232493e+02
392             	3.24235634e+02
393             	3.24238650e+02
394             	3.24241554e+02
395             	3.24244199e+02
396             	3.24246431e+02
397             	3.24248346e+02
398             	3.24249969e+02
399             	3.24251233e+02
400             	3.24252499e+02
401             	3.24253482e+02
402             	3.24254185e+02
403             	3.24254268e+02
404             	3.24254278e+02
405             	3.24254118e+02
406             	3.24253738e+02
407             	3.24253167e+02
408             	3.24252268e+02
409             	3.24250922e+02
410             	3.24249508e+02
411             	3.24247964e+02
412             	3.24246349e+02
413             	3.24244799e+02
414             	3.24243151e+02
415             	3.24241396e+02
416             	3.24239619e+02
417             	3.24237817e+02
418             	3.24236060e+02
419             	3.24234343e+02
420             	3.24232662e+02
421             	3.24231123e+02
422             	3.24229669e+02
423             	3.24228276e+02
424             	3.24227116e+02
425             	3.24226171e+02
426             	3.24225541e+02
427             	3.24225055e+02
428             	3.24224769e+02
429             	3.24224555e+02
430             	3.24224424e+02
431             	3.24224378e+02
432             	3.24224411e+02
433             	3.24224459e+02
434             	3.24224763e+02
435             	3.24225162e+02
436             	3.24225692e+02
437             	3.24226375e+02
438             	3.24227233e+02
439             	3.24228291e+02
440             	3.24229431e+02
441             	3.24230624e+02
442             	3.24231847e+02
443             	3.24233107e+02
444             	3.24234409e+02
445             	3.24235822e+02
446             	3.24237348e+02
447             	3.24238972e+02
448             	3.24240779e+02
449             	3.24242547e+02
450             	3.24244327e+02
451             	3.24246017e+02
452             	3.24247613e+02
453             	3.24249160e+02
454             	3.24250624e+02
455             	3.24252005e+02
456             	3.24253304e+02
457             	3.24254520e+02
458             	3.24255650e+02
459             	3.24256691e+02
460             	3.24257608e+02
461             	3.24258392e+02
462             	3.24259037e+02
463             	3.24259537e+02
464             	3.24259887e+02
465             	3.24260084e+02
466             	3.24260109e+02
467             	3.24260031e+02
468             	3.24259789e+02
469             	3.24259414e+02
470             	3.24258932e+02
471             	3.24258347e+02
472             	3.24257711e+02
473             	3.24257033e+02
474             	3.24256270e+02
475             	3.24255506e+02
476             	3.24254740e+02
477             	3.24253968e+02
478             	3.24253162e+02
479             	3.24252334e+02
480             	3.24251498e+02
481             	3.24250673e+02
482             	3.24249898e+02
483             	3.24249169e+02
484             	3.24248485e+02
485             	3.24247840e+02
486             	3.24247229e+02
487             	3.24246642e+02
488             	3.24246115e+02
489             	3.24245653e+02
490             	3.24245261e+02
491             	3.24244938e+02
492             	3.24244669e+02
493             	3.24244458e+02
494             	3.24244324e+02
495             	3.24244276e+02
496             	3.24244311e+02
497             	3.24244426e+02
498             	3.24244616e+02
499             	3.24244881e+02
500             	3.24245217e+02
501             	3.24245621e+02
502             	3.24246091e+02
503             	3.24246626e+02
504             	3.24247231e+02
505             	3.24247909e+02
506             	3.24248656e+02
507             	3.24249469e+02
508             	3.24250312e+02
509             	3.24251187e+02
510             	3.24252128e+02
511             	3.24253106e+02
512             	3.24254112e+02
513             	3.24255139e+02
514             	3.24256191e+02
515             	3.24257274e+02
516             	3.24258359e+02
517             	3.24259433e+02
518             	3.24260480e+02
519             	3.24261508e+02
520             	3.24262500e+02
521             	3.24263444e+02
522             	3.24264285e+02
523             	3.24265015e+02
524             	3.24265625e+02
525             	3.24266116e+02
526             	3.24266545e+02
527             	3.24266866e+02
528             	3.24267119e+02
529             	3.24267296e+02
530             	3.24267383e+02
531             	3.24267271e+02
532             	3.24267112e+02
533             	3.24266872e+02
534             	3.24266541e+02
535             	3.24266126e+02
536             	3.24265636e+02
537             	3.24265072e+02
538             	3.24264432e+02
539             	3.24263737e+02
540             	3.24263004e+02
541             	3.24262226e+02
542             	3.24261427e+02
543             	3.24260698e+02
544             	3.24259943e+02
545             	3.24259189e+02
546             	3.24258463e+02
547             	3.24257769e+02
548             	3.24257181e+02
549             	3.24256618e+02
550             	3.24256070e+02
551             	3.24255627e+02
552             	3.24255264e+02
553             	3.24254957e+02
554             	3.24254735e+02
555             	3.24254571e+02
556             	3.24254449e+02
557             	3.24254390e+02
558             	3.24254372e+02
559             	3.24254409e+02
560             	3.24254551e+02
561             	3.24254697e+02
562             	3.24254891e+02
563             	3.24255168e+02
564             	3.24255455e+02
565             	3.24255774e+02
566             	3.24256135e+02
567             	3.24256545e+02
568             	3.24257006e+02
569             	3.24257534e+02
570             	3.24258162e+02
571             	3.24258825e+02
572             	3.24259344e+02
573             	3.24259957e+02
574             	3.24260619e+02
575             	3.24261296e+02
576             	3.24261924e+02
577             	3.24262586e+02
578             	3.24263422e+02
579             	3.24264208e+02
580             	3.24264964e+02
581             	3.24265652e+02
582             	3.24266297e+02
583             	3.24266910e+02
584             	3.24267500e+02
585             	3.24268075e+02
586             	3.24268651e+02
587             	3.24269223e+02
588             	3.24269743e+02
589             	3.24270258e+02
590             	3.24270683e+02
591             	3.24270962e+02
592             	3.24271286e+02
593             	3.24271559e+02
594             	3.24271727e+02
595             	3.24271862e+02
596             	3.24272203e+02
597             	3.24272414e+02
598             	3.24272516e+02
599             	3.24272595e+02
600             	3.24272578e+02
601             	3.24272369e+02
602             	3.24272177e+02
603             	3.24271780e+02
604             	3.24271305e+02
605             	3.24270841e+02
606             	3.24270506e+02
607             	3.24270232e+02
608             	3.24269944e+02
609             	3.24269610e+02
610             	3.24269458e+02
611             	3.24269468e+02
612             	3.24269405e+02
613             	3.24269188e+02
614             	3.24268892e+02
615             	3.24268555e+02
616             	3.24268219e+02
617             	3.24267975e+02
618             	3.24267763e+02
619             	3.24267235e+02
620             	3.24267009e+02
621             	3.24266990e+02
