# Region        : cellZone pcb
# Cells         : 411
# Volume        : 8.07786609e-01
# Time          	volAverage(T)
1               	3.00037988e+02
2               	3.00110640e+02
3               	3.00213730e+02
4               	3.00342179e+02
5               	3.00480941e+02
6               	3.00633852e+02
7               	3.00805871e+02
8               	3.00996998e+02
9               	3.01209531e+02
10              	3.01449753e+02
11              	3.01702566e+02
12              	3.01975532e+02
13              	3.02261424e+02
14              	3.02552892e+02
15              	3.02841674e+02
16              	3.03140441e+02
17              	3.03443583e+02
18              	3.03752998e+02
19              	3.04058592e+02
20              	3.04363937e+02
21              	3.04687352e+02
22              	3.05029950e+02
23              	3.05375586e+02
24              	3.05729328e+02
25              	3.06087967e+02
26              	3.06469370e+02
27              	3.06868431e+02
28              	3.07258562e+02
29              	3.07642313e+02
30              	3.08001623e+02
31              	3.08359967e+02
32              	3.08749701e+02
33              	3.09115903e+02
34              	3.09488471e+02
35              	3.09867274e+02
36              	3.10255860e+02
37              	3.10625529e+02
38              	3.10994232e+02
39              	3.11342951e+02
40              	3.11694780e+02
41              	3.12037404e+02
42              	3.12382279e+02
43              	3.12708536e+02
44              	3.13023839e+02
45              	3.13350215e+02
46              	3.13679208e+02
47              	3.13996410e+02
48              	3.14309396e+02
49              	3.14638535e+02
50              	3.14952281e+02
51              	3.15270401e+02
52              	3.15565139e+02
53              	3.15834907e+02
54              	3.16123962e+02
55              	3.16422257e+02
56              	3.16713995e+02
57              	3.16995636e+02
58              	3.17276329e+02
59              	3.17576923e+02
60              	3.17883816e+02
61              	3.18190884e+02
62              	3.18522196e+02
63              	3.18839310e+02
64              	3.19119024e+02
65              	3.19378707e+02
66              	3.19639310e+02
67              	3.19907459e+02
68              	3.20182280e+02
69              	3.20452835e+02
70              	3.20738152e+02
71              	3.21009188e+02
72              	3.21265292e+02
73              	3.21509704e+02
74              	3.21741096e+02
75              	3.21972987e+02
76              	3.22190383e+02
77              	3.22410217e+02
78              	3.22642411e+02
79              	3.22892340e+02
80              	3.23151933e+02
81              	3.23386454e+02
82              	3.23609543e+02
83              	3.23818195e+02
84              	3.24021765e+02
85              	3.24219529e+02
86              	3.24409054e+02
87              	3.24597534e+02
88              	3.24784237e+02
89              	3.24974865e+02
90              	3.25163787e+02
91              	3.25359535e+02
92              	3.25541644e+02
93              	3.25725557e+02
94              	3.25889456e+02
95              	3.26040596e+02
96              	3.26199833e+02
97              	3.26348791e+02
98              	3.26494759e+02
99              	3.26651557e+02
100             	3.26804690e+02
101             	3.26953023e+02
102             	3.27107094e+02
103             	3.27256451e+02
104             	3.27400846e+02
105             	3.27539468e+02
106             	3.27675405e+02
107             	3.27806825e+02
108             	3.27921372e+02
109             	3.28025480e+02
110             	3.28126723e+02
111             	3.28236014e+02
112             	3.28353420e+02
113             	3.28459518e+02
114             	3.28558900e+02
115             	3.28665104e+02
116             	3.28774002e+02
117             	3.28882805e+02
118             	3.28979580e+02
119             	3.29071484e+02
120             	3.29165132e+02
121             	3.29259031e+02
122             	3.29350093e+02
123             	3.29454212e+02
124             	3.29563982e+02
125             	3.29666590e+02
126             	3.29742704e+02
127             	3.29817670e+02
128             	3.29892362e+02
129             	3.29967975e+02
130             	3.30036957e+02
131             	3.30107153e+02
132             	3.30177080e+02
133             	3.30249883e+02
134             	3.30318135e+02
135             	3.30389285e+02
136             	3.30471324e+02
137             	3.30545616e+02
138             	3.30597543e+02
139             	3.30643448e+02
140             	3.30693281e+02
141             	3.30749864e+02
142             	3.30803697e+02
143             	3.30854912e+02
144             	3.30904266e+02
145             	3.30955754e+02
146             	3.31004148e+02
147             	3.31053536e+02
148             	3.31100801e+02
149             	3.31157239e+02
150             	3.31210715e+02
151             	3.31247133e+02
152             	3.31273006e+02
153             	3.31303011e+02
154             	3.31334762e+02
155             	3.31367623e+02
156             	3.31402534e+02
157             	3.31436350e+02
158             	3.31474284e+02
159             	3.31513998e+02
160             	3.31549797e+02
161             	3.31581138e+02
162             	3.31612918e+02
163             	3.31643694e+02
164             	3.31671523e+02
165             	3.31692090e+02
166             	3.31712766e+02
167             	3.31734186e+02
168             	3.31752473e+02
169             	3.31771765e+02
170             	3.31795376e+02
171             	3.31819191e+02
172             	3.31840812e+02
173             	3.31859860e+02
174             	3.31877495e+02
175             	3.31898070e+02
176             	3.31918654e+02
177             	3.31938286e+02
178             	3.31958724e+02
179             	3.31982123e+02
180             	3.31998549e+02
181             	3.32010665e+02
182             	3.32022416e+02
183             	3.32034801e+02
184             	3.32047964e+02
185             	3.32061522e+02
186             	3.32074518e+02
187             	3.32087718e+02
188             	3.32102531e+02
189             	3.32117371e+02
190             	3.32131304e+02
191             	3.32148134e+02
192             	3.32165858e+02
193             	3.32173784e+02
194             	3.32178163e+02
195             	3.32182039e+02
196             	3.32187484e+02
197             	3.32194274e+02
198             	3.32201668e+02
199             	3.32207909e+02
200             	3.32217850e+02
201             	3.32228595e+02
202             	3.32238424e+02
203             	3.32245832e+02
204             	3.32251711e+02
205             	3.32259874e+02
206             	3.32262165e+02
207             	3.32260114e+02
208             	3.32258909e+02
209             	3.32260279e+02
210             	3.32263517e+02
211             	3.32265685e+02
212             	3.32269518e+02
213             	3.32276129e+02
214             	3.32283128e+02
215             	3.32287985e+02
216             	3.32289351e+02
217             	3.32290036e+02
218             	3.32292863e+02
219             	3.32295385e+02
220             	3.32291613e+02
221             	3.32288776e+02
222             	3.32286209e+02
223             	3.32283860e+02
224             	3.32283321e+02
225             	3.32284687e+02
226             	3.32285380e+02
227             	3.32284636e+02
228             	3.32284184e+02
229             	3.32286519e+02
230             	3.32290354e+02
231             	3.32293484e+02
232             	3.32295104e+02
233             	3.32296599e+02
234             	3.32294547e+02
235             	3.32289447e+02
236             	3.32284151e+02
237             	3.32279179e+02
238             	3.32274242e+02
239             	3.32269328e+02
240             	3.32264639e+02
241             	3.32260994e+02
242             	3.32259766e+02
243             	3.32257926e+02
244             	3.32254772e+02
245             	3.32251345e+02
246             	3.32247880e+02
247             	3.32244633e+02
248             	3.32241619e+02
249             	3.32238912e+02
250             	3.32236477e+02
251             	3.32234307e+02
252             	3.32231927e+02
253             	3.32230133e+02
254             	3.32229315e+02
255             	3.32228675e+02
256             	3.32227487e+02
257             	3.32224873e+02
258             	3.32220857e+02
259             	3.32215948e+02
260             	3.32210473e+02
261             	3.32204734e+02
262             	3.32199013e+02
263             	3.32193552e+02
264             	3.32188109e+02
265             	3.32182606e+02
266             	3.32177253e+02
267             	3.32172468e+02
268             	3.32168226e+02
269             	3.32164371e+02
270             	3.32160845e+02
271             	3.32157400e+02
272             	3.32153758e+02
273             	3.32149818e+02
274             	3.32145677e+02
275             	3.32141273e+02
276             	3.32137173e+02
277             	3.32132966e+02
278             	3.32128775e+02
279             	3.32124805e+02
280             	3.32121012e+02
281             	3.32117124e+02
282             	3.32112904e+02
283             	3.32108226e+02
284             	3.32103135e+02
285             	3.32097603e+02
286             	3.32091936e+02
287             	3.32086540e+02
288             	3.32081460e+02
289             	3.32076833e+02
290             	3.32072281e+02
291             	3.32068222e+02
292             	3.32064429e+02
293             	3.32060470e+02
294             	3.32056356e+02
295             	3.32051982e+02
296             	3.32047099e+02
297             	3.32042021e+02
298             	3.32036896e+02
299             	3.32031934e+02
300             	3.32026674e+02
301             	3.32021339e+02
302             	3.32016496e+02
303             	3.32012096e+02
304             	3.32007872e+02
305             	3.32003386e+02
306             	3.31998835e+02
307             	3.31994702e+02
308             	3.31990753e+02
309             	3.31986645e+02
310             	3.31982231e+02
311             	3.31977579e+02
312             	3.31973216e+02
313             	3.31969064e+02
314             	3.31964310e+02
315             	3.31959153e+02
316             	3.31954182e+02
317             	3.31949263e+02
318             	3.31944530e+02
319             	3.31940121e+02
320             	3.31935809e+02
321             	3.31931834e+02
322             	3.31927734e+02
323             	3.31923458e+02
324             	3.31919514e+02
325             	3.31915711e+02
326             	3.31911726e+02
327             	3.31907459e+02
328             	3.31902949e+02
329             	3.31898388e+02
330             	3.31893950e+02
331             	3.31889281e+02
332             	3.31884465e+02
333             	3.31879756e+02
334             	3.31875277e+02
335             	3.31871005e+02
336             	3.31866729e+02
337             	3.31862583e+02
338             	3.31858705e+02
339             	3.31855070e+02
340             	3.31851463e+02
341             	3.31847709e+02
342             	3.31843684e+02
343             	3.31839457e+02
344             	3.31835002e+02
345             	3.31830675e+02
346             	3.31826511e+02
347             	3.31822273e+02
348             	3.31818050e+02
349             	3.31814029e+02
350             	3.31810307e+02
351             	3.31806775e+02
352             	3.31803235e+02
353             	3.31799630e+02
354             	3.31795849e+02
355             	3.31792366e+02
356             	3.31788813e+02
357             	3.31785327e+02
358             	3.31781897e+02
359             	3.31778361e+02
360             	3.31774731e+02
361             	3.31770864e+02
362             	3.31767047e+02
363             	3.31763311e+02
364             	3.31759601e+02
365             	3.31755993e+02
366             	3.31752496e+02
367             	3.31749362e+02
368             	3.31746438e+02
369             	3.31743653e+02
370             	3.31740845e+02
371             	3.31737885e+02
372             	3.31734684e+02
373             	3.31731231e+02
374             	3.31727463e+02
375             	3.31723578e+02
376             	3.31719808e+02
377             	3.31716365e+02
378             	3.31713278e+02
379             	3.31710435e+02
380             	3.31707614e+02
381             	3.31704887e+02
382             	3.31702443e+02
383             	3.31699992e+02
384             	3.31697342e+02
385             	3.31694523e+02
386             	3.31691922e+02
387             	3.31688992e+02
388             	3.31685630e+02
389             	3.31682267e+02
390             	3.31679187e+02
391             	3.31676362e+02
392             	3.31673660e+02
393             	3.31670800e+02
394             	3.31668480e+02
395             	3.31666515e+02
396             	3.31664607e+02
397             	3.31662497e+02
398             	3.31660446e+02
399             	3.31658049e+02
400             	3.31655158e+02
401             	3.31651993e+02
402             	3.31648985e+02
403             	3.31646413e+02
404             	3.31644112e+02
405             	3.31641553e+02
406             	3.31639602e+02
407             	3.31638130e+02
408             	3.31636763e+02
409             	3.31635061e+02
410             	3.31632963e+02
411             	3.31631362e+02
412             	3.31628888e+02
413             	3.31626055e+02
414             	3.31623144e+02
415             	3.31620718e+02
416             	3.31618633e+02
417             	3.31616427e+02
418             	3.31614267e+02
419             	3.31612622e+02
420             	3.31611344e+02
421             	3.31610124e+02
422             	3.31608704e+02
423             	3.31607227e+02
424             	3.31605695e+02
425             	3.31603362e+02
426             	3.31600834e+02
427             	3.31598487e+02
428             	3.31596252e+02
429             	3.31594197e+02
430             	3.31592611e+02
431             	3.31591377e+02
432             	3.31590355e+02
433             	3.31589456e+02
434             	3.31588263e+02
435             	3.31586620e+02
436             	3.31584679e+02
437             	3.31582767e+02
438             	3.31580970e+02
439             	3.31579191e+02
440             	3.31577634e+02
441             	3.31575877e+02
442             	3.31574086e+02
443             	3.31572736e+02
444             	3.31571731e+02
445             	3.31570841e+02
446             	3.31569722e+02
447             	3.31568452e+02
448             	3.31567624e+02
449             	3.31567048e+02
450             	3.31566276e+02
451             	3.31565203e+02
452             	3.31563963e+02
453             	3.31562579e+02
454             	3.31560842e+02
455             	3.31559095e+02
456             	3.31557571e+02
457             	3.31555978e+02
458             	3.31554529e+02
459             	3.31553325e+02
460             	3.31552191e+02
461             	3.31551199e+02
462             	3.31550504e+02
463             	3.31549739e+02
464             	3.31549219e+02
465             	3.31548721e+02
466             	3.31548201e+02
467             	3.31547548e+02
468             	3.31546777e+02
469             	3.31545791e+02
470             	3.31544643e+02
471             	3.31543436e+02
472             	3.31542429e+02
473             	3.31541432e+02
474             	3.31540320e+02
475             	3.31539214e+02
476             	3.31538222e+02
477             	3.31537409e+02
478             	3.31536766e+02
479             	3.31536108e+02
480             	3.31535495e+02
481             	3.31534933e+02
482             	3.31534603e+02
483             	3.31534426e+02
484             	3.31534199e+02
485             	3.31533823e+02
486             	3.31533279e+02
487             	3.31532612e+02
488             	3.31531876e+02
489             	3.31531082e+02
490             	3.31530267e+02
491             	3.31529508e+02
492             	3.31528731e+02
493             	3.31528083e+02
494             	3.31527502e+02
495             	3.31527000e+02
496             	3.31526551e+02
497             	3.31526144e+02
498             	3.31525779e+02
499             	3.31525391e+02
500             	3.31525127e+02
501             	3.31524841e+02
502             	3.31524629e+02
503             	3.31524415e+02
504             	3.31524159e+02
505             	3.31523866e+02
506             	3.31523534e+02
507             	3.31523160e+02
508             	3.31522846e+02
509             	3.31522432e+02
510             	3.31521929e+02
511             	3.31521437e+02
512             	3.31520922e+02
513             	3.31520412e+02
514             	3.31520118e+02
515             	3.31519943e+02
516             	3.31519765e+02
517             	3.31519579e+02
518             	3.31519421e+02
519             	3.31519252e+02
520             	3.31519089e+02
521             	3.31518926e+02
522             	3.31518768e+02
523             	3.31518618e+02
524             	3.31518498e+02
525             	3.31518432e+02
526             	3.31518448e+02
527             	3.31518488e+02
528             	3.31518402e+02
529             	3.31518322e+02
530             	3.31518275e+02
531             	3.31518206e+02
532             	3.31518094e+02
533             	3.31517899e+02
534             	3.31517626e+02
535             	3.31517345e+02
536             	3.31517159e+02
537             	3.31516965e+02
538             	3.31516856e+02
539             	3.31516840e+02
540             	3.31516773e+02
541             	3.31516686e+02
542             	3.31516650e+02
543             	3.31516667e+02
544             	3.31516715e+02
545             	3.31516741e+02
546             	3.31516897e+02
547             	3.31516994e+02
548             	3.31517121e+02
549             	3.31517254e+02
550             	3.31517331e+02
551             	3.31517340e+02
552             	3.31517398e+02
553             	3.31517418e+02
554             	3.31517321e+02
555             	3.31517192e+02
556             	3.31517123e+02
557             	3.31517140e+02
558             	3.31517138e+02
559             	3.31517162e+02
560             	3.31517363e+02
561             	3.31517623e+02
562             	3.31517824e+02
563             	3.31517990e+02
564             	3.31518114e+02
565             	3.31518183e+02
566             	3.31518175e+02
567             	3.31518155e+02
568             	3.31518176e+02
569             	3.31518247e+02
570             	3.31518366e+02
571             	3.31518529e+02
572             	3.31518711e+02
573             	3.31518925e+02
574             	3.31519152e+02
575             	3.31519366e+02
576             	3.31519555e+02
577             	3.31519722e+02
578             	3.31519876e+02
579             	3.31520046e+02
580             	3.31520211e+02
581             	3.31520361e+02
582             	3.31520508e+02
583             	3.31520666e+02
584             	3.31520797e+02
585             	3.31520907e+02
586             	3.31521018e+02
587             	3.31521148e+02
588             	3.31521290e+02
589             	3.31521418e+02
590             	3.31521558e+02
591             	3.31521721e+02
592             	3.31521910e+02
593             	3.31522129e+02
594             	3.31522377e+02
595             	3.31522656e+02
596             	3.31522961e+02
597             	3.31523287e+02
598             	3.31523625e+02
599             	3.31523905e+02
600             	3.31524182e+02
601             	3.31524450e+02
602             	3.31524702e+02
603             	3.31524919e+02
604             	3.31525107e+02
605             	3.31525297e+02
606             	3.31525525e+02
607             	3.31525756e+02
608             	3.31525986e+02
609             	3.31526248e+02
610             	3.31526444e+02
611             	3.31526625e+02
612             	3.31526812e+02
613             	3.31527012e+02
614             	3.31527233e+02
615             	3.31527501e+02
616             	3.31527835e+02
617             	3.31528152e+02
618             	3.31528458e+02
619             	3.31528803e+02
620             	3.31529172e+02
621             	3.31529527e+02
