# Region        : cellZone pcb
# Cells         : 467
# Volume        : 8.52796344e-01
# Time          	volAverage(T)
1               	3.00017540e+02
2               	3.00050956e+02
3               	3.00096899e+02
4               	3.00153879e+02
5               	3.00218199e+02
6               	3.00290611e+02
7               	3.00371834e+02
8               	3.00461585e+02
9               	3.00559159e+02
10              	3.00664357e+02
11              	3.00777199e+02
12              	3.00890317e+02
13              	3.01004583e+02
14              	3.01124666e+02
15              	3.01247647e+02
16              	3.01375412e+02
17              	3.01504765e+02
18              	3.01637693e+02
19              	3.01774590e+02
20              	3.01915799e+02
21              	3.02060287e+02
22              	3.02203260e+02
23              	3.02346535e+02
24              	3.02494880e+02
25              	3.02641362e+02
26              	3.02788749e+02
27              	3.02938720e+02
28              	3.03087404e+02
29              	3.03236397e+02
30              	3.03385016e+02
31              	3.03536672e+02
32              	3.03687625e+02
33              	3.03837206e+02
34              	3.03985742e+02
35              	3.04135044e+02
36              	3.04286460e+02
37              	3.04435618e+02
38              	3.04583854e+02
39              	3.04738150e+02
40              	3.04893320e+02
41              	3.05044684e+02
42              	3.05191902e+02
43              	3.05338996e+02
44              	3.05487975e+02
45              	3.05631521e+02
46              	3.05774913e+02
47              	3.05916877e+02
48              	3.06060395e+02
49              	3.06200449e+02
50              	3.06342411e+02
51              	3.06481168e+02
52              	3.06624571e+02
53              	3.06769606e+02
54              	3.06907396e+02
55              	3.07039116e+02
56              	3.07171902e+02
57              	3.07297491e+02
58              	3.07423269e+02
59              	3.07542435e+02
60              	3.07664379e+02
61              	3.07781810e+02
62              	3.07902518e+02
63              	3.08027924e+02
64              	3.08156122e+02
65              	3.08285679e+02
66              	3.08415141e+02
67              	3.08539964e+02
68              	3.08659937e+02
69              	3.08777484e+02
70              	3.08896295e+02
71              	3.09012167e+02
72              	3.09125960e+02
73              	3.09237759e+02
74              	3.09343535e+02
75              	3.09446154e+02
76              	3.09550630e+02
77              	3.09652870e+02
78              	3.09748020e+02
79              	3.09840437e+02
80              	3.09933119e+02
81              	3.10025977e+02
82              	3.10120460e+02
83              	3.10215042e+02
84              	3.10309378e+02
85              	3.10403759e+02
86              	3.10502020e+02
87              	3.10601467e+02
88              	3.10698563e+02
89              	3.10791756e+02
90              	3.10885695e+02
91              	3.10974930e+02
92              	3.11067792e+02
93              	3.11157920e+02
94              	3.11239261e+02
95              	3.11322522e+02
96              	3.11402466e+02
97              	3.11487300e+02
98              	3.11569885e+02
99              	3.11650845e+02
100             	3.11731261e+02
101             	3.11813032e+02
102             	3.11894391e+02
103             	3.11976082e+02
104             	3.12055729e+02
105             	3.12132438e+02
106             	3.12207430e+02
107             	3.12279678e+02
108             	3.12351028e+02
109             	3.12418868e+02
110             	3.12484697e+02
111             	3.12548004e+02
112             	3.12610854e+02
113             	3.12671505e+02
114             	3.12731120e+02
115             	3.12794417e+02
116             	3.12860972e+02
117             	3.12925076e+02
118             	3.12987863e+02
119             	3.13052354e+02
120             	3.13120011e+02
121             	3.13189176e+02
122             	3.13257797e+02
123             	3.13321250e+02
124             	3.13381436e+02
125             	3.13436620e+02
126             	3.13490271e+02
127             	3.13545511e+02
128             	3.13601070e+02
129             	3.13657777e+02
130             	3.13716973e+02
131             	3.13777018e+02
132             	3.13838144e+02
133             	3.13901353e+02
134             	3.13960915e+02
135             	3.14014324e+02
136             	3.14066845e+02
137             	3.14118663e+02
138             	3.14168643e+02
139             	3.14219883e+02
140             	3.14273888e+02
141             	3.14328313e+02
142             	3.14380360e+02
143             	3.14432484e+02
144             	3.14484850e+02
145             	3.14538129e+02
146             	3.14589938e+02
147             	3.14639815e+02
148             	3.14687082e+02
149             	3.14738957e+02
150             	3.14787891e+02
151             	3.14833684e+02
152             	3.14879084e+02
153             	3.14926262e+02
154             	3.14969110e+02
155             	3.15011240e+02
156             	3.15051611e+02
157             	3.15088118e+02
158             	3.15125056e+02
159             	3.15162534e+02
160             	3.15196737e+02
161             	3.15231814e+02
162             	3.15267208e+02
163             	3.15302762e+02
164             	3.15339081e+02
165             	3.15377476e+02
166             	3.15415087e+02
167             	3.15459619e+02
168             	3.15502362e+02
169             	3.15542645e+02
170             	3.15579320e+02
171             	3.15616834e+02
172             	3.15654079e+02
173             	3.15687337e+02
174             	3.15717715e+02
175             	3.15747417e+02
176             	3.15776560e+02
177             	3.15805572e+02
178             	3.15833798e+02
179             	3.15861588e+02
180             	3.15892064e+02
181             	3.15923974e+02
182             	3.15953425e+02
183             	3.15981894e+02
184             	3.16010820e+02
185             	3.16039873e+02
186             	3.16068576e+02
187             	3.16094988e+02
188             	3.16123324e+02
189             	3.16156074e+02
190             	3.16187833e+02
191             	3.16221068e+02
192             	3.16258077e+02
193             	3.16290535e+02
194             	3.16319334e+02
195             	3.16348313e+02
196             	3.16375093e+02
197             	3.16400824e+02
198             	3.16423295e+02
199             	3.16446832e+02
200             	3.16474358e+02
201             	3.16499320e+02
202             	3.16524632e+02
203             	3.16548304e+02
204             	3.16573519e+02
205             	3.16602825e+02
206             	3.16632661e+02
207             	3.16661794e+02
208             	3.16682865e+02
209             	3.16704824e+02
210             	3.16725787e+02
211             	3.16749535e+02
212             	3.16769359e+02
213             	3.16792973e+02
214             	3.16817554e+02
215             	3.16841111e+02
216             	3.16865824e+02
217             	3.16894237e+02
218             	3.16920977e+02
219             	3.16946928e+02
220             	3.16970485e+02
221             	3.16992095e+02
222             	3.17012903e+02
223             	3.17036354e+02
224             	3.17059319e+02
225             	3.17081707e+02
226             	3.17099998e+02
227             	3.17116496e+02
228             	3.17132256e+02
229             	3.17146889e+02
230             	3.17162685e+02
231             	3.17179422e+02
232             	3.17195736e+02
233             	3.17212052e+02
234             	3.17229406e+02
235             	3.17247103e+02
236             	3.17264691e+02
237             	3.17279027e+02
238             	3.17296893e+02
239             	3.17314041e+02
240             	3.17332000e+02
241             	3.17350153e+02
242             	3.17368081e+02
243             	3.17385063e+02
244             	3.17402251e+02
245             	3.17419524e+02
246             	3.17436296e+02
247             	3.17452173e+02
248             	3.17465081e+02
249             	3.17475682e+02
250             	3.17489457e+02
251             	3.17502059e+02
252             	3.17514212e+02
253             	3.17525874e+02
254             	3.17538195e+02
255             	3.17548955e+02
256             	3.17559211e+02
257             	3.17569664e+02
258             	3.17579995e+02
259             	3.17590077e+02
260             	3.17599992e+02
261             	3.17608777e+02
262             	3.17617564e+02
263             	3.17624801e+02
264             	3.17631804e+02
265             	3.17640297e+02
266             	3.17650686e+02
267             	3.17658243e+02
268             	3.17666523e+02
269             	3.17676232e+02
270             	3.17687727e+02
271             	3.17698743e+02
272             	3.17708020e+02
273             	3.17717186e+02
274             	3.17727790e+02
275             	3.17736533e+02
276             	3.17745091e+02
277             	3.17753838e+02
278             	3.17762215e+02
279             	3.17770290e+02
280             	3.17778487e+02
281             	3.17786569e+02
282             	3.17794809e+02
283             	3.17802942e+02
284             	3.17809208e+02
285             	3.17815134e+02
286             	3.17821527e+02
287             	3.17827814e+02
288             	3.17833133e+02
289             	3.17838721e+02
290             	3.17844860e+02
291             	3.17849446e+02
292             	3.17853934e+02
293             	3.17858715e+02
294             	3.17863702e+02
295             	3.17868744e+02
296             	3.17873454e+02
297             	3.17877663e+02
298             	3.17880218e+02
299             	3.17881630e+02
300             	3.17883134e+02
301             	3.17887034e+02
302             	3.17887987e+02
303             	3.17890682e+02
304             	3.17894835e+02
305             	3.17898815e+02
306             	3.17903227e+02
307             	3.17908557e+02
308             	3.17914588e+02
309             	3.17921085e+02
310             	3.17926137e+02
311             	3.17929583e+02
312             	3.17934603e+02
313             	3.17939171e+02
314             	3.17943694e+02
315             	3.17947753e+02
316             	3.17951479e+02
317             	3.17956903e+02
318             	3.17962301e+02
319             	3.17966342e+02
320             	3.17968961e+02
321             	3.17971595e+02
322             	3.17974183e+02
323             	3.17974341e+02
324             	3.17975007e+02
325             	3.17979805e+02
326             	3.17984673e+02
327             	3.17990024e+02
328             	3.17995110e+02
329             	3.18002208e+02
330             	3.18009921e+02
331             	3.18013069e+02
332             	3.18012886e+02
333             	3.18012262e+02
334             	3.18012138e+02
335             	3.18012592e+02
336             	3.18013851e+02
337             	3.18015823e+02
338             	3.18018430e+02
339             	3.18021567e+02
340             	3.18025485e+02
341             	3.18030517e+02
342             	3.18035993e+02
343             	3.18041713e+02
344             	3.18046852e+02
345             	3.18050131e+02
346             	3.18054797e+02
347             	3.18059636e+02
348             	3.18063747e+02
349             	3.18065736e+02
350             	3.18068319e+02
351             	3.18072079e+02
352             	3.18074448e+02
353             	3.18076177e+02
354             	3.18077906e+02
355             	3.18080132e+02
356             	3.18082913e+02
357             	3.18085817e+02
358             	3.18089445e+02
359             	3.18093853e+02
360             	3.18098745e+02
361             	3.18103765e+02
362             	3.18108655e+02
363             	3.18113386e+02
364             	3.18117593e+02
365             	3.18121097e+02
366             	3.18123565e+02
367             	3.18124888e+02
368             	3.18126424e+02
369             	3.18127105e+02
370             	3.18127353e+02
371             	3.18127614e+02
372             	3.18128179e+02
373             	3.18129327e+02
374             	3.18131313e+02
375             	3.18134130e+02
376             	3.18137410e+02
377             	3.18141093e+02
378             	3.18144859e+02
379             	3.18148339e+02
380             	3.18151718e+02
381             	3.18154933e+02
382             	3.18157857e+02
383             	3.18160502e+02
384             	3.18163027e+02
385             	3.18165513e+02
386             	3.18168015e+02
387             	3.18169827e+02
388             	3.18170963e+02
389             	3.18171851e+02
390             	3.18172871e+02
391             	3.18173910e+02
392             	3.18174829e+02
393             	3.18175727e+02
394             	3.18176645e+02
395             	3.18177581e+02
396             	3.18178420e+02
397             	3.18179292e+02
398             	3.18180368e+02
399             	3.18181738e+02
400             	3.18183392e+02
401             	3.18185317e+02
402             	3.18187491e+02
403             	3.18189902e+02
404             	3.18192519e+02
405             	3.18195332e+02
406             	3.18198324e+02
407             	3.18201445e+02
408             	3.18204628e+02
409             	3.18207770e+02
410             	3.18210802e+02
411             	3.18213620e+02
412             	3.18216182e+02
413             	3.18218465e+02
414             	3.18220441e+02
415             	3.18222270e+02
416             	3.18224103e+02
417             	3.18225771e+02
418             	3.18227378e+02
419             	3.18228858e+02
420             	3.18230242e+02
421             	3.18231644e+02
422             	3.18232979e+02
423             	3.18234045e+02
424             	3.18234867e+02
425             	3.18235553e+02
426             	3.18236124e+02
427             	3.18236605e+02
428             	3.18237027e+02
429             	3.18237939e+02
430             	3.18238694e+02
431             	3.18239349e+02
432             	3.18240056e+02
433             	3.18240857e+02
434             	3.18241793e+02
435             	3.18242908e+02
436             	3.18244143e+02
437             	3.18245440e+02
438             	3.18246740e+02
439             	3.18248114e+02
440             	3.18249549e+02
441             	3.18250944e+02
442             	3.18252141e+02
443             	3.18253430e+02
444             	3.18254902e+02
445             	3.18256420e+02
446             	3.18257986e+02
447             	3.18259551e+02
448             	3.18261022e+02
449             	3.18262412e+02
450             	3.18263757e+02
451             	3.18265049e+02
452             	3.18266261e+02
453             	3.18267376e+02
454             	3.18268373e+02
455             	3.18269160e+02
456             	3.18269729e+02
457             	3.18270141e+02
458             	3.18270415e+02
459             	3.18270573e+02
460             	3.18270592e+02
461             	3.18270511e+02
462             	3.18270400e+02
463             	3.18270263e+02
464             	3.18270416e+02
465             	3.18270665e+02
466             	3.18270983e+02
467             	3.18271412e+02
468             	3.18271947e+02
469             	3.18272580e+02
470             	3.18273281e+02
471             	3.18274041e+02
472             	3.18274826e+02
473             	3.18275579e+02
474             	3.18276257e+02
475             	3.18276841e+02
476             	3.18277333e+02
477             	3.18277753e+02
478             	3.18278128e+02
479             	3.18278496e+02
480             	3.18278880e+02
481             	3.18279316e+02
482             	3.18279829e+02
483             	3.18280452e+02
484             	3.18281204e+02
485             	3.18282094e+02
486             	3.18283106e+02
487             	3.18284214e+02
488             	3.18285387e+02
489             	3.18286574e+02
490             	3.18287730e+02
491             	3.18288834e+02
492             	3.18289836e+02
493             	3.18290697e+02
494             	3.18291360e+02
495             	3.18291897e+02
496             	3.18292222e+02
497             	3.18292240e+02
498             	3.18292047e+02
499             	3.18291813e+02
500             	3.18291654e+02
501             	3.18291587e+02
502             	3.18291609e+02
503             	3.18291862e+02
504             	3.18292124e+02
505             	3.18292204e+02
506             	3.18292148e+02
507             	3.18292052e+02
508             	3.18292055e+02
509             	3.18292256e+02
510             	3.18292674e+02
511             	3.18293240e+02
512             	3.18293923e+02
513             	3.18294700e+02
514             	3.18295487e+02
515             	3.18296184e+02
516             	3.18296805e+02
517             	3.18297416e+02
518             	3.18298057e+02
519             	3.18298750e+02
520             	3.18299483e+02
521             	3.18300233e+02
522             	3.18300994e+02
523             	3.18301741e+02
524             	3.18302423e+02
525             	3.18302993e+02
526             	3.18303455e+02
527             	3.18303817e+02
528             	3.18304073e+02
529             	3.18304317e+02
530             	3.18304493e+02
531             	3.18304616e+02
532             	3.18304736e+02
533             	3.18304842e+02
534             	3.18304916e+02
535             	3.18304930e+02
536             	3.18304909e+02
537             	3.18304859e+02
538             	3.18304959e+02
539             	3.18305185e+02
540             	3.18305479e+02
541             	3.18305914e+02
542             	3.18306347e+02
543             	3.18306747e+02
544             	3.18307164e+02
545             	3.18307597e+02
546             	3.18308142e+02
547             	3.18308460e+02
548             	3.18308577e+02
549             	3.18308550e+02
550             	3.18308426e+02
551             	3.18308253e+02
552             	3.18308048e+02
553             	3.18307882e+02
554             	3.18307897e+02
555             	3.18308065e+02
556             	3.18308294e+02
557             	3.18308568e+02
558             	3.18308836e+02
559             	3.18309107e+02
560             	3.18309423e+02
561             	3.18309769e+02
562             	3.18310121e+02
563             	3.18310453e+02
564             	3.18310778e+02
565             	3.18311080e+02
566             	3.18311371e+02
567             	3.18311665e+02
568             	3.18311789e+02
569             	3.18311731e+02
570             	3.18311576e+02
571             	3.18311371e+02
572             	3.18311151e+02
573             	3.18310951e+02
574             	3.18310792e+02
575             	3.18310685e+02
576             	3.18310657e+02
577             	3.18310706e+02
578             	3.18310877e+02
579             	3.18311152e+02
580             	3.18311438e+02
581             	3.18311796e+02
582             	3.18312256e+02
583             	3.18312747e+02
584             	3.18313191e+02
585             	3.18313580e+02
586             	3.18313869e+02
587             	3.18314074e+02
588             	3.18314179e+02
589             	3.18314169e+02
590             	3.18314065e+02
591             	3.18313963e+02
592             	3.18313761e+02
593             	3.18313455e+02
594             	3.18313122e+02
595             	3.18312811e+02
596             	3.18312541e+02
597             	3.18312335e+02
598             	3.18312210e+02
599             	3.18312165e+02
600             	3.18312181e+02
601             	3.18312278e+02
602             	3.18312433e+02
603             	3.18312622e+02
604             	3.18312833e+02
605             	3.18313103e+02
606             	3.18313413e+02
607             	3.18313722e+02
608             	3.18314019e+02
609             	3.18314302e+02
610             	3.18314624e+02
611             	3.18314830e+02
612             	3.18314904e+02
613             	3.18314888e+02
614             	3.18314786e+02
615             	3.18314647e+02
616             	3.18314537e+02
617             	3.18314443e+02
618             	3.18314340e+02
619             	3.18314229e+02
620             	3.18314121e+02
621             	3.18314000e+02
