# Region        : cellZone component_4
# Cells         : 255
# Volume        : 4.96402506e-01
# Time          	volAverage(T)
1               	3.00212694e+02
2               	3.00423428e+02
3               	3.00622351e+02
4               	3.00813415e+02
5               	3.01000230e+02
6               	3.01183926e+02
7               	3.01364906e+02
8               	3.01543876e+02
9               	3.01721622e+02
10              	3.01897995e+02
11              	3.02073031e+02
12              	3.02246742e+02
13              	3.02419483e+02
14              	3.02590966e+02
15              	3.02759694e+02
16              	3.02925748e+02
17              	3.03089325e+02
18              	3.03255094e+02
19              	3.03416836e+02
20              	3.03574285e+02
21              	3.03728394e+02
22              	3.03879206e+02
23              	3.04026180e+02
24              	3.04170546e+02
25              	3.04312070e+02
26              	3.04451017e+02
27              	3.04587876e+02
28              	3.04723324e+02
29              	3.04858119e+02
30              	3.04993408e+02
31              	3.05129942e+02
32              	3.05268313e+02
33              	3.05404741e+02
34              	3.05536756e+02
35              	3.05667718e+02
36              	3.05796089e+02
37              	3.05920664e+02
38              	3.06042442e+02
39              	3.06160766e+02
40              	3.06273583e+02
41              	3.06383936e+02
42              	3.06492146e+02
43              	3.06601008e+02
44              	3.06710933e+02
45              	3.06824285e+02
46              	3.06936921e+02
47              	3.07045339e+02
48              	3.07151664e+02
49              	3.07259105e+02
50              	3.07364972e+02
51              	3.07466208e+02
52              	3.07561963e+02
53              	3.07653868e+02
54              	3.07742142e+02
55              	3.07830294e+02
56              	3.07920146e+02
57              	3.08010579e+02
58              	3.08104496e+02
59              	3.08200463e+02
60              	3.08296949e+02
61              	3.08393448e+02
62              	3.08489544e+02
63              	3.08582491e+02
64              	3.08670714e+02
65              	3.08755606e+02
66              	3.08836784e+02
67              	3.08914020e+02
68              	3.08987362e+02
69              	3.09059822e+02
70              	3.09129421e+02
71              	3.09199586e+02
72              	3.09272938e+02
73              	3.09347304e+02
74              	3.09421394e+02
75              	3.09491711e+02
76              	3.09564018e+02
77              	3.09633250e+02
78              	3.09697705e+02
79              	3.09758565e+02
80              	3.09816413e+02
81              	3.09871967e+02
82              	3.09925537e+02
83              	3.09978832e+02
84              	3.10031324e+02
85              	3.10083420e+02
86              	3.10134030e+02
87              	3.10184861e+02
88              	3.10236115e+02
89              	3.10288539e+02
90              	3.10341926e+02
91              	3.10396353e+02
92              	3.10451095e+02
93              	3.10505781e+02
94              	3.10559713e+02
95              	3.10611701e+02
96              	3.10661125e+02
97              	3.10707716e+02
98              	3.10751893e+02
99              	3.10793907e+02
100             	3.10833867e+02
101             	3.10872849e+02
102             	3.10911301e+02
103             	3.10949588e+02
104             	3.10987527e+02
105             	3.11025571e+02
106             	3.11064314e+02
107             	3.11103848e+02
108             	3.11144662e+02
109             	3.11185901e+02
110             	3.11228119e+02
111             	3.11270725e+02
112             	3.11313470e+02
113             	3.11356077e+02
114             	3.11398609e+02
115             	3.11439726e+02
116             	3.11480432e+02
117             	3.11520259e+02
118             	3.11558933e+02
119             	3.11596105e+02
120             	3.11631930e+02
121             	3.11666467e+02
122             	3.11699872e+02
123             	3.11732387e+02
124             	3.11764343e+02
125             	3.11795871e+02
126             	3.11827145e+02
127             	3.11858145e+02
128             	3.11888991e+02
129             	3.11919936e+02
130             	3.11950899e+02
131             	3.11981539e+02
132             	3.12012322e+02
133             	3.12043269e+02
134             	3.12074399e+02
135             	3.12105089e+02
136             	3.12135341e+02
137             	3.12164806e+02
138             	3.12193478e+02
139             	3.12221386e+02
140             	3.12248356e+02
141             	3.12274345e+02
142             	3.12299338e+02
143             	3.12323968e+02
144             	3.12348269e+02
145             	3.12372454e+02
146             	3.12396790e+02
147             	3.12421323e+02
148             	3.12446101e+02
149             	3.12471177e+02
150             	3.12496199e+02
151             	3.12521458e+02
152             	3.12546675e+02
153             	3.12571643e+02
154             	3.12595948e+02
155             	3.12619794e+02
156             	3.12643067e+02
157             	3.12665651e+02
158             	3.12687489e+02
159             	3.12708542e+02
160             	3.12728897e+02
161             	3.12748659e+02
162             	3.12767996e+02
163             	3.12787013e+02
164             	3.12805618e+02
165             	3.12824055e+02
166             	3.12842258e+02
167             	3.12860329e+02
168             	3.12878375e+02
169             	3.12896248e+02
170             	3.12913962e+02
171             	3.12931549e+02
172             	3.12949021e+02
173             	3.12966376e+02
174             	3.12983599e+02
175             	3.13000666e+02
176             	3.13017606e+02
177             	3.13034459e+02
178             	3.13051216e+02
179             	3.13067625e+02
180             	3.13083845e+02
181             	3.13099837e+02
182             	3.13115562e+02
183             	3.13131021e+02
184             	3.13146250e+02
185             	3.13161308e+02
186             	3.13176149e+02
187             	3.13190843e+02
188             	3.13205300e+02
189             	3.13219651e+02
190             	3.13233892e+02
191             	3.13248018e+02
192             	3.13262030e+02
193             	3.13275875e+02
194             	3.13289504e+02
195             	3.13302883e+02
196             	3.13315939e+02
197             	3.13328688e+02
198             	3.13341099e+02
199             	3.13353132e+02
200             	3.13364834e+02
201             	3.13376324e+02
202             	3.13387574e+02
203             	3.13398690e+02
204             	3.13409607e+02
205             	3.13420427e+02
206             	3.13431152e+02
207             	3.13441785e+02
208             	3.13452335e+02
209             	3.13462794e+02
210             	3.13473113e+02
211             	3.13483299e+02
212             	3.13493337e+02
213             	3.13503212e+02
214             	3.13512929e+02
215             	3.13522520e+02
216             	3.13532010e+02
217             	3.13541416e+02
218             	3.13550718e+02
219             	3.13559929e+02
220             	3.13569061e+02
221             	3.13578145e+02
222             	3.13587180e+02
223             	3.13596161e+02
224             	3.13605117e+02
225             	3.13613988e+02
226             	3.13622759e+02
227             	3.13631411e+02
228             	3.13639956e+02
229             	3.13648392e+02
230             	3.13656708e+02
231             	3.13664915e+02
232             	3.13673019e+02
233             	3.13680983e+02
234             	3.13688861e+02
235             	3.13696652e+02
236             	3.13704362e+02
237             	3.13711979e+02
238             	3.13719482e+02
239             	3.13726866e+02
240             	3.13734127e+02
241             	3.13741255e+02
242             	3.13748255e+02
243             	3.13755135e+02
244             	3.13761886e+02
245             	3.13768502e+02
246             	3.13774978e+02
247             	3.13781311e+02
248             	3.13787485e+02
249             	3.13793486e+02
250             	3.13799385e+02
251             	3.13805146e+02
252             	3.13810784e+02
253             	3.13816326e+02
254             	3.13821778e+02
255             	3.13827162e+02
256             	3.13832487e+02
257             	3.13837756e+02
258             	3.13842969e+02
259             	3.13848127e+02
260             	3.13853227e+02
261             	3.13858266e+02
262             	3.13863242e+02
263             	3.13868155e+02
264             	3.13873004e+02
265             	3.13877793e+02
266             	3.13882533e+02
267             	3.13887234e+02
268             	3.13891893e+02
269             	3.13896525e+02
270             	3.13901153e+02
271             	3.13905741e+02
272             	3.13910347e+02
273             	3.13914935e+02
274             	3.13919542e+02
275             	3.13924149e+02
276             	3.13928752e+02
277             	3.13933370e+02
278             	3.13937988e+02
279             	3.13942604e+02
280             	3.13947218e+02
281             	3.13951831e+02
282             	3.13956325e+02
283             	3.13960776e+02
284             	3.13965156e+02
285             	3.13969453e+02
286             	3.13973655e+02
287             	3.13977727e+02
288             	3.13981680e+02
289             	3.13985540e+02
290             	3.13989336e+02
291             	3.13993106e+02
292             	3.13996849e+02
293             	3.14000592e+02
294             	3.14004334e+02
295             	3.14008057e+02
296             	3.14011745e+02
297             	3.14015403e+02
298             	3.14019031e+02
299             	3.14022608e+02
300             	3.14026121e+02
301             	3.14029556e+02
302             	3.14032903e+02
303             	3.14036164e+02
304             	3.14039327e+02
305             	3.14042386e+02
306             	3.14045336e+02
307             	3.14048176e+02
308             	3.14050909e+02
309             	3.14053569e+02
310             	3.14056175e+02
311             	3.14058737e+02
312             	3.14061261e+02
313             	3.14063757e+02
314             	3.14066235e+02
315             	3.14068689e+02
316             	3.14071158e+02
317             	3.14073630e+02
318             	3.14076129e+02
319             	3.14078623e+02
320             	3.14081093e+02
321             	3.14083534e+02
322             	3.14085940e+02
323             	3.14088300e+02
324             	3.14090605e+02
325             	3.14092861e+02
326             	3.14095074e+02
327             	3.14097258e+02
328             	3.14099426e+02
329             	3.14101599e+02
330             	3.14103793e+02
331             	3.14106012e+02
332             	3.14108240e+02
333             	3.14110484e+02
334             	3.14112740e+02
335             	3.14115004e+02
336             	3.14117279e+02
337             	3.14119560e+02
338             	3.14121837e+02
339             	3.14124055e+02
340             	3.14126260e+02
341             	3.14128448e+02
342             	3.14130597e+02
343             	3.14132718e+02
344             	3.14134810e+02
345             	3.14136879e+02
346             	3.14138929e+02
347             	3.14140967e+02
348             	3.14142988e+02
349             	3.14144989e+02
350             	3.14146963e+02
351             	3.14148911e+02
352             	3.14150838e+02
353             	3.14152764e+02
354             	3.14154691e+02
355             	3.14156622e+02
356             	3.14158553e+02
357             	3.14160472e+02
358             	3.14162376e+02
359             	3.14164220e+02
360             	3.14166022e+02
361             	3.14167761e+02
362             	3.14169413e+02
363             	3.14170993e+02
364             	3.14172540e+02
365             	3.14174006e+02
366             	3.14175393e+02
367             	3.14176748e+02
368             	3.14178074e+02
369             	3.14179378e+02
370             	3.14180672e+02
371             	3.14181966e+02
372             	3.14183270e+02
373             	3.14184592e+02
374             	3.14185939e+02
375             	3.14187293e+02
376             	3.14188634e+02
377             	3.14189967e+02
378             	3.14191285e+02
379             	3.14192577e+02
380             	3.14193847e+02
381             	3.14195090e+02
382             	3.14196302e+02
383             	3.14197476e+02
384             	3.14198618e+02
385             	3.14199720e+02
386             	3.14200817e+02
387             	3.14201874e+02
388             	3.14202907e+02
389             	3.14203935e+02
390             	3.14204939e+02
391             	3.14205961e+02
392             	3.14207001e+02
393             	3.14208061e+02
394             	3.14209147e+02
395             	3.14210264e+02
396             	3.14211421e+02
397             	3.14212616e+02
398             	3.14213844e+02
399             	3.14215059e+02
400             	3.14216250e+02
401             	3.14217404e+02
402             	3.14218513e+02
403             	3.14219592e+02
404             	3.14220659e+02
405             	3.14221725e+02
406             	3.14222787e+02
407             	3.14223857e+02
408             	3.14224941e+02
409             	3.14226048e+02
410             	3.14227179e+02
411             	3.14228329e+02
412             	3.14229491e+02
413             	3.14230658e+02
414             	3.14231819e+02
415             	3.14232964e+02
416             	3.14234023e+02
417             	3.14235040e+02
418             	3.14235999e+02
419             	3.14236894e+02
420             	3.14237704e+02
421             	3.14238431e+02
422             	3.14239103e+02
423             	3.14239753e+02
424             	3.14240399e+02
425             	3.14241071e+02
426             	3.14241768e+02
427             	3.14242474e+02
428             	3.14243193e+02
429             	3.14243939e+02
430             	3.14244703e+02
431             	3.14245472e+02
432             	3.14246240e+02
433             	3.14247009e+02
434             	3.14247772e+02
435             	3.14248503e+02
436             	3.14249205e+02
437             	3.14249879e+02
438             	3.14250526e+02
439             	3.14251145e+02
440             	3.14251736e+02
441             	3.14252304e+02
442             	3.14252848e+02
443             	3.14253366e+02
444             	3.14253856e+02
445             	3.14254320e+02
446             	3.14254766e+02
447             	3.14255205e+02
448             	3.14255640e+02
449             	3.14256072e+02
450             	3.14256504e+02
451             	3.14256933e+02
452             	3.14257364e+02
453             	3.14257799e+02
454             	3.14258241e+02
455             	3.14258696e+02
456             	3.14259175e+02
457             	3.14259676e+02
458             	3.14260203e+02
459             	3.14260747e+02
460             	3.14261313e+02
461             	3.14261899e+02
462             	3.14262503e+02
463             	3.14263123e+02
464             	3.14263752e+02
465             	3.14264346e+02
466             	3.14264933e+02
467             	3.14265507e+02
468             	3.14266070e+02
469             	3.14266628e+02
470             	3.14267180e+02
471             	3.14267732e+02
472             	3.14268286e+02
473             	3.14268831e+02
474             	3.14269364e+02
475             	3.14269885e+02
476             	3.14270396e+02
477             	3.14270890e+02
478             	3.14271357e+02
479             	3.14271791e+02
480             	3.14272171e+02
481             	3.14272520e+02
482             	3.14272860e+02
483             	3.14273214e+02
484             	3.14273555e+02
485             	3.14273910e+02
486             	3.14274294e+02
487             	3.14274709e+02
488             	3.14275159e+02
489             	3.14275642e+02
490             	3.14276161e+02
491             	3.14276712e+02
492             	3.14277279e+02
493             	3.14277790e+02
494             	3.14278297e+02
495             	3.14278775e+02
496             	3.14279201e+02
497             	3.14279583e+02
498             	3.14279932e+02
499             	3.14280210e+02
500             	3.14280427e+02
501             	3.14280635e+02
502             	3.14280856e+02
503             	3.14281082e+02
504             	3.14281346e+02
505             	3.14281673e+02
506             	3.14282039e+02
507             	3.14282475e+02
508             	3.14282964e+02
509             	3.14283495e+02
510             	3.14284058e+02
511             	3.14284638e+02
512             	3.14285230e+02
513             	3.14285822e+02
514             	3.14286395e+02
515             	3.14286908e+02
516             	3.14287367e+02
517             	3.14287792e+02
518             	3.14288191e+02
519             	3.14288573e+02
520             	3.14288949e+02
521             	3.14289329e+02
522             	3.14289717e+02
523             	3.14290107e+02
524             	3.14290489e+02
525             	3.14290857e+02
526             	3.14291176e+02
527             	3.14291450e+02
528             	3.14291666e+02
529             	3.14291806e+02
530             	3.14291882e+02
531             	3.14291911e+02
532             	3.14291915e+02
533             	3.14291941e+02
534             	3.14291978e+02
535             	3.14292067e+02
536             	3.14292197e+02
537             	3.14292382e+02
538             	3.14292627e+02
539             	3.14292921e+02
540             	3.14293251e+02
541             	3.14293558e+02
542             	3.14293850e+02
543             	3.14294123e+02
544             	3.14294307e+02
545             	3.14294399e+02
546             	3.14294426e+02
547             	3.14294442e+02
548             	3.14294459e+02
549             	3.14294518e+02
550             	3.14294604e+02
551             	3.14294743e+02
552             	3.14294916e+02
553             	3.14295107e+02
554             	3.14295283e+02
555             	3.14295472e+02
556             	3.14295656e+02
557             	3.14295811e+02
558             	3.14295931e+02
559             	3.14296032e+02
560             	3.14296110e+02
561             	3.14296168e+02
562             	3.14296232e+02
563             	3.14296293e+02
564             	3.14296356e+02
565             	3.14296445e+02
566             	3.14296581e+02
567             	3.14296780e+02
568             	3.14297059e+02
569             	3.14297409e+02
570             	3.14297804e+02
571             	3.14298225e+02
572             	3.14298666e+02
573             	3.14299106e+02
574             	3.14299524e+02
575             	3.14299907e+02
576             	3.14300243e+02
577             	3.14300537e+02
578             	3.14300786e+02
579             	3.14300990e+02
580             	3.14301159e+02
581             	3.14301337e+02
582             	3.14301475e+02
583             	3.14301583e+02
584             	3.14301678e+02
585             	3.14301770e+02
586             	3.14301871e+02
587             	3.14301983e+02
588             	3.14302100e+02
589             	3.14302228e+02
590             	3.14302366e+02
591             	3.14302511e+02
592             	3.14302655e+02
593             	3.14302784e+02
594             	3.14302889e+02
595             	3.14302979e+02
596             	3.14303034e+02
597             	3.14303051e+02
598             	3.14303028e+02
599             	3.14302961e+02
600             	3.14302885e+02
601             	3.14302789e+02
602             	3.14302694e+02
603             	3.14302608e+02
604             	3.14302532e+02
605             	3.14302478e+02
606             	3.14302467e+02
607             	3.14302510e+02
608             	3.14302619e+02
609             	3.14302780e+02
610             	3.14302969e+02
611             	3.14303186e+02
612             	3.14303425e+02
613             	3.14303673e+02
614             	3.14303910e+02
615             	3.14304130e+02
616             	3.14304328e+02
617             	3.14304499e+02
618             	3.14304641e+02
619             	3.14304754e+02
620             	3.14304855e+02
621             	3.14304972e+02
