# Region        : cellZone component_3
# Cells         : 48
# Volume        : 6.89808014e-02
# Time          	volAverage(T)
1               	3.00987404e+02
2               	3.01956396e+02
3               	3.02767771e+02
4               	3.03504749e+02
5               	3.04196516e+02
6               	3.04876026e+02
7               	3.05513043e+02
8               	3.06132766e+02
9               	3.06716875e+02
10              	3.07285471e+02
11              	3.07833666e+02
12              	3.08356018e+02
13              	3.08869324e+02
14              	3.09363227e+02
15              	3.09803842e+02
16              	3.10185083e+02
17              	3.10557537e+02
18              	3.10860926e+02
19              	3.11137602e+02
20              	3.11352047e+02
21              	3.11560439e+02
22              	3.11759451e+02
23              	3.11984972e+02
24              	3.12227300e+02
25              	3.12474535e+02
26              	3.12718136e+02
27              	3.12952337e+02
28              	3.13097613e+02
29              	3.13245695e+02
30              	3.13364780e+02
31              	3.13512937e+02
32              	3.13678841e+02
33              	3.13891299e+02
34              	3.14149082e+02
35              	3.14410825e+02
36              	3.14679981e+02
37              	3.14924512e+02
38              	3.15080671e+02
39              	3.15246866e+02
40              	3.15354586e+02
41              	3.15427318e+02
42              	3.15478106e+02
43              	3.15525346e+02
44              	3.15543871e+02
45              	3.15485487e+02
46              	3.15438652e+02
47              	3.15438677e+02
48              	3.15498008e+02
49              	3.15577362e+02
50              	3.15685719e+02
51              	3.15812782e+02
52              	3.15946363e+02
53              	3.16067900e+02
54              	3.16177463e+02
55              	3.16268831e+02
56              	3.16354133e+02
57              	3.16438148e+02
58              	3.16493709e+02
59              	3.16562603e+02
60              	3.16629395e+02
61              	3.16667531e+02
62              	3.16696940e+02
63              	3.16714296e+02
64              	3.16742983e+02
65              	3.16788149e+02
66              	3.16854270e+02
67              	3.16937154e+02
68              	3.17029535e+02
69              	3.17121409e+02
70              	3.17219194e+02
71              	3.17315494e+02
72              	3.17394809e+02
73              	3.17449807e+02
74              	3.17502720e+02
75              	3.17556160e+02
76              	3.17611786e+02
77              	3.17679810e+02
78              	3.17756764e+02
79              	3.17844937e+02
80              	3.17925477e+02
81              	3.17997326e+02
82              	3.18045345e+02
83              	3.18087606e+02
84              	3.18128804e+02
85              	3.18156700e+02
86              	3.18195983e+02
87              	3.18234508e+02
88              	3.18281430e+02
89              	3.18336952e+02
90              	3.18392805e+02
91              	3.18443915e+02
92              	3.18510561e+02
93              	3.18573791e+02
94              	3.18636553e+02
95              	3.18696988e+02
96              	3.18755558e+02
97              	3.18819674e+02
98              	3.18891605e+02
99              	3.18964586e+02
100             	3.18999860e+02
101             	3.19057349e+02
102             	3.19125003e+02
103             	3.19181567e+02
104             	3.19225230e+02
105             	3.19237613e+02
106             	3.19239336e+02
107             	3.19239614e+02
108             	3.19250064e+02
109             	3.19268848e+02
110             	3.19290362e+02
111             	3.19313804e+02
112             	3.19337127e+02
113             	3.19359919e+02
114             	3.19383452e+02
115             	3.19409860e+02
116             	3.19433208e+02
117             	3.19443496e+02
118             	3.19452975e+02
119             	3.19465185e+02
120             	3.19486884e+02
121             	3.19516019e+02
122             	3.19550920e+02
123             	3.19583064e+02
124             	3.19592987e+02
125             	3.19613981e+02
126             	3.19639844e+02
127             	3.19663565e+02
128             	3.19684250e+02
129             	3.19705207e+02
130             	3.19725046e+02
131             	3.19744068e+02
132             	3.19762782e+02
133             	3.19777779e+02
134             	3.19792357e+02
135             	3.19802063e+02
136             	3.19812718e+02
137             	3.19833903e+02
138             	3.19860178e+02
139             	3.19888727e+02
140             	3.19915867e+02
141             	3.19944671e+02
142             	3.19978192e+02
143             	3.19990757e+02
144             	3.20017561e+02
145             	3.20051877e+02
146             	3.20075880e+02
147             	3.20097636e+02
148             	3.20122220e+02
149             	3.20149404e+02
150             	3.20177082e+02
151             	3.20199423e+02
152             	3.20224507e+02
153             	3.20250654e+02
154             	3.20277585e+02
155             	3.20313876e+02
156             	3.20357532e+02
157             	3.20402206e+02
158             	3.20446874e+02
159             	3.20492648e+02
160             	3.20537552e+02
161             	3.20584427e+02
162             	3.20630081e+02
163             	3.20683469e+02
164             	3.20708502e+02
165             	3.20738440e+02
166             	3.20772144e+02
167             	3.20807180e+02
168             	3.20842312e+02
169             	3.20878055e+02
170             	3.20889356e+02
171             	3.20912537e+02
172             	3.20944848e+02
173             	3.20988413e+02
174             	3.21035314e+02
175             	3.21079306e+02
176             	3.21122422e+02
177             	3.21164253e+02
178             	3.21206169e+02
179             	3.21246942e+02
180             	3.21261392e+02
181             	3.21289195e+02
182             	3.21324027e+02
183             	3.21361394e+02
184             	3.21390741e+02
185             	3.21415648e+02
186             	3.21440401e+02
187             	3.21462843e+02
188             	3.21486613e+02
189             	3.21509739e+02
190             	3.21521820e+02
191             	3.21545033e+02
192             	3.21578843e+02
193             	3.21609606e+02
194             	3.21642833e+02
195             	3.21674053e+02
196             	3.21704801e+02
197             	3.21735064e+02
198             	3.21769296e+02
199             	3.21782071e+02
200             	3.21807836e+02
201             	3.21835871e+02
202             	3.21858643e+02
203             	3.21876011e+02
204             	3.21890747e+02
205             	3.21906984e+02
206             	3.21921664e+02
207             	3.21939995e+02
208             	3.21959704e+02
209             	3.21979334e+02
210             	3.21999643e+02
211             	3.22022411e+02
212             	3.22035710e+02
213             	3.22047885e+02
214             	3.22061227e+02
215             	3.22074616e+02
216             	3.22085272e+02
217             	3.22086130e+02
218             	3.22093622e+02
219             	3.22109583e+02
220             	3.22126548e+02
221             	3.22142279e+02
222             	3.22156304e+02
223             	3.22164502e+02
224             	3.22172501e+02
225             	3.22182220e+02
226             	3.22193686e+02
227             	3.22202988e+02
228             	3.22213751e+02
229             	3.22225476e+02
230             	3.22237175e+02
231             	3.22251206e+02
232             	3.22267364e+02
233             	3.22285456e+02
234             	3.22301020e+02
235             	3.22308887e+02
236             	3.22317229e+02
237             	3.22327968e+02
238             	3.22340350e+02
239             	3.22352796e+02
240             	3.22363564e+02
241             	3.22373184e+02
242             	3.22378239e+02
243             	3.22386365e+02
244             	3.22396113e+02
245             	3.22403698e+02
246             	3.22408754e+02
247             	3.22413784e+02
248             	3.22420579e+02
249             	3.22429137e+02
250             	3.22441042e+02
251             	3.22453347e+02
252             	3.22464528e+02
253             	3.22475787e+02
254             	3.22487242e+02
255             	3.22485649e+02
256             	3.22482473e+02
257             	3.22482797e+02
258             	3.22486065e+02
259             	3.22489780e+02
260             	3.22492956e+02
261             	3.22496914e+02
262             	3.22501168e+02
263             	3.22504766e+02
264             	3.22508624e+02
265             	3.22510784e+02
266             	3.22513420e+02
267             	3.22519685e+02
268             	3.22524091e+02
269             	3.22525771e+02
270             	3.22526700e+02
271             	3.22528591e+02
272             	3.22531431e+02
273             	3.22534639e+02
274             	3.22537992e+02
275             	3.22540634e+02
276             	3.22543698e+02
277             	3.22547866e+02
278             	3.22546232e+02
279             	3.22545005e+02
280             	3.22546233e+02
281             	3.22548032e+02
282             	3.22549711e+02
283             	3.22547877e+02
284             	3.22550006e+02
285             	3.22556166e+02
286             	3.22568581e+02
287             	3.22579853e+02
288             	3.22588656e+02
289             	3.22594620e+02
290             	3.22603995e+02
291             	3.22618532e+02
292             	3.22619169e+02
293             	3.22617589e+02
294             	3.22618534e+02
295             	3.22621362e+02
296             	3.22625213e+02
297             	3.22624732e+02
298             	3.22622640e+02
299             	3.22621465e+02
300             	3.22616313e+02
301             	3.22619381e+02
302             	3.22625709e+02
303             	3.22627397e+02
304             	3.22633769e+02
305             	3.22640741e+02
306             	3.22646309e+02
307             	3.22652182e+02
308             	3.22659177e+02
309             	3.22663559e+02
310             	3.22667650e+02
311             	3.22671195e+02
312             	3.22674159e+02
313             	3.22677007e+02
314             	3.22680139e+02
315             	3.22684083e+02
316             	3.22687372e+02
317             	3.22690653e+02
318             	3.22693792e+02
319             	3.22697164e+02
320             	3.22700078e+02
321             	3.22698467e+02
322             	3.22695556e+02
323             	3.22693591e+02
324             	3.22693019e+02
325             	3.22693382e+02
326             	3.22694266e+02
327             	3.22693116e+02
328             	3.22695437e+02
329             	3.22697915e+02
330             	3.22699001e+02
331             	3.22699127e+02
332             	3.22698765e+02
333             	3.22698038e+02
334             	3.22699619e+02
335             	3.22701605e+02
336             	3.22703051e+02
337             	3.22704973e+02
338             	3.22708887e+02
339             	3.22712533e+02
340             	3.22715101e+02
341             	3.22719530e+02
342             	3.22717418e+02
343             	3.22714226e+02
344             	3.22712931e+02
345             	3.22712464e+02
346             	3.22712531e+02
347             	3.22711312e+02
348             	3.22712675e+02
349             	3.22718079e+02
350             	3.22723312e+02
351             	3.22726339e+02
352             	3.22728498e+02
353             	3.22728989e+02
354             	3.22729682e+02
355             	3.22732883e+02
356             	3.22736450e+02
357             	3.22739383e+02
358             	3.22740294e+02
359             	3.22742842e+02
360             	3.22745412e+02
361             	3.22746676e+02
362             	3.22747312e+02
363             	3.22748126e+02
364             	3.22748943e+02
365             	3.22750004e+02
366             	3.22751532e+02
367             	3.22753413e+02
368             	3.22755809e+02
369             	3.22758742e+02
370             	3.22758535e+02
371             	3.22757685e+02
372             	3.22757274e+02
373             	3.22756882e+02
374             	3.22756865e+02
375             	3.22756458e+02
376             	3.22755560e+02
377             	3.22755147e+02
378             	3.22754006e+02
379             	3.22753447e+02
380             	3.22753769e+02
381             	3.22753339e+02
382             	3.22755674e+02
383             	3.22758300e+02
384             	3.22760116e+02
385             	3.22761429e+02
386             	3.22761857e+02
387             	3.22762155e+02
388             	3.22763018e+02
389             	3.22763152e+02
390             	3.22763513e+02
391             	3.22766443e+02
392             	3.22766240e+02
393             	3.22766257e+02
394             	3.22767723e+02
395             	3.22770338e+02
396             	3.22772831e+02
397             	3.22774586e+02
398             	3.22776358e+02
399             	3.22777487e+02
400             	3.22779182e+02
401             	3.22780588e+02
402             	3.22781593e+02
403             	3.22783376e+02
404             	3.22788423e+02
405             	3.22793108e+02
406             	3.22796790e+02
407             	3.22800745e+02
408             	3.22803657e+02
409             	3.22805535e+02
410             	3.22807775e+02
411             	3.22809553e+02
412             	3.22810498e+02
413             	3.22810685e+02
414             	3.22810220e+02
415             	3.22810995e+02
416             	3.22812911e+02
417             	3.22815038e+02
418             	3.22816933e+02
419             	3.22817915e+02
420             	3.22819097e+02
421             	3.22820461e+02
422             	3.22820839e+02
423             	3.22820629e+02
424             	3.22820070e+02
425             	3.22819479e+02
426             	3.22818637e+02
427             	3.22818017e+02
428             	3.22817522e+02
429             	3.22816973e+02
430             	3.22816746e+02
431             	3.22816835e+02
432             	3.22816992e+02
433             	3.22816898e+02
434             	3.22816591e+02
435             	3.22815928e+02
436             	3.22815279e+02
437             	3.22815291e+02
438             	3.22815886e+02
439             	3.22816463e+02
440             	3.22816367e+02
441             	3.22816827e+02
442             	3.22818405e+02
443             	3.22820135e+02
444             	3.22821541e+02
445             	3.22822437e+02
446             	3.22823260e+02
447             	3.22824309e+02
448             	3.22825888e+02
449             	3.22827600e+02
450             	3.22830761e+02
451             	3.22834131e+02
452             	3.22837565e+02
453             	3.22841166e+02
454             	3.22844851e+02
455             	3.22848576e+02
456             	3.22852483e+02
457             	3.22856044e+02
458             	3.22858679e+02
459             	3.22860672e+02
460             	3.22862344e+02
461             	3.22863487e+02
462             	3.22863664e+02
463             	3.22862501e+02
464             	3.22860243e+02
465             	3.22857955e+02
466             	3.22855345e+02
467             	3.22852649e+02
468             	3.22849987e+02
469             	3.22847804e+02
470             	3.22845944e+02
471             	3.22844317e+02
472             	3.22842034e+02
473             	3.22840804e+02
474             	3.22840024e+02
475             	3.22838611e+02
476             	3.22837509e+02
477             	3.22836626e+02
478             	3.22835928e+02
479             	3.22835457e+02
480             	3.22835003e+02
481             	3.22834593e+02
482             	3.22834171e+02
483             	3.22834530e+02
484             	3.22834481e+02
485             	3.22834581e+02
486             	3.22835014e+02
487             	3.22835681e+02
488             	3.22836708e+02
489             	3.22838019e+02
490             	3.22839510e+02
491             	3.22841249e+02
492             	3.22843053e+02
493             	3.22845081e+02
494             	3.22846977e+02
495             	3.22848852e+02
496             	3.22850888e+02
497             	3.22852969e+02
498             	3.22854935e+02
499             	3.22857372e+02
500             	3.22858488e+02
501             	3.22859119e+02
502             	3.22860000e+02
503             	3.22861197e+02
504             	3.22862681e+02
505             	3.22864729e+02
506             	3.22865951e+02
507             	3.22866593e+02
508             	3.22867209e+02
509             	3.22867610e+02
510             	3.22867272e+02
511             	3.22866529e+02
512             	3.22864806e+02
513             	3.22862038e+02
514             	3.22859004e+02
515             	3.22856355e+02
516             	3.22853382e+02
517             	3.22850503e+02
518             	3.22848444e+02
519             	3.22846516e+02
520             	3.22844409e+02
521             	3.22842400e+02
522             	3.22840605e+02
523             	3.22838703e+02
524             	3.22836954e+02
525             	3.22835213e+02
526             	3.22833475e+02
527             	3.22831529e+02
528             	3.22829390e+02
529             	3.22827383e+02
530             	3.22826050e+02
531             	3.22825212e+02
532             	3.22824338e+02
533             	3.22823719e+02
534             	3.22823897e+02
535             	3.22824758e+02
536             	3.22824857e+02
537             	3.22825373e+02
538             	3.22826663e+02
539             	3.22828190e+02
540             	3.22829527e+02
541             	3.22830161e+02
542             	3.22830897e+02
543             	3.22831766e+02
544             	3.22832742e+02
545             	3.22833893e+02
546             	3.22834794e+02
547             	3.22835421e+02
548             	3.22836096e+02
549             	3.22836703e+02
550             	3.22837470e+02
551             	3.22838101e+02
552             	3.22838954e+02
553             	3.22839615e+02
554             	3.22840106e+02
555             	3.22840616e+02
556             	3.22840444e+02
557             	3.22840496e+02
558             	3.22841101e+02
559             	3.22840975e+02
560             	3.22838706e+02
561             	3.22836064e+02
562             	3.22833112e+02
563             	3.22829918e+02
564             	3.22826409e+02
565             	3.22823696e+02
566             	3.22820715e+02
567             	3.22817002e+02
568             	3.22813808e+02
569             	3.22811948e+02
570             	3.22809999e+02
571             	3.22807463e+02
572             	3.22804559e+02
573             	3.22802379e+02
574             	3.22800683e+02
575             	3.22798338e+02
576             	3.22797290e+02
577             	3.22796833e+02
578             	3.22796230e+02
579             	3.22795370e+02
580             	3.22795116e+02
581             	3.22795549e+02
582             	3.22796108e+02
583             	3.22796115e+02
584             	3.22793625e+02
585             	3.22792061e+02
586             	3.22791941e+02
587             	3.22792682e+02
588             	3.22794285e+02
589             	3.22796697e+02
590             	3.22798535e+02
591             	3.22801599e+02
592             	3.22804135e+02
593             	3.22807940e+02
594             	3.22812126e+02
595             	3.22816199e+02
596             	3.22819087e+02
597             	3.22821552e+02
598             	3.22824148e+02
599             	3.22826192e+02
600             	3.22825816e+02
601             	3.22825783e+02
602             	3.22825639e+02
603             	3.22825946e+02
604             	3.22826530e+02
605             	3.22825874e+02
606             	3.22827747e+02
607             	3.22829734e+02
608             	3.22831034e+02
609             	3.22831092e+02
610             	3.22830538e+02
611             	3.22830338e+02
612             	3.22829536e+02
613             	3.22827743e+02
614             	3.22825362e+02
615             	3.22823116e+02
616             	3.22821449e+02
617             	3.22820589e+02
618             	3.22820295e+02
619             	3.22820254e+02
620             	3.22820366e+02
621             	3.22820074e+02
