# Region        : cellZone component_2
# Cells         : 24
# Volume        : 2.30539879e-02
# Time          	volAverage(T)
1               	3.02309490e+02
2               	3.04565141e+02
3               	3.06464215e+02
4               	3.08159181e+02
5               	3.09744146e+02
6               	3.11224360e+02
7               	3.12603620e+02
8               	3.13903226e+02
9               	3.15166747e+02
10              	3.16318102e+02
11              	3.17316838e+02
12              	3.18157517e+02
13              	3.18915198e+02
14              	3.19676141e+02
15              	3.20525456e+02
16              	3.21416180e+02
17              	3.22325134e+02
18              	3.23199601e+02
19              	3.24035906e+02
20              	3.24827029e+02
21              	3.25697704e+02
22              	3.26640666e+02
23              	3.27589369e+02
24              	3.28591404e+02
25              	3.29646421e+02
26              	3.30631761e+02
27              	3.31437963e+02
28              	3.32057672e+02
29              	3.32576609e+02
30              	3.33013525e+02
31              	3.33471698e+02
32              	3.33907165e+02
33              	3.34299104e+02
34              	3.34589923e+02
35              	3.34822554e+02
36              	3.34828185e+02
37              	3.34685439e+02
38              	3.34547174e+02
39              	3.34321941e+02
40              	3.34103144e+02
41              	3.33820416e+02
42              	3.33663800e+02
43              	3.33592785e+02
44              	3.33544626e+02
45              	3.33604743e+02
46              	3.33661760e+02
47              	3.33712158e+02
48              	3.33760610e+02
49              	3.33830713e+02
50              	3.33958105e+02
51              	3.34150206e+02
52              	3.34395901e+02
53              	3.34667207e+02
54              	3.34869822e+02
55              	3.34929649e+02
56              	3.34875949e+02
57              	3.34845223e+02
58              	3.34870223e+02
59              	3.34920223e+02
60              	3.34998222e+02
61              	3.35041696e+02
62              	3.35105047e+02
63              	3.35217438e+02
64              	3.35382468e+02
65              	3.35578567e+02
66              	3.35751685e+02
67              	3.35912302e+02
68              	3.36053305e+02
69              	3.36264379e+02
70              	3.36480273e+02
71              	3.36699182e+02
72              	3.36892068e+02
73              	3.37002351e+02
74              	3.37092294e+02
75              	3.37162818e+02
76              	3.37255965e+02
77              	3.37340828e+02
78              	3.37433043e+02
79              	3.37553413e+02
80              	3.37699442e+02
81              	3.37871170e+02
82              	3.37983291e+02
83              	3.38144716e+02
84              	3.38333969e+02
85              	3.38471668e+02
86              	3.38573045e+02
87              	3.38686362e+02
88              	3.38803002e+02
89              	3.38854471e+02
90              	3.38819481e+02
91              	3.38771522e+02
92              	3.38792959e+02
93              	3.38729813e+02
94              	3.38735978e+02
95              	3.38767183e+02
96              	3.38796355e+02
97              	3.38854929e+02
98              	3.38946542e+02
99              	3.39058649e+02
100             	3.39207826e+02
101             	3.39343995e+02
102             	3.39381829e+02
103             	3.39449482e+02
104             	3.39486047e+02
105             	3.39534294e+02
106             	3.39526595e+02
107             	3.39517438e+02
108             	3.39478214e+02
109             	3.39325048e+02
110             	3.39258133e+02
111             	3.39247390e+02
112             	3.39275769e+02
113             	3.39309425e+02
114             	3.39367926e+02
115             	3.39455919e+02
116             	3.39529698e+02
117             	3.39576965e+02
118             	3.39653522e+02
119             	3.39683142e+02
120             	3.39660569e+02
121             	3.39612368e+02
122             	3.39557793e+02
123             	3.39527024e+02
124             	3.39437435e+02
125             	3.39389004e+02
126             	3.39410750e+02
127             	3.39477776e+02
128             	3.39542052e+02
129             	3.39554467e+02
130             	3.39577636e+02
131             	3.39629027e+02
132             	3.39646794e+02
133             	3.39557857e+02
134             	3.39517404e+02
135             	3.39473650e+02
136             	3.39391238e+02
137             	3.39318840e+02
138             	3.39261853e+02
139             	3.39236011e+02
140             	3.39248504e+02
141             	3.39270449e+02
142             	3.39232771e+02
143             	3.39240776e+02
144             	3.39212803e+02
145             	3.39173136e+02
146             	3.39197003e+02
147             	3.39210072e+02
148             	3.39180915e+02
149             	3.39102286e+02
150             	3.39014915e+02
151             	3.38985451e+02
152             	3.39020792e+02
153             	3.39093490e+02
154             	3.39154134e+02
155             	3.39204469e+02
156             	3.39254451e+02
157             	3.39300224e+02
158             	3.39361633e+02
159             	3.39394083e+02
160             	3.39395080e+02
161             	3.39334817e+02
162             	3.39291083e+02
163             	3.39260152e+02
164             	3.39256348e+02
165             	3.39269421e+02
166             	3.39307480e+02
167             	3.39367395e+02
168             	3.39449826e+02
169             	3.39532415e+02
170             	3.39618563e+02
171             	3.39708705e+02
172             	3.39829370e+02
173             	3.39957138e+02
174             	3.40090616e+02
175             	3.40238053e+02
176             	3.40392008e+02
177             	3.40539538e+02
178             	3.40660220e+02
179             	3.40788270e+02
180             	3.40886558e+02
181             	3.40966627e+02
182             	3.41036706e+02
183             	3.41105184e+02
184             	3.41154841e+02
185             	3.41200658e+02
186             	3.41246655e+02
187             	3.41275717e+02
188             	3.41302575e+02
189             	3.41335590e+02
190             	3.41368991e+02
191             	3.41393208e+02
192             	3.41418517e+02
193             	3.41450123e+02
194             	3.41457026e+02
195             	3.41473233e+02
196             	3.41487448e+02
197             	3.41499230e+02
198             	3.41555014e+02
199             	3.41637409e+02
200             	3.41737962e+02
201             	3.41830939e+02
202             	3.41936463e+02
203             	3.42048837e+02
204             	3.42122138e+02
205             	3.42210515e+02
206             	3.42288276e+02
207             	3.42327564e+02
208             	3.42385316e+02
209             	3.42435687e+02
210             	3.42444726e+02
211             	3.42442749e+02
212             	3.42387253e+02
213             	3.42299228e+02
214             	3.42231121e+02
215             	3.42192645e+02
216             	3.42161373e+02
217             	3.42143679e+02
218             	3.42152188e+02
219             	3.42160181e+02
220             	3.42180865e+02
221             	3.42219364e+02
222             	3.42286865e+02
223             	3.42297644e+02
224             	3.42333346e+02
225             	3.42383838e+02
226             	3.42441453e+02
227             	3.42505475e+02
228             	3.42512108e+02
229             	3.42513839e+02
230             	3.42538375e+02
231             	3.42566898e+02
232             	3.42580699e+02
233             	3.42601106e+02
234             	3.42635305e+02
235             	3.42623300e+02
236             	3.42629777e+02
237             	3.42639686e+02
238             	3.42612292e+02
239             	3.42628345e+02
240             	3.42648707e+02
241             	3.42646606e+02
242             	3.42675385e+02
243             	3.42716120e+02
244             	3.42759122e+02
245             	3.42798045e+02
246             	3.42850250e+02
247             	3.42887633e+02
248             	3.42921307e+02
249             	3.42962978e+02
250             	3.43045638e+02
251             	3.43048151e+02
252             	3.43066939e+02
253             	3.43090019e+02
254             	3.43119682e+02
255             	3.43114766e+02
256             	3.43126555e+02
257             	3.43125358e+02
258             	3.43129936e+02
259             	3.43136734e+02
260             	3.43135729e+02
261             	3.43137628e+02
262             	3.43121630e+02
263             	3.43125136e+02
264             	3.43146269e+02
265             	3.43170716e+02
266             	3.43210053e+02
267             	3.43249172e+02
268             	3.43303753e+02
269             	3.43360440e+02
270             	3.43423595e+02
271             	3.43437405e+02
272             	3.43467442e+02
273             	3.43495722e+02
274             	3.43520796e+02
275             	3.43539007e+02
276             	3.43524874e+02
277             	3.43465375e+02
278             	3.43426477e+02
279             	3.43394832e+02
280             	3.43357356e+02
281             	3.43322296e+02
282             	3.43288492e+02
283             	3.43263158e+02
284             	3.43256738e+02
285             	3.43261579e+02
286             	3.43271840e+02
287             	3.43285749e+02
288             	3.43303653e+02
289             	3.43323571e+02
290             	3.43343019e+02
291             	3.43359647e+02
292             	3.43370669e+02
293             	3.43384644e+02
294             	3.43395232e+02
295             	3.43402784e+02
296             	3.43408101e+02
297             	3.43412147e+02
298             	3.43414435e+02
299             	3.43419942e+02
300             	3.43415815e+02
301             	3.43406840e+02
302             	3.43398937e+02
303             	3.43395469e+02
304             	3.43412602e+02
305             	3.43410476e+02
306             	3.43406336e+02
307             	3.43409539e+02
308             	3.43414800e+02
309             	3.43422461e+02
310             	3.43432024e+02
311             	3.43449488e+02
312             	3.43457350e+02
313             	3.43459998e+02
314             	3.43460877e+02
315             	3.43442497e+02
316             	3.43436960e+02
317             	3.43449606e+02
318             	3.43473742e+02
319             	3.43497374e+02
320             	3.43520195e+02
321             	3.43543629e+02
322             	3.43567563e+02
323             	3.43590867e+02
324             	3.43613702e+02
325             	3.43635073e+02
326             	3.43651876e+02
327             	3.43666814e+02
328             	3.43678564e+02
329             	3.43685599e+02
330             	3.43682418e+02
331             	3.43674140e+02
332             	3.43657243e+02
333             	3.43639480e+02
334             	3.43621711e+02
335             	3.43602484e+02
336             	3.43588303e+02
337             	3.43556537e+02
338             	3.43522472e+02
339             	3.43494250e+02
340             	3.43469735e+02
341             	3.43449417e+02
342             	3.43431313e+02
343             	3.43415336e+02
344             	3.43399431e+02
345             	3.43391387e+02
346             	3.43389418e+02
347             	3.43362405e+02
348             	3.43314271e+02
349             	3.43310072e+02
350             	3.43324231e+02
351             	3.43349302e+02
352             	3.43384078e+02
353             	3.43413631e+02
354             	3.43435580e+02
355             	3.43451666e+02
356             	3.43446644e+02
357             	3.43443728e+02
358             	3.43442754e+02
359             	3.43459539e+02
360             	3.43470946e+02
361             	3.43475531e+02
362             	3.43441340e+02
363             	3.43395116e+02
364             	3.43367639e+02
365             	3.43337145e+02
366             	3.43324039e+02
367             	3.43295896e+02
368             	3.43269261e+02
369             	3.43251671e+02
370             	3.43157042e+02
371             	3.43106291e+02
372             	3.43100296e+02
373             	3.43127967e+02
374             	3.43173402e+02
375             	3.43221968e+02
376             	3.43282011e+02
377             	3.43354572e+02
378             	3.43435101e+02
379             	3.43510116e+02
380             	3.43565870e+02
381             	3.43639089e+02
382             	3.43723773e+02
383             	3.43769839e+02
384             	3.43807474e+02
385             	3.43820128e+02
386             	3.43832418e+02
387             	3.43821488e+02
388             	3.43788098e+02
389             	3.43752019e+02
390             	3.43719162e+02
391             	3.43687293e+02
392             	3.43654311e+02
393             	3.43611011e+02
394             	3.43572288e+02
395             	3.43547880e+02
396             	3.43501939e+02
397             	3.43460892e+02
398             	3.43465009e+02
399             	3.43491628e+02
400             	3.43518686e+02
401             	3.43556104e+02
402             	3.43603873e+02
403             	3.43664600e+02
404             	3.43660493e+02
405             	3.43680569e+02
406             	3.43717713e+02
407             	3.43746717e+02
408             	3.43762512e+02
409             	3.43730739e+02
410             	3.43682724e+02
411             	3.43626864e+02
412             	3.43582635e+02
413             	3.43548828e+02
414             	3.43469139e+02
415             	3.43417614e+02
416             	3.43401809e+02
417             	3.43367593e+02
418             	3.43363396e+02
419             	3.43389689e+02
420             	3.43389808e+02
421             	3.43417478e+02
422             	3.43453974e+02
423             	3.43529680e+02
424             	3.43540762e+02
425             	3.43626882e+02
426             	3.43672560e+02
427             	3.43688327e+02
428             	3.43632220e+02
429             	3.43546212e+02
430             	3.43470748e+02
431             	3.43412241e+02
432             	3.43376560e+02
433             	3.43352176e+02
434             	3.43335555e+02
435             	3.43300412e+02
436             	3.43242917e+02
437             	3.43223419e+02
438             	3.43238301e+02
439             	3.43267087e+02
440             	3.43246743e+02
441             	3.43256686e+02
442             	3.43325710e+02
443             	3.43406546e+02
444             	3.43472915e+02
445             	3.43471053e+02
446             	3.43501237e+02
447             	3.43512470e+02
448             	3.43492692e+02
449             	3.43453228e+02
450             	3.43401762e+02
451             	3.43358982e+02
452             	3.43293715e+02
453             	3.43209885e+02
454             	3.43124576e+02
455             	3.43056712e+02
456             	3.42999785e+02
457             	3.42964174e+02
458             	3.42945075e+02
459             	3.42944345e+02
460             	3.42961683e+02
461             	3.42994775e+02
462             	3.43037110e+02
463             	3.43074819e+02
464             	3.43134099e+02
465             	3.43191289e+02
466             	3.43224221e+02
467             	3.43244066e+02
468             	3.43244275e+02
469             	3.43234998e+02
470             	3.43216722e+02
471             	3.43187829e+02
472             	3.43150168e+02
473             	3.43112550e+02
474             	3.43079544e+02
475             	3.43015232e+02
476             	3.42976601e+02
477             	3.42959592e+02
478             	3.42921609e+02
479             	3.42896706e+02
480             	3.42884089e+02
481             	3.42909101e+02
482             	3.42949774e+02
483             	3.42989552e+02
484             	3.43022722e+02
485             	3.43068402e+02
486             	3.43146306e+02
487             	3.43175768e+02
488             	3.43188839e+02
489             	3.43186373e+02
490             	3.43200912e+02
491             	3.43211527e+02
492             	3.43214599e+02
493             	3.43216066e+02
494             	3.43194285e+02
495             	3.43177885e+02
496             	3.43163633e+02
497             	3.43149324e+02
498             	3.43134326e+02
499             	3.43122931e+02
500             	3.43104731e+02
501             	3.43111308e+02
502             	3.43086402e+02
503             	3.43048171e+02
504             	3.43009799e+02
505             	3.42987328e+02
506             	3.42979757e+02
507             	3.42965054e+02
508             	3.42958834e+02
509             	3.42886698e+02
510             	3.42863710e+02
511             	3.42882172e+02
512             	3.42923019e+02
513             	3.42974294e+02
514             	3.43038844e+02
515             	3.43095238e+02
516             	3.43156471e+02
517             	3.43251606e+02
518             	3.43275240e+02
519             	3.43322991e+02
520             	3.43367320e+02
521             	3.43410083e+02
522             	3.43444215e+02
523             	3.43474268e+02
524             	3.43495591e+02
525             	3.43450375e+02
526             	3.43432241e+02
527             	3.43429376e+02
528             	3.43440599e+02
529             	3.43452004e+02
530             	3.43453270e+02
531             	3.43429289e+02
532             	3.43426313e+02
533             	3.43441491e+02
534             	3.43471325e+02
535             	3.43498427e+02
536             	3.43523695e+02
537             	3.43548469e+02
538             	3.43537100e+02
539             	3.43536025e+02
540             	3.43563541e+02
541             	3.43590608e+02
542             	3.43626731e+02
543             	3.43634046e+02
544             	3.43608577e+02
545             	3.43579730e+02
546             	3.43547671e+02
547             	3.43514366e+02
548             	3.43468374e+02
549             	3.43425561e+02
550             	3.43375906e+02
551             	3.43336195e+02
552             	3.43303841e+02
553             	3.43289442e+02
554             	3.43285348e+02
555             	3.43281749e+02
556             	3.43280446e+02
557             	3.43282868e+02
558             	3.43291857e+02
559             	3.43295394e+02
560             	3.43289453e+02
561             	3.43297950e+02
562             	3.43322691e+02
563             	3.43350675e+02
564             	3.43379350e+02
565             	3.43410157e+02
566             	3.43437114e+02
567             	3.43461462e+02
568             	3.43488270e+02
569             	3.43555825e+02
570             	3.43562839e+02
571             	3.43556459e+02
572             	3.43553833e+02
573             	3.43547851e+02
574             	3.43538365e+02
575             	3.43525218e+02
576             	3.43492700e+02
577             	3.43460634e+02
578             	3.43449056e+02
579             	3.43445913e+02
580             	3.43450109e+02
581             	3.43463269e+02
582             	3.43486506e+02
583             	3.43518830e+02
584             	3.43556300e+02
585             	3.43596881e+02
586             	3.43643247e+02
587             	3.43684653e+02
588             	3.43684527e+02
589             	3.43702505e+02
590             	3.43713565e+02
591             	3.43704689e+02
592             	3.43688052e+02
593             	3.43663804e+02
594             	3.43657740e+02
595             	3.43658824e+02
596             	3.43660948e+02
597             	3.43663032e+02
598             	3.43667036e+02
599             	3.43675869e+02
600             	3.43691666e+02
601             	3.43708792e+02
602             	3.43717045e+02
603             	3.43729302e+02
604             	3.43749098e+02
605             	3.43749908e+02
606             	3.43740948e+02
607             	3.43738350e+02
608             	3.43734453e+02
609             	3.43717633e+02
610             	3.43694817e+02
611             	3.43666039e+02
612             	3.43639683e+02
613             	3.43609443e+02
614             	3.43575974e+02
615             	3.43540734e+02
616             	3.43505945e+02
617             	3.43479135e+02
618             	3.43450222e+02
619             	3.43424002e+02
620             	3.43405114e+02
621             	3.43395448e+02
