# Region        : cellZone component_2
# Cells         : 133
# Volume        : 2.32441974e-01
# Time          	volAverage(T)
1               	3.00277828e+02
2               	3.00553240e+02
3               	3.00815481e+02
4               	3.01069915e+02
5               	3.01320129e+02
6               	3.01567373e+02
7               	3.01812430e+02
8               	3.02055684e+02
9               	3.02297536e+02
10              	3.02538117e+02
11              	3.02776741e+02
12              	3.03013835e+02
13              	3.03250622e+02
14              	3.03485789e+02
15              	3.03719498e+02
16              	3.03952771e+02
17              	3.04183817e+02
18              	3.04413981e+02
19              	3.04641660e+02
20              	3.04867572e+02
21              	3.05090142e+02
22              	3.05309319e+02
23              	3.05524153e+02
24              	3.05733146e+02
25              	3.05938635e+02
26              	3.06140679e+02
27              	3.06339790e+02
28              	3.06537719e+02
29              	3.06735550e+02
30              	3.06934186e+02
31              	3.07132041e+02
32              	3.07331528e+02
33              	3.07527737e+02
34              	3.07722088e+02
35              	3.07912523e+02
36              	3.08101837e+02
37              	3.08288986e+02
38              	3.08472092e+02
39              	3.08652674e+02
40              	3.08833479e+02
41              	3.09012305e+02
42              	3.09189929e+02
43              	3.09365571e+02
44              	3.09541205e+02
45              	3.09714052e+02
46              	3.09883948e+02
47              	3.10053847e+02
48              	3.10219433e+02
49              	3.10383584e+02
50              	3.10547351e+02
51              	3.10712994e+02
52              	3.10878847e+02
53              	3.11046061e+02
54              	3.11212414e+02
55              	3.11372767e+02
56              	3.11529779e+02
57              	3.11683305e+02
58              	3.11830939e+02
59              	3.11975382e+02
60              	3.12123756e+02
61              	3.12250864e+02
62              	3.12362351e+02
63              	3.12470189e+02
64              	3.12582878e+02
65              	3.12700397e+02
66              	3.12819943e+02
67              	3.12943941e+02
68              	3.13070414e+02
69              	3.13197493e+02
70              	3.13321563e+02
71              	3.13448520e+02
72              	3.13573607e+02
73              	3.13698288e+02
74              	3.13820053e+02
75              	3.13943604e+02
76              	3.14068810e+02
77              	3.14195588e+02
78              	3.14322523e+02
79              	3.14448563e+02
80              	3.14568499e+02
81              	3.14680986e+02
82              	3.14787870e+02
83              	3.14889962e+02
84              	3.14988610e+02
85              	3.15089681e+02
86              	3.15194524e+02
87              	3.15298195e+02
88              	3.15398920e+02
89              	3.15501517e+02
90              	3.15602945e+02
91              	3.15702797e+02
92              	3.15797207e+02
93              	3.15887226e+02
94              	3.15979216e+02
95              	3.16072658e+02
96              	3.16162441e+02
97              	3.16255037e+02
98              	3.16346938e+02
99              	3.16436767e+02
100             	3.16527988e+02
101             	3.16617803e+02
102             	3.16709485e+02
103             	3.16801758e+02
104             	3.16897171e+02
105             	3.16987735e+02
106             	3.17081750e+02
107             	3.17174158e+02
108             	3.17267283e+02
109             	3.17358937e+02
110             	3.17451461e+02
111             	3.17544974e+02
112             	3.17636790e+02
113             	3.17725400e+02
114             	3.17805204e+02
115             	3.17888242e+02
116             	3.17972621e+02
117             	3.18056615e+02
118             	3.18140678e+02
119             	3.18220472e+02
120             	3.18298054e+02
121             	3.18373944e+02
122             	3.18449164e+02
123             	3.18524480e+02
124             	3.18596831e+02
125             	3.18669360e+02
126             	3.18738635e+02
127             	3.18810072e+02
128             	3.18881831e+02
129             	3.18953960e+02
130             	3.19025917e+02
131             	3.19098259e+02
132             	3.19169478e+02
133             	3.19238836e+02
134             	3.19307962e+02
135             	3.19377674e+02
136             	3.19442412e+02
137             	3.19505749e+02
138             	3.19572705e+02
139             	3.19638228e+02
140             	3.19704344e+02
141             	3.19771102e+02
142             	3.19838336e+02
143             	3.19905699e+02
144             	3.19973997e+02
145             	3.20040463e+02
146             	3.20105564e+02
147             	3.20168944e+02
148             	3.20226807e+02
149             	3.20283942e+02
150             	3.20339568e+02
151             	3.20394254e+02
152             	3.20444209e+02
153             	3.20495750e+02
154             	3.20549205e+02
155             	3.20602108e+02
156             	3.20657795e+02
157             	3.20712353e+02
158             	3.20767877e+02
159             	3.20824035e+02
160             	3.20878282e+02
161             	3.20929144e+02
162             	3.20978359e+02
163             	3.21026011e+02
164             	3.21070605e+02
165             	3.21114092e+02
166             	3.21155663e+02
167             	3.21197753e+02
168             	3.21239760e+02
169             	3.21283892e+02
170             	3.21329899e+02
171             	3.21378593e+02
172             	3.21427913e+02
173             	3.21479659e+02
174             	3.21532682e+02
175             	3.21586401e+02
176             	3.21640347e+02
177             	3.21695605e+02
178             	3.21746576e+02
179             	3.21793426e+02
180             	3.21837106e+02
181             	3.21879805e+02
182             	3.21920892e+02
183             	3.21961911e+02
184             	3.22002850e+02
185             	3.22043725e+02
186             	3.22084763e+02
187             	3.22126237e+02
188             	3.22167390e+02
189             	3.22207629e+02
190             	3.22245510e+02
191             	3.22280630e+02
192             	3.22313540e+02
193             	3.22345870e+02
194             	3.22377236e+02
195             	3.22407004e+02
196             	3.22434305e+02
197             	3.22464009e+02
198             	3.22493981e+02
199             	3.22523957e+02
200             	3.22555042e+02
201             	3.22587358e+02
202             	3.22620742e+02
203             	3.22656444e+02
204             	3.22688478e+02
205             	3.22719223e+02
206             	3.22750355e+02
207             	3.22782204e+02
208             	3.22810438e+02
209             	3.22839611e+02
210             	3.22870012e+02
211             	3.22901205e+02
212             	3.22932973e+02
213             	3.22965503e+02
214             	3.22998019e+02
215             	3.23029053e+02
216             	3.23059501e+02
217             	3.23089079e+02
218             	3.23117356e+02
219             	3.23145409e+02
220             	3.23172602e+02
221             	3.23198910e+02
222             	3.23224243e+02
223             	3.23248797e+02
224             	3.23270995e+02
225             	3.23294017e+02
226             	3.23317448e+02
227             	3.23340969e+02
228             	3.23364952e+02
229             	3.23389429e+02
230             	3.23414313e+02
231             	3.23438511e+02
232             	3.23463493e+02
233             	3.23488052e+02
234             	3.23512641e+02
235             	3.23537651e+02
236             	3.23563151e+02
237             	3.23588909e+02
238             	3.23614756e+02
239             	3.23640580e+02
240             	3.23666159e+02
241             	3.23691193e+02
242             	3.23715235e+02
243             	3.23738020e+02
244             	3.23759359e+02
245             	3.23779746e+02
246             	3.23799085e+02
247             	3.23817459e+02
248             	3.23835069e+02
249             	3.23852154e+02
250             	3.23868888e+02
251             	3.23885376e+02
252             	3.23901811e+02
253             	3.23918320e+02
254             	3.23934979e+02
255             	3.23951062e+02
256             	3.23968113e+02
257             	3.23985874e+02
258             	3.24003137e+02
259             	3.24021538e+02
260             	3.24040890e+02
261             	3.24060870e+02
262             	3.24081368e+02
263             	3.24102127e+02
264             	3.24122890e+02
265             	3.24144301e+02
266             	3.24165106e+02
267             	3.24185158e+02
268             	3.24204885e+02
269             	3.24224355e+02
270             	3.24242699e+02
271             	3.24259911e+02
272             	3.24276899e+02
273             	3.24292945e+02
274             	3.24309281e+02
275             	3.24325866e+02
276             	3.24342740e+02
277             	3.24359715e+02
278             	3.24376881e+02
279             	3.24394270e+02
280             	3.24412317e+02
281             	3.24430325e+02
282             	3.24446088e+02
283             	3.24462358e+02
284             	3.24479625e+02
285             	3.24496596e+02
286             	3.24512693e+02
287             	3.24527683e+02
288             	3.24541416e+02
289             	3.24553784e+02
290             	3.24565011e+02
291             	3.24575195e+02
292             	3.24584988e+02
293             	3.24595550e+02
294             	3.24603972e+02
295             	3.24612372e+02
296             	3.24621202e+02
297             	3.24630189e+02
298             	3.24641002e+02
299             	3.24652556e+02
300             	3.24665445e+02
301             	3.24679137e+02
302             	3.24691678e+02
303             	3.24705620e+02
304             	3.24719964e+02
305             	3.24733585e+02
306             	3.24746546e+02
307             	3.24758792e+02
308             	3.24770601e+02
309             	3.24782040e+02
310             	3.24793302e+02
311             	3.24803898e+02
312             	3.24814902e+02
313             	3.24826325e+02
314             	3.24838345e+02
315             	3.24851007e+02
316             	3.24864234e+02
317             	3.24876408e+02
318             	3.24888423e+02
319             	3.24900401e+02
320             	3.24912045e+02
321             	3.24923240e+02
322             	3.24933814e+02
323             	3.24943407e+02
324             	3.24950540e+02
325             	3.24958114e+02
326             	3.24965342e+02
327             	3.24972498e+02
328             	3.24979395e+02
329             	3.24986424e+02
330             	3.24993531e+02
331             	3.25000895e+02
332             	3.25008714e+02
333             	3.25017075e+02
334             	3.25025712e+02
335             	3.25034960e+02
336             	3.25044754e+02
337             	3.25054749e+02
338             	3.25064899e+02
339             	3.25075180e+02
340             	3.25085225e+02
341             	3.25094791e+02
342             	3.25104363e+02
343             	3.25112907e+02
344             	3.25120746e+02
345             	3.25127912e+02
346             	3.25134670e+02
347             	3.25141410e+02
348             	3.25147358e+02
349             	3.25153532e+02
350             	3.25160256e+02
351             	3.25167676e+02
352             	3.25175654e+02
353             	3.25183910e+02
354             	3.25193131e+02
355             	3.25202290e+02
356             	3.25211846e+02
357             	3.25221549e+02
358             	3.25230992e+02
359             	3.25239926e+02
360             	3.25248960e+02
361             	3.25256082e+02
362             	3.25262125e+02
363             	3.25267846e+02
364             	3.25273243e+02
365             	3.25278139e+02
366             	3.25282727e+02
367             	3.25287299e+02
368             	3.25291996e+02
369             	3.25296998e+02
370             	3.25302514e+02
371             	3.25308084e+02
372             	3.25314499e+02
373             	3.25320030e+02
374             	3.25326652e+02
375             	3.25333428e+02
376             	3.25340063e+02
377             	3.25346881e+02
378             	3.25354082e+02
379             	3.25361197e+02
380             	3.25368272e+02
381             	3.25375354e+02
382             	3.25382384e+02
383             	3.25388601e+02
384             	3.25394543e+02
385             	3.25400151e+02
386             	3.25405183e+02
387             	3.25409570e+02
388             	3.25413382e+02
389             	3.25417242e+02
390             	3.25420828e+02
391             	3.25424546e+02
392             	3.25428696e+02
393             	3.25432964e+02
394             	3.25437333e+02
395             	3.25442016e+02
396             	3.25447027e+02
397             	3.25452646e+02
398             	3.25459242e+02
399             	3.25466821e+02
400             	3.25475377e+02
401             	3.25484547e+02
402             	3.25493997e+02
403             	3.25503436e+02
404             	3.25512695e+02
405             	3.25521583e+02
406             	3.25529438e+02
407             	3.25536922e+02
408             	3.25543955e+02
409             	3.25550483e+02
410             	3.25556573e+02
411             	3.25561789e+02
412             	3.25566885e+02
413             	3.25571935e+02
414             	3.25576945e+02
415             	3.25581879e+02
416             	3.25586687e+02
417             	3.25591359e+02
418             	3.25595882e+02
419             	3.25599788e+02
420             	3.25603188e+02
421             	3.25606063e+02
422             	3.25608417e+02
423             	3.25610287e+02
424             	3.25611755e+02
425             	3.25612853e+02
426             	3.25613600e+02
427             	3.25614028e+02
428             	3.25614174e+02
429             	3.25614036e+02
430             	3.25613570e+02
431             	3.25612983e+02
432             	3.25612259e+02
433             	3.25611403e+02
434             	3.25610340e+02
435             	3.25609415e+02
436             	3.25608660e+02
437             	3.25608166e+02
438             	3.25608096e+02
439             	3.25608886e+02
440             	3.25609850e+02
441             	3.25611098e+02
442             	3.25612677e+02
443             	3.25614503e+02
444             	3.25616403e+02
445             	3.25618184e+02
446             	3.25619993e+02
447             	3.25621926e+02
448             	3.25623937e+02
449             	3.25625870e+02
450             	3.25627661e+02
451             	3.25629309e+02
452             	3.25630810e+02
453             	3.25632206e+02
454             	3.25633580e+02
455             	3.25635068e+02
456             	3.25636794e+02
457             	3.25638880e+02
458             	3.25641272e+02
459             	3.25644121e+02
460             	3.25647299e+02
461             	3.25650793e+02
462             	3.25654535e+02
463             	3.25658410e+02
464             	3.25662251e+02
465             	3.25665963e+02
466             	3.25669454e+02
467             	3.25672625e+02
468             	3.25675364e+02
469             	3.25677579e+02
470             	3.25679274e+02
471             	3.25680452e+02
472             	3.25681158e+02
473             	3.25681472e+02
474             	3.25681485e+02
475             	3.25681294e+02
476             	3.25680981e+02
477             	3.25680614e+02
478             	3.25680253e+02
479             	3.25679938e+02
480             	3.25679705e+02
481             	3.25679582e+02
482             	3.25679594e+02
483             	3.25679761e+02
484             	3.25680094e+02
485             	3.25680594e+02
486             	3.25681257e+02
487             	3.25682063e+02
488             	3.25682988e+02
489             	3.25684010e+02
490             	3.25685109e+02
491             	3.25686269e+02
492             	3.25687573e+02
493             	3.25688929e+02
494             	3.25690370e+02
495             	3.25691946e+02
496             	3.25693709e+02
497             	3.25695688e+02
498             	3.25697807e+02
499             	3.25700195e+02
500             	3.25702858e+02
501             	3.25705758e+02
502             	3.25708860e+02
503             	3.25712126e+02
504             	3.25715523e+02
505             	3.25719012e+02
506             	3.25722549e+02
507             	3.25726093e+02
508             	3.25729603e+02
509             	3.25733045e+02
510             	3.25736402e+02
511             	3.25739641e+02
512             	3.25742740e+02
513             	3.25745692e+02
514             	3.25748489e+02
515             	3.25751124e+02
516             	3.25753595e+02
517             	3.25755901e+02
518             	3.25758501e+02
519             	3.25760595e+02
520             	3.25762227e+02
521             	3.25763397e+02
522             	3.25763773e+02
523             	3.25764110e+02
524             	3.25764344e+02
525             	3.25764400e+02
526             	3.25764230e+02
527             	3.25763833e+02
528             	3.25763231e+02
529             	3.25762493e+02
530             	3.25761726e+02
531             	3.25761040e+02
532             	3.25760530e+02
533             	3.25760296e+02
534             	3.25760430e+02
535             	3.25761019e+02
536             	3.25762208e+02
537             	3.25763864e+02
538             	3.25766051e+02
539             	3.25768798e+02
540             	3.25772085e+02
541             	3.25775864e+02
542             	3.25780058e+02
543             	3.25784584e+02
544             	3.25789354e+02
545             	3.25794263e+02
546             	3.25799216e+02
547             	3.25804112e+02
548             	3.25808857e+02
549             	3.25813362e+02
550             	3.25817545e+02
551             	3.25821333e+02
552             	3.25824658e+02
553             	3.25827474e+02
554             	3.25829756e+02
555             	3.25831484e+02
556             	3.25832680e+02
557             	3.25833385e+02
558             	3.25833629e+02
559             	3.25833443e+02
560             	3.25832875e+02
561             	3.25831977e+02
562             	3.25830805e+02
563             	3.25829416e+02
564             	3.25827859e+02
565             	3.25826185e+02
566             	3.25824444e+02
567             	3.25822686e+02
568             	3.25820964e+02
569             	3.25819320e+02
570             	3.25817795e+02
571             	3.25816419e+02
572             	3.25815220e+02
573             	3.25814217e+02
574             	3.25813427e+02
575             	3.25812871e+02
576             	3.25812560e+02
577             	3.25812500e+02
578             	3.25812694e+02
579             	3.25813149e+02
580             	3.25813867e+02
581             	3.25814845e+02
582             	3.25816087e+02
583             	3.25817570e+02
584             	3.25819268e+02
585             	3.25821161e+02
586             	3.25823231e+02
587             	3.25825448e+02
588             	3.25827784e+02
589             	3.25830207e+02
590             	3.25832695e+02
591             	3.25835219e+02
592             	3.25837820e+02
593             	3.25840318e+02
594             	3.25842717e+02
595             	3.25845019e+02
596             	3.25847209e+02
597             	3.25849267e+02
598             	3.25851165e+02
599             	3.25852881e+02
600             	3.25854400e+02
601             	3.25855706e+02
602             	3.25856781e+02
603             	3.25857619e+02
604             	3.25858218e+02
605             	3.25858577e+02
606             	3.25858700e+02
607             	3.25858592e+02
608             	3.25858259e+02
609             	3.25857707e+02
610             	3.25856946e+02
611             	3.25855415e+02
612             	3.25854287e+02
613             	3.25853322e+02
614             	3.25852424e+02
615             	3.25851647e+02
616             	3.25851180e+02
617             	3.25850729e+02
618             	3.25850445e+02
619             	3.25850451e+02
620             	3.25851417e+02
621             	3.25852222e+02
