# Region        : cellZone component_4
# Cells         : 224
# Volume        : 4.38475387e-01
# Time          	volAverage(T)
1               	3.00473247e+02
2               	3.00938527e+02
3               	3.01339722e+02
4               	3.01700647e+02
5               	3.02048283e+02
6               	3.02388163e+02
7               	3.02719325e+02
8               	3.03042817e+02
9               	3.03359214e+02
10              	3.03669822e+02
11              	3.03976217e+02
12              	3.04277338e+02
13              	3.04573777e+02
14              	3.04866221e+02
15              	3.05155033e+02
16              	3.05441500e+02
17              	3.05724934e+02
18              	3.06004135e+02
19              	3.06278515e+02
20              	3.06546619e+02
21              	3.06808118e+02
22              	3.07063075e+02
23              	3.07311461e+02
24              	3.07553339e+02
25              	3.07789170e+02
26              	3.08019029e+02
27              	3.08245473e+02
28              	3.08467871e+02
29              	3.08686914e+02
30              	3.08903124e+02
31              	3.09115680e+02
32              	3.09323621e+02
33              	3.09522267e+02
34              	3.09720127e+02
35              	3.09914522e+02
36              	3.10102378e+02
37              	3.10283161e+02
38              	3.10458507e+02
39              	3.10624792e+02
40              	3.10782290e+02
41              	3.10932461e+02
42              	3.11075761e+02
43              	3.11213496e+02
44              	3.11345926e+02
45              	3.11476811e+02
46              	3.11606383e+02
47              	3.11734953e+02
48              	3.11863713e+02
49              	3.11992075e+02
50              	3.12122117e+02
51              	3.12251721e+02
52              	3.12381921e+02
53              	3.12511377e+02
54              	3.12637769e+02
55              	3.12756194e+02
56              	3.12869736e+02
57              	3.12974185e+02
58              	3.13074847e+02
59              	3.13168451e+02
60              	3.13257311e+02
61              	3.13339751e+02
62              	3.13421195e+02
63              	3.13500501e+02
64              	3.13580427e+02
65              	3.13659600e+02
66              	3.13738413e+02
67              	3.13817739e+02
68              	3.13897672e+02
69              	3.13976799e+02
70              	3.14052957e+02
71              	3.14129054e+02
72              	3.14203260e+02
73              	3.14270335e+02
74              	3.14330493e+02
75              	3.14383712e+02
76              	3.14432152e+02
77              	3.14473813e+02
78              	3.14509838e+02
79              	3.14544037e+02
80              	3.14578763e+02
81              	3.14616581e+02
82              	3.14658147e+02
83              	3.14702125e+02
84              	3.14749408e+02
85              	3.14798132e+02
86              	3.14845747e+02
87              	3.14890791e+02
88              	3.14931441e+02
89              	3.14967014e+02
90              	3.14997538e+02
91              	3.15025511e+02
92              	3.15051751e+02
93              	3.15077386e+02
94              	3.15101705e+02
95              	3.15125778e+02
96              	3.15148924e+02
97              	3.15171524e+02
98              	3.15193308e+02
99              	3.15213790e+02
100             	3.15234096e+02
101             	3.15254042e+02
102             	3.15273527e+02
103             	3.15292737e+02
104             	3.15312001e+02
105             	3.15331032e+02
106             	3.15349695e+02
107             	3.15367741e+02
108             	3.15385919e+02
109             	3.15401759e+02
110             	3.15416205e+02
111             	3.15428829e+02
112             	3.15440041e+02
113             	3.15449375e+02
114             	3.15457161e+02
115             	3.15463344e+02
116             	3.15467988e+02
117             	3.15471375e+02
118             	3.15473929e+02
119             	3.15476123e+02
120             	3.15478648e+02
121             	3.15481716e+02
122             	3.15485211e+02
123             	3.15489083e+02
124             	3.15493763e+02
125             	3.15498782e+02
126             	3.15504003e+02
127             	3.15509426e+02
128             	3.15514475e+02
129             	3.15518452e+02
130             	3.15521356e+02
131             	3.15522977e+02
132             	3.15523021e+02
133             	3.15521323e+02
134             	3.15518409e+02
135             	3.15514246e+02
136             	3.15509467e+02
137             	3.15505166e+02
138             	3.15502188e+02
139             	3.15500374e+02
140             	3.15499768e+02
141             	3.15500112e+02
142             	3.15500694e+02
143             	3.15500547e+02
144             	3.15499568e+02
145             	3.15497179e+02
146             	3.15493150e+02
147             	3.15487597e+02
148             	3.15480344e+02
149             	3.15472114e+02
150             	3.15463265e+02
151             	3.15455205e+02
152             	3.15448804e+02
153             	3.15443320e+02
154             	3.15439676e+02
155             	3.15437624e+02
156             	3.15436743e+02
157             	3.15435796e+02
158             	3.15434373e+02
159             	3.15431463e+02
160             	3.15426320e+02
161             	3.15418812e+02
162             	3.15409292e+02
163             	3.15398253e+02
164             	3.15387463e+02
165             	3.15377294e+02
166             	3.15368446e+02
167             	3.15361232e+02
168             	3.15355477e+02
169             	3.15351049e+02
170             	3.15347662e+02
171             	3.15344909e+02
172             	3.15341655e+02
173             	3.15337342e+02
174             	3.15332234e+02
175             	3.15325632e+02
176             	3.15317893e+02
177             	3.15308787e+02
178             	3.15298714e+02
179             	3.15287897e+02
180             	3.15277288e+02
181             	3.15266623e+02
182             	3.15257316e+02
183             	3.15249963e+02
184             	3.15244338e+02
185             	3.15240086e+02
186             	3.15236682e+02
187             	3.15233485e+02
188             	3.15229675e+02
189             	3.15224578e+02
190             	3.15217588e+02
191             	3.15208732e+02
192             	3.15198217e+02
193             	3.15186860e+02
194             	3.15174202e+02
195             	3.15163128e+02
196             	3.15153842e+02
197             	3.15146779e+02
198             	3.15142219e+02
199             	3.15139250e+02
200             	3.15137045e+02
201             	3.15134821e+02
202             	3.15131457e+02
203             	3.15126449e+02
204             	3.15118939e+02
205             	3.15109260e+02
206             	3.15098036e+02
207             	3.15085377e+02
208             	3.15071697e+02
209             	3.15060129e+02
210             	3.15050944e+02
211             	3.15044618e+02
212             	3.15040683e+02
213             	3.15038700e+02
214             	3.15037993e+02
215             	3.15036520e+02
216             	3.15033747e+02
217             	3.15028898e+02
218             	3.15021391e+02
219             	3.15011339e+02
220             	3.14999708e+02
221             	3.14985915e+02
222             	3.14973639e+02
223             	3.14963903e+02
224             	3.14957090e+02
225             	3.14953430e+02
226             	3.14952281e+02
227             	3.14952798e+02
228             	3.14953471e+02
229             	3.14952805e+02
230             	3.14950160e+02
231             	3.14944733e+02
232             	3.14936442e+02
233             	3.14925768e+02
234             	3.14913040e+02
235             	3.14900684e+02
236             	3.14890206e+02
237             	3.14881110e+02
238             	3.14874236e+02
239             	3.14869874e+02
240             	3.14867297e+02
241             	3.14865929e+02
242             	3.14864852e+02
243             	3.14863858e+02
244             	3.14862415e+02
245             	3.14859645e+02
246             	3.14855680e+02
247             	3.14850305e+02
248             	3.14843753e+02
249             	3.14836049e+02
250             	3.14827452e+02
251             	3.14818253e+02
252             	3.14808914e+02
253             	3.14800428e+02
254             	3.14793682e+02
255             	3.14789367e+02
256             	3.14787132e+02
257             	3.14786783e+02
258             	3.14787771e+02
259             	3.14788513e+02
260             	3.14788653e+02
261             	3.14787320e+02
262             	3.14783901e+02
263             	3.14778362e+02
264             	3.14770856e+02
265             	3.14761669e+02
266             	3.14751195e+02
267             	3.14741024e+02
268             	3.14732987e+02
269             	3.14727501e+02
270             	3.14725069e+02
271             	3.14725520e+02
272             	3.14728397e+02
273             	3.14732588e+02
274             	3.14735959e+02
275             	3.14737339e+02
276             	3.14735934e+02
277             	3.14731170e+02
278             	3.14723686e+02
279             	3.14713773e+02
280             	3.14704104e+02
281             	3.14695696e+02
282             	3.14689512e+02
283             	3.14685427e+02
284             	3.14683181e+02
285             	3.14682886e+02
286             	3.14683803e+02
287             	3.14685533e+02
288             	3.14687005e+02
289             	3.14687616e+02
290             	3.14687337e+02
291             	3.14685791e+02
292             	3.14682971e+02
293             	3.14678660e+02
294             	3.14673704e+02
295             	3.14668345e+02
296             	3.14662984e+02
297             	3.14657686e+02
298             	3.14653357e+02
299             	3.14649832e+02
300             	3.14647131e+02
301             	3.14645563e+02
302             	3.14645132e+02
303             	3.14645555e+02
304             	3.14646495e+02
305             	3.14647911e+02
306             	3.14649166e+02
307             	3.14650335e+02
308             	3.14650934e+02
309             	3.14650801e+02
310             	3.14649832e+02
311             	3.14647896e+02
312             	3.14645052e+02
313             	3.14641156e+02
314             	3.14636908e+02
315             	3.14633441e+02
316             	3.14630458e+02
317             	3.14628373e+02
318             	3.14627386e+02
319             	3.14627442e+02
320             	3.14628228e+02
321             	3.14629427e+02
322             	3.14630738e+02
323             	3.14631897e+02
324             	3.14632934e+02
325             	3.14633850e+02
326             	3.14634407e+02
327             	3.14634564e+02
328             	3.14634227e+02
329             	3.14633290e+02
330             	3.14631764e+02
331             	3.14629470e+02
332             	3.14626685e+02
333             	3.14623723e+02
334             	3.14621155e+02
335             	3.14619915e+02
336             	3.14620149e+02
337             	3.14621679e+02
338             	3.14624341e+02
339             	3.14627498e+02
340             	3.14630443e+02
341             	3.14632472e+02
342             	3.14633289e+02
343             	3.14632592e+02
344             	3.14630460e+02
345             	3.14627180e+02
346             	3.14623727e+02
347             	3.14621013e+02
348             	3.14619457e+02
349             	3.14618876e+02
350             	3.14619628e+02
351             	3.14621696e+02
352             	3.14624573e+02
353             	3.14627309e+02
354             	3.14629611e+02
355             	3.14630877e+02
356             	3.14630987e+02
357             	3.14629711e+02
358             	3.14627239e+02
359             	3.14623868e+02
360             	3.14620568e+02
361             	3.14618309e+02
362             	3.14616843e+02
363             	3.14616521e+02
364             	3.14617618e+02
365             	3.14619824e+02
366             	3.14622579e+02
367             	3.14625256e+02
368             	3.14627352e+02
369             	3.14628595e+02
370             	3.14628931e+02
371             	3.14628218e+02
372             	3.14626552e+02
373             	3.14624206e+02
374             	3.14621678e+02
375             	3.14619271e+02
376             	3.14617541e+02
377             	3.14617007e+02
378             	3.14617681e+02
379             	3.14619488e+02
380             	3.14622401e+02
381             	3.14625984e+02
382             	3.14629426e+02
383             	3.14632506e+02
384             	3.14634790e+02
385             	3.14635858e+02
386             	3.14635718e+02
387             	3.14634323e+02
388             	3.14631892e+02
389             	3.14629527e+02
390             	3.14627694e+02
391             	3.14626344e+02
392             	3.14625499e+02
393             	3.14625200e+02
394             	3.14625485e+02
395             	3.14626427e+02
396             	3.14627881e+02
397             	3.14629584e+02
398             	3.14631475e+02
399             	3.14633407e+02
400             	3.14634985e+02
401             	3.14636295e+02
402             	3.14637164e+02
403             	3.14637529e+02
404             	3.14637301e+02
405             	3.14636790e+02
406             	3.14635926e+02
407             	3.14635090e+02
408             	3.14634234e+02
409             	3.14633443e+02
410             	3.14632824e+02
411             	3.14632512e+02
412             	3.14632662e+02
413             	3.14633061e+02
414             	3.14633531e+02
415             	3.14634421e+02
416             	3.14635479e+02
417             	3.14636750e+02
418             	3.14638210e+02
419             	3.14639796e+02
420             	3.14641339e+02
421             	3.14642535e+02
422             	3.14643305e+02
423             	3.14643530e+02
424             	3.14643061e+02
425             	3.14641889e+02
426             	3.14640850e+02
427             	3.14639910e+02
428             	3.14639514e+02
429             	3.14639559e+02
430             	3.14640123e+02
431             	3.14641263e+02
432             	3.14642759e+02
433             	3.14644213e+02
434             	3.14645594e+02
435             	3.14646634e+02
436             	3.14647218e+02
437             	3.14647279e+02
438             	3.14646946e+02
439             	3.14646298e+02
440             	3.14645542e+02
441             	3.14644690e+02
442             	3.14644339e+02
443             	3.14644481e+02
444             	3.14644894e+02
445             	3.14645575e+02
446             	3.14646490e+02
447             	3.14647508e+02
448             	3.14648666e+02
449             	3.14649852e+02
450             	3.14650946e+02
451             	3.14651848e+02
452             	3.14652577e+02
453             	3.14652889e+02
454             	3.14652912e+02
455             	3.14652625e+02
456             	3.14652204e+02
457             	3.14651571e+02
458             	3.14650921e+02
459             	3.14650673e+02
460             	3.14650660e+02
461             	3.14650880e+02
462             	3.14651392e+02
463             	3.14652208e+02
464             	3.14653285e+02
465             	3.14654442e+02
466             	3.14655524e+02
467             	3.14656281e+02
468             	3.14656840e+02
469             	3.14656889e+02
470             	3.14656572e+02
471             	3.14655829e+02
472             	3.14654951e+02
473             	3.14653953e+02
474             	3.14653381e+02
475             	3.14653289e+02
476             	3.14653623e+02
477             	3.14654403e+02
478             	3.14655548e+02
479             	3.14657038e+02
480             	3.14658625e+02
481             	3.14659936e+02
482             	3.14660792e+02
483             	3.14661158e+02
484             	3.14660810e+02
485             	3.14659616e+02
486             	3.14658339e+02
487             	3.14656770e+02
488             	3.14655381e+02
489             	3.14654478e+02
490             	3.14654314e+02
491             	3.14654773e+02
492             	3.14655788e+02
493             	3.14657239e+02
494             	3.14658970e+02
495             	3.14660593e+02
496             	3.14662017e+02
497             	3.14662952e+02
498             	3.14663362e+02
499             	3.14663041e+02
500             	3.14661935e+02
501             	3.14660643e+02
502             	3.14659027e+02
503             	3.14657602e+02
504             	3.14656595e+02
505             	3.14656323e+02
506             	3.14656818e+02
507             	3.14657855e+02
508             	3.14659226e+02
509             	3.14660892e+02
510             	3.14662508e+02
511             	3.14663838e+02
512             	3.14664589e+02
513             	3.14664693e+02
514             	3.14664076e+02
515             	3.14662752e+02
516             	3.14661105e+02
517             	3.14659285e+02
518             	3.14657842e+02
519             	3.14657096e+02
520             	3.14657100e+02
521             	3.14657864e+02
522             	3.14659181e+02
523             	3.14660776e+02
524             	3.14662582e+02
525             	3.14664100e+02
526             	3.14665460e+02
527             	3.14666368e+02
528             	3.14666719e+02
529             	3.14666629e+02
530             	3.14665989e+02
531             	3.14665099e+02
532             	3.14663821e+02
533             	3.14662354e+02
534             	3.14660731e+02
535             	3.14659403e+02
536             	3.14658886e+02
537             	3.14659144e+02
538             	3.14660115e+02
539             	3.14661767e+02
540             	3.14663651e+02
541             	3.14665729e+02
542             	3.14667528e+02
543             	3.14668704e+02
544             	3.14669341e+02
545             	3.14669238e+02
546             	3.14668529e+02
547             	3.14667373e+02
548             	3.14665872e+02
549             	3.14664208e+02
550             	3.14662600e+02
551             	3.14661441e+02
552             	3.14660903e+02
553             	3.14661233e+02
554             	3.14662351e+02
555             	3.14663873e+02
556             	3.14665845e+02
557             	3.14667696e+02
558             	3.14669198e+02
559             	3.14670102e+02
560             	3.14670346e+02
561             	3.14669754e+02
562             	3.14668541e+02
563             	3.14666874e+02
564             	3.14665022e+02
565             	3.14663418e+02
566             	3.14662551e+02
567             	3.14662241e+02
568             	3.14662476e+02
569             	3.14663430e+02
570             	3.14664530e+02
571             	3.14665764e+02
572             	3.14667048e+02
573             	3.14668151e+02
574             	3.14669033e+02
575             	3.14669624e+02
576             	3.14669948e+02
577             	3.14669987e+02
578             	3.14669731e+02
579             	3.14669568e+02
580             	3.14669228e+02
581             	3.14668994e+02
582             	3.14668694e+02
583             	3.14668285e+02
584             	3.14667830e+02
585             	3.14667227e+02
586             	3.14666461e+02
587             	3.14665614e+02
588             	3.14664717e+02
589             	3.14664171e+02
590             	3.14663968e+02
591             	3.14664049e+02
592             	3.14664516e+02
593             	3.14665198e+02
594             	3.14666213e+02
595             	3.14667399e+02
596             	3.14668442e+02
597             	3.14669251e+02
598             	3.14669906e+02
599             	3.14670096e+02
600             	3.14670062e+02
601             	3.14669678e+02
602             	3.14669184e+02
603             	3.14668503e+02
604             	3.14667857e+02
605             	3.14667117e+02
606             	3.14666464e+02
607             	3.14666149e+02
608             	3.14666169e+02
609             	3.14666370e+02
610             	3.14666880e+02
611             	3.14667526e+02
612             	3.14668322e+02
613             	3.14669168e+02
614             	3.14669940e+02
615             	3.14670640e+02
616             	3.14671095e+02
617             	3.14671227e+02
618             	3.14671213e+02
619             	3.14670889e+02
620             	3.14670446e+02
621             	3.14669830e+02
