# Region        : cellZone component_1
# Cells         : 105
# Volume        : 1.92603116e-01
# Time          	volAverage(T)
1               	3.00308559e+02
2               	3.00618142e+02
3               	3.00912282e+02
4               	3.01196348e+02
5               	3.01474862e+02
6               	3.01750050e+02
7               	3.02021820e+02
8               	3.02291280e+02
9               	3.02557465e+02
10              	3.02825268e+02
11              	3.03086109e+02
12              	3.03341881e+02
13              	3.03591038e+02
14              	3.03837720e+02
15              	3.04080420e+02
16              	3.04323735e+02
17              	3.04560454e+02
18              	3.04796207e+02
19              	3.05028572e+02
20              	3.05257725e+02
21              	3.05484313e+02
22              	3.05709589e+02
23              	3.05933556e+02
24              	3.06156596e+02
25              	3.06377193e+02
26              	3.06594190e+02
27              	3.06807200e+02
28              	3.07018587e+02
29              	3.07227444e+02
30              	3.07436547e+02
31              	3.07642338e+02
32              	3.07844297e+02
33              	3.08045220e+02
34              	3.08245600e+02
35              	3.08450741e+02
36              	3.08637817e+02
37              	3.08798172e+02
38              	3.08959404e+02
39              	3.09124756e+02
40              	3.09302442e+02
41              	3.09477675e+02
42              	3.09651172e+02
43              	3.09825076e+02
44              	3.09994932e+02
45              	3.10171660e+02
46              	3.10351004e+02
47              	3.10528656e+02
48              	3.10707396e+02
49              	3.10880742e+02
50              	3.11043614e+02
51              	3.11200309e+02
52              	3.11356159e+02
53              	3.11510168e+02
54              	3.11663564e+02
55              	3.11812432e+02
56              	3.11961137e+02
57              	3.12113271e+02
58              	3.12261744e+02
59              	3.12403919e+02
60              	3.12548661e+02
61              	3.12696698e+02
62              	3.12846055e+02
63              	3.12988490e+02
64              	3.13126330e+02
65              	3.13254436e+02
66              	3.13376775e+02
67              	3.13496988e+02
68              	3.13616982e+02
69              	3.13733519e+02
70              	3.13845916e+02
71              	3.13953256e+02
72              	3.14059909e+02
73              	3.14166099e+02
74              	3.14276775e+02
75              	3.14389436e+02
76              	3.14496129e+02
77              	3.14602488e+02
78              	3.14710319e+02
79              	3.14818598e+02
80              	3.14926925e+02
81              	3.15030283e+02
82              	3.15126476e+02
83              	3.15220837e+02
84              	3.15310422e+02
85              	3.15398668e+02
86              	3.15486252e+02
87              	3.15574064e+02
88              	3.15662663e+02
89              	3.15753692e+02
90              	3.15843320e+02
91              	3.15933695e+02
92              	3.16023954e+02
93              	3.16114395e+02
94              	3.16204299e+02
95              	3.16292893e+02
96              	3.16381850e+02
97              	3.16468665e+02
98              	3.16555096e+02
99              	3.16639775e+02
100             	3.16724492e+02
101             	3.16805472e+02
102             	3.16886269e+02
103             	3.16964359e+02
104             	3.17043189e+02
105             	3.17121081e+02
106             	3.17197808e+02
107             	3.17275802e+02
108             	3.17354422e+02
109             	3.17434004e+02
110             	3.17513069e+02
111             	3.17591803e+02
112             	3.17668793e+02
113             	3.17744726e+02
114             	3.17814689e+02
115             	3.17885209e+02
116             	3.17955772e+02
117             	3.18022891e+02
118             	3.18089622e+02
119             	3.18154119e+02
120             	3.18218333e+02
121             	3.18283131e+02
122             	3.18344530e+02
123             	3.18407433e+02
124             	3.18470486e+02
125             	3.18533643e+02
126             	3.18596789e+02
127             	3.18658818e+02
128             	3.18719446e+02
129             	3.18775679e+02
130             	3.18831823e+02
131             	3.18885976e+02
132             	3.18940325e+02
133             	3.18994214e+02
134             	3.19047785e+02
135             	3.19101948e+02
136             	3.19153901e+02
137             	3.19210549e+02
138             	3.19262555e+02
139             	3.19315121e+02
140             	3.19366675e+02
141             	3.19419558e+02
142             	3.19469561e+02
143             	3.19519460e+02
144             	3.19565971e+02
145             	3.19612358e+02
146             	3.19655980e+02
147             	3.19700781e+02
148             	3.19747547e+02
149             	3.19789342e+02
150             	3.19833113e+02
151             	3.19876178e+02
152             	3.19919543e+02
153             	3.19961623e+02
154             	3.20000973e+02
155             	3.20041635e+02
156             	3.20082038e+02
157             	3.20122935e+02
158             	3.20162736e+02
159             	3.20200861e+02
160             	3.20238162e+02
161             	3.20275811e+02
162             	3.20313433e+02
163             	3.20351340e+02
164             	3.20386934e+02
165             	3.20423218e+02
166             	3.20460064e+02
167             	3.20497649e+02
168             	3.20531783e+02
169             	3.20567594e+02
170             	3.20603693e+02
171             	3.20639820e+02
172             	3.20675905e+02
173             	3.20711234e+02
174             	3.20743061e+02
175             	3.20775159e+02
176             	3.20806142e+02
177             	3.20836052e+02
178             	3.20866128e+02
179             	3.20895132e+02
180             	3.20923925e+02
181             	3.20952658e+02
182             	3.20979853e+02
183             	3.21007033e+02
184             	3.21034686e+02
185             	3.21062680e+02
186             	3.21090318e+02
187             	3.21117983e+02
188             	3.21145263e+02
189             	3.21172567e+02
190             	3.21198937e+02
191             	3.21224927e+02
192             	3.21251068e+02
193             	3.21276436e+02
194             	3.21301450e+02
195             	3.21325989e+02
196             	3.21350223e+02
197             	3.21373945e+02
198             	3.21397038e+02
199             	3.21419574e+02
200             	3.21441873e+02
201             	3.21463994e+02
202             	3.21485289e+02
203             	3.21506569e+02
204             	3.21527868e+02
205             	3.21548759e+02
206             	3.21568933e+02
207             	3.21588764e+02
208             	3.21608636e+02
209             	3.21628767e+02
210             	3.21649387e+02
211             	3.21670512e+02
212             	3.21691504e+02
213             	3.21714537e+02
214             	3.21734843e+02
215             	3.21754743e+02
216             	3.21774547e+02
217             	3.21793428e+02
218             	3.21812742e+02
219             	3.21830824e+02
220             	3.21847293e+02
221             	3.21864902e+02
222             	3.21882041e+02
223             	3.21900938e+02
224             	3.21919573e+02
225             	3.21935389e+02
226             	3.21951683e+02
227             	3.21969095e+02
228             	3.21986996e+02
229             	3.22004243e+02
230             	3.22020234e+02
231             	3.22036808e+02
232             	3.22053337e+02
233             	3.22069459e+02
234             	3.22084891e+02
235             	3.22100598e+02
236             	3.22115471e+02
237             	3.22130308e+02
238             	3.22145147e+02
239             	3.22160936e+02
240             	3.22176562e+02
241             	3.22192664e+02
242             	3.22206968e+02
243             	3.22221169e+02
244             	3.22234550e+02
245             	3.22248186e+02
246             	3.22262336e+02
247             	3.22276015e+02
248             	3.22289575e+02
249             	3.22302108e+02
250             	3.22314546e+02
251             	3.22326707e+02
252             	3.22338814e+02
253             	3.22350914e+02
254             	3.22362800e+02
255             	3.22374666e+02
256             	3.22386678e+02
257             	3.22398840e+02
258             	3.22411093e+02
259             	3.22423346e+02
260             	3.22435548e+02
261             	3.22448096e+02
262             	3.22460099e+02
263             	3.22471805e+02
264             	3.22483763e+02
265             	3.22495306e+02
266             	3.22506404e+02
267             	3.22517185e+02
268             	3.22527627e+02
269             	3.22537677e+02
270             	3.22547503e+02
271             	3.22556937e+02
272             	3.22565949e+02
273             	3.22574534e+02
274             	3.22583064e+02
275             	3.22591496e+02
276             	3.22599832e+02
277             	3.22608059e+02
278             	3.22616282e+02
279             	3.22624574e+02
280             	3.22633036e+02
281             	3.22641577e+02
282             	3.22650134e+02
283             	3.22658694e+02
284             	3.22667209e+02
285             	3.22675631e+02
286             	3.22684059e+02
287             	3.22692468e+02
288             	3.22700646e+02
289             	3.22708750e+02
290             	3.22716671e+02
291             	3.22724412e+02
292             	3.22731939e+02
293             	3.22739270e+02
294             	3.22746431e+02
295             	3.22753716e+02
296             	3.22761298e+02
297             	3.22768348e+02
298             	3.22775612e+02
299             	3.22782766e+02
300             	3.22789799e+02
301             	3.22796556e+02
302             	3.22803200e+02
303             	3.22809981e+02
304             	3.22816808e+02
305             	3.22823597e+02
306             	3.22830450e+02
307             	3.22836784e+02
308             	3.22843281e+02
309             	3.22849670e+02
310             	3.22855803e+02
311             	3.22861774e+02
312             	3.22867556e+02
313             	3.22873364e+02
314             	3.22879175e+02
315             	3.22885365e+02
316             	3.22890880e+02
317             	3.22896326e+02
318             	3.22901756e+02
319             	3.22907205e+02
320             	3.22912735e+02
321             	3.22918279e+02
322             	3.22923685e+02
323             	3.22928799e+02
324             	3.22933902e+02
325             	3.22939067e+02
326             	3.22944308e+02
327             	3.22949422e+02
328             	3.22954559e+02
329             	3.22959797e+02
330             	3.22965228e+02
331             	3.22970001e+02
332             	3.22975035e+02
333             	3.22979873e+02
334             	3.22984209e+02
335             	3.22988741e+02
336             	3.22993073e+02
337             	3.22997270e+02
338             	3.23001506e+02
339             	3.23005659e+02
340             	3.23009579e+02
341             	3.23013709e+02
342             	3.23017881e+02
343             	3.23021653e+02
344             	3.23025395e+02
345             	3.23029189e+02
346             	3.23033022e+02
347             	3.23036865e+02
348             	3.23040712e+02
349             	3.23044606e+02
350             	3.23048454e+02
351             	3.23052102e+02
352             	3.23055764e+02
353             	3.23059363e+02
354             	3.23062869e+02
355             	3.23066334e+02
356             	3.23069717e+02
357             	3.23073041e+02
358             	3.23076370e+02
359             	3.23079503e+02
360             	3.23082491e+02
361             	3.23085419e+02
362             	3.23088286e+02
363             	3.23091116e+02
364             	3.23093973e+02
365             	3.23096853e+02
366             	3.23099724e+02
367             	3.23102510e+02
368             	3.23105327e+02
369             	3.23108126e+02
370             	3.23110907e+02
371             	3.23113685e+02
372             	3.23116503e+02
373             	3.23119256e+02
374             	3.23122039e+02
375             	3.23124820e+02
376             	3.23127612e+02
377             	3.23130400e+02
378             	3.23133147e+02
379             	3.23135859e+02
380             	3.23138549e+02
381             	3.23141204e+02
382             	3.23143783e+02
383             	3.23146295e+02
384             	3.23148729e+02
385             	3.23151088e+02
386             	3.23153391e+02
387             	3.23155628e+02
388             	3.23157768e+02
389             	3.23159925e+02
390             	3.23162046e+02
391             	3.23164155e+02
392             	3.23166227e+02
393             	3.23168308e+02
394             	3.23170400e+02
395             	3.23172497e+02
396             	3.23174607e+02
397             	3.23176731e+02
398             	3.23178805e+02
399             	3.23180850e+02
400             	3.23182869e+02
401             	3.23184849e+02
402             	3.23186798e+02
403             	3.23188676e+02
404             	3.23190462e+02
405             	3.23192240e+02
406             	3.23194003e+02
407             	3.23195752e+02
408             	3.23197483e+02
409             	3.23199185e+02
410             	3.23200884e+02
411             	3.23202570e+02
412             	3.23204222e+02
413             	3.23205858e+02
414             	3.23207500e+02
415             	3.23209080e+02
416             	3.23210676e+02
417             	3.23212266e+02
418             	3.23213856e+02
419             	3.23215413e+02
420             	3.23216944e+02
421             	3.23218437e+02
422             	3.23219915e+02
423             	3.23221361e+02
424             	3.23222772e+02
425             	3.23224166e+02
426             	3.23225555e+02
427             	3.23226936e+02
428             	3.23228297e+02
429             	3.23229640e+02
430             	3.23230998e+02
431             	3.23232368e+02
432             	3.23233763e+02
433             	3.23235116e+02
434             	3.23236452e+02
435             	3.23237798e+02
436             	3.23239151e+02
437             	3.23240482e+02
438             	3.23241790e+02
439             	3.23243032e+02
440             	3.23244272e+02
441             	3.23245434e+02
442             	3.23246585e+02
443             	3.23247716e+02
444             	3.23248830e+02
445             	3.23249926e+02
446             	3.23251029e+02
447             	3.23252189e+02
448             	3.23253294e+02
449             	3.23254387e+02
450             	3.23255482e+02
451             	3.23256557e+02
452             	3.23257629e+02
453             	3.23258687e+02
454             	3.23259739e+02
455             	3.23260769e+02
456             	3.23261772e+02
457             	3.23262701e+02
458             	3.23263626e+02
459             	3.23264560e+02
460             	3.23265501e+02
461             	3.23266398e+02
462             	3.23267261e+02
463             	3.23268105e+02
464             	3.23268946e+02
465             	3.23269792e+02
466             	3.23270657e+02
467             	3.23271483e+02
468             	3.23272335e+02
469             	3.23273158e+02
470             	3.23274001e+02
471             	3.23274855e+02
472             	3.23275715e+02
473             	3.23276564e+02
474             	3.23277391e+02
475             	3.23278207e+02
476             	3.23279016e+02
477             	3.23279816e+02
478             	3.23280604e+02
479             	3.23281366e+02
480             	3.23282117e+02
481             	3.23282838e+02
482             	3.23283534e+02
483             	3.23284196e+02
484             	3.23284841e+02
485             	3.23285479e+02
486             	3.23286112e+02
487             	3.23286730e+02
488             	3.23287351e+02
489             	3.23287991e+02
490             	3.23288667e+02
491             	3.23289317e+02
492             	3.23289957e+02
493             	3.23290598e+02
494             	3.23291231e+02
495             	3.23291852e+02
496             	3.23292485e+02
497             	3.23293091e+02
498             	3.23293696e+02
499             	3.23294294e+02
500             	3.23294886e+02
501             	3.23295474e+02
502             	3.23296049e+02
503             	3.23296610e+02
504             	3.23297156e+02
505             	3.23297699e+02
506             	3.23298223e+02
507             	3.23298731e+02
508             	3.23299244e+02
509             	3.23299729e+02
510             	3.23300218e+02
511             	3.23300701e+02
512             	3.23301174e+02
513             	3.23301638e+02
514             	3.23302116e+02
515             	3.23302604e+02
516             	3.23303114e+02
517             	3.23303588e+02
518             	3.23304062e+02
519             	3.23304535e+02
520             	3.23305000e+02
521             	3.23305465e+02
522             	3.23305927e+02
523             	3.23306379e+02
524             	3.23306821e+02
525             	3.23307265e+02
526             	3.23307700e+02
527             	3.23308126e+02
528             	3.23308526e+02
529             	3.23308923e+02
530             	3.23309325e+02
531             	3.23309723e+02
532             	3.23310105e+02
533             	3.23310487e+02
534             	3.23310868e+02
535             	3.23311246e+02
536             	3.23311623e+02
537             	3.23312012e+02
538             	3.23312394e+02
539             	3.23312766e+02
540             	3.23313126e+02
541             	3.23313484e+02
542             	3.23313844e+02
543             	3.23314204e+02
544             	3.23314552e+02
545             	3.23314893e+02
546             	3.23315225e+02
547             	3.23315548e+02
548             	3.23315873e+02
549             	3.23316201e+02
550             	3.23316509e+02
551             	3.23316806e+02
552             	3.23317088e+02
553             	3.23317374e+02
554             	3.23317659e+02
555             	3.23317942e+02
556             	3.23318219e+02
557             	3.23318499e+02
558             	3.23318771e+02
559             	3.23319050e+02
560             	3.23319330e+02
561             	3.23319607e+02
562             	3.23319879e+02
563             	3.23320153e+02
564             	3.23320425e+02
565             	3.23320694e+02
566             	3.23320952e+02
567             	3.23321211e+02
568             	3.23321453e+02
569             	3.23321698e+02
570             	3.23321940e+02
571             	3.23322182e+02
572             	3.23322414e+02
573             	3.23322644e+02
574             	3.23322871e+02
575             	3.23323100e+02
576             	3.23323331e+02
577             	3.23323563e+02
578             	3.23323787e+02
579             	3.23324011e+02
580             	3.23324224e+02
581             	3.23324441e+02
582             	3.23324659e+02
583             	3.23324876e+02
584             	3.23325083e+02
585             	3.23325294e+02
586             	3.23325499e+02
587             	3.23325702e+02
588             	3.23325906e+02
589             	3.23326102e+02
590             	3.23326293e+02
591             	3.23326475e+02
592             	3.23326656e+02
593             	3.23326839e+02
594             	3.23327017e+02
595             	3.23327192e+02
596             	3.23327363e+02
597             	3.23327536e+02
598             	3.23327702e+02
599             	3.23327874e+02
600             	3.23328043e+02
601             	3.23328214e+02
602             	3.23328385e+02
603             	3.23328560e+02
604             	3.23328731e+02
605             	3.23328906e+02
606             	3.23329076e+02
607             	3.23329242e+02
608             	3.23329404e+02
609             	3.23329567e+02
610             	3.23329724e+02
611             	3.23329881e+02
612             	3.23330028e+02
613             	3.23330173e+02
614             	3.23330310e+02
615             	3.23330445e+02
616             	3.23330571e+02
617             	3.23330699e+02
618             	3.23330827e+02
619             	3.23330951e+02
620             	3.23331072e+02
621             	3.23331200e+02
