# Region        : cellZone component_4
# Cells         : 66
# Volume        : 1.03054164e-01
# Time          	volAverage(T)
1               	3.02578267e+02
2               	3.05094263e+02
3               	3.07030482e+02
4               	3.08709515e+02
5               	3.10431045e+02
6               	3.12236171e+02
7               	3.14034960e+02
8               	3.15821930e+02
9               	3.17603531e+02
10              	3.19434894e+02
11              	3.21144617e+02
12              	3.22741051e+02
13              	3.24277171e+02
14              	3.25696636e+02
15              	3.27033340e+02
16              	3.28343059e+02
17              	3.29657430e+02
18              	3.30869430e+02
19              	3.32039643e+02
20              	3.33169328e+02
21              	3.34173420e+02
22              	3.35123545e+02
23              	3.36070295e+02
24              	3.37054787e+02
25              	3.37950794e+02
26              	3.38799694e+02
27              	3.39582330e+02
28              	3.40125341e+02
29              	3.40575078e+02
30              	3.40934750e+02
31              	3.41170472e+02
32              	3.41389579e+02
33              	3.41421862e+02
34              	3.41441852e+02
35              	3.41609007e+02
36              	3.41974107e+02
37              	3.42417703e+02
38              	3.42871827e+02
39              	3.43283625e+02
40              	3.43548584e+02
41              	3.43806671e+02
42              	3.44116722e+02
43              	3.44355985e+02
44              	3.44544242e+02
45              	3.44790333e+02
46              	3.45109051e+02
47              	3.45416950e+02
48              	3.45640074e+02
49              	3.45780275e+02
50              	3.45926296e+02
51              	3.46099134e+02
52              	3.46542055e+02
53              	3.46940129e+02
54              	3.47254107e+02
55              	3.47538194e+02
56              	3.47803328e+02
57              	3.47986764e+02
58              	3.48225223e+02
59              	3.48450132e+02
60              	3.48735794e+02
61              	3.48988168e+02
62              	3.49335522e+02
63              	3.49495152e+02
64              	3.49563536e+02
65              	3.49556880e+02
66              	3.49559249e+02
67              	3.49606249e+02
68              	3.49722476e+02
69              	3.50008468e+02
70              	3.50278191e+02
71              	3.50507249e+02
72              	3.50713737e+02
73              	3.50897131e+02
74              	3.51078468e+02
75              	3.51243034e+02
76              	3.51402709e+02
77              	3.51554078e+02
78              	3.51700213e+02
79              	3.51839054e+02
80              	3.51971387e+02
81              	3.52097378e+02
82              	3.52216042e+02
83              	3.52325121e+02
84              	3.52429234e+02
85              	3.52528313e+02
86              	3.52620987e+02
87              	3.52702705e+02
88              	3.52782183e+02
89              	3.52872329e+02
90              	3.52964241e+02
91              	3.53056162e+02
92              	3.53143585e+02
93              	3.53226702e+02
94              	3.53305234e+02
95              	3.53357717e+02
96              	3.53480238e+02
97              	3.53690048e+02
98              	3.53971645e+02
99              	3.54282111e+02
100             	3.54544032e+02
101             	3.54870014e+02
102             	3.55221852e+02
103             	3.55598341e+02
104             	3.55937194e+02
105             	3.56249009e+02
106             	3.56540884e+02
107             	3.56852579e+02
108             	3.57187929e+02
109             	3.57517027e+02
110             	3.57836087e+02
111             	3.58182673e+02
112             	3.58533866e+02
113             	3.58858611e+02
114             	3.59170770e+02
115             	3.59473966e+02
116             	3.59771136e+02
117             	3.60057022e+02
118             	3.60335271e+02
119             	3.60605402e+02
120             	3.60868240e+02
121             	3.61120433e+02
122             	3.61361811e+02
123             	3.61590774e+02
124             	3.61806631e+02
125             	3.62012876e+02
126             	3.62212447e+02
127             	3.62409589e+02
128             	3.62601668e+02
129             	3.62787617e+02
130             	3.62968446e+02
131             	3.63142474e+02
132             	3.63315497e+02
133             	3.63480970e+02
134             	3.63635826e+02
135             	3.63781081e+02
136             	3.63921318e+02
137             	3.64058118e+02
138             	3.64188186e+02
139             	3.64317218e+02
140             	3.64441850e+02
141             	3.64563580e+02
142             	3.64682614e+02
143             	3.64799980e+02
144             	3.64913120e+02
145             	3.65019902e+02
146             	3.65121059e+02
147             	3.65217585e+02
148             	3.65311421e+02
149             	3.65401343e+02
150             	3.65487733e+02
151             	3.65570401e+02
152             	3.65649708e+02
153             	3.65726014e+02
154             	3.65799730e+02
155             	3.65871701e+02
156             	3.65941789e+02
157             	3.66010272e+02
158             	3.66077451e+02
159             	3.66143368e+02
160             	3.66207986e+02
161             	3.66271533e+02
162             	3.66333600e+02
163             	3.66393844e+02
164             	3.66452318e+02
165             	3.66509207e+02
166             	3.66564706e+02
167             	3.66619033e+02
168             	3.66672149e+02
169             	3.66724178e+02
170             	3.66775398e+02
171             	3.66825926e+02
172             	3.66876005e+02
173             	3.66925319e+02
174             	3.66972999e+02
175             	3.67019662e+02
176             	3.67065459e+02
177             	3.67109969e+02
178             	3.67152976e+02
179             	3.67194555e+02
180             	3.67234914e+02
181             	3.67274288e+02
182             	3.67313025e+02
183             	3.67351103e+02
184             	3.67388687e+02
185             	3.67425547e+02
186             	3.67461310e+02
187             	3.67495558e+02
188             	3.67528345e+02
189             	3.67559827e+02
190             	3.67589986e+02
191             	3.67618887e+02
192             	3.67646862e+02
193             	3.67673967e+02
194             	3.67700328e+02
195             	3.67726178e+02
196             	3.67751013e+02
197             	3.67775061e+02
198             	3.67798611e+02
199             	3.67821063e+02
200             	3.67842538e+02
201             	3.67863004e+02
202             	3.67882827e+02
203             	3.67902252e+02
204             	3.67921627e+02
205             	3.67941237e+02
206             	3.67960976e+02
207             	3.67980569e+02
208             	3.68000038e+02
209             	3.68019251e+02
210             	3.68038188e+02
211             	3.68056724e+02
212             	3.68074926e+02
213             	3.68092805e+02
214             	3.68110444e+02
215             	3.68127836e+02
216             	3.68145166e+02
217             	3.68162350e+02
218             	3.68179282e+02
219             	3.68195974e+02
220             	3.68212472e+02
221             	3.68228779e+02
222             	3.68244928e+02
223             	3.68261026e+02
224             	3.68277160e+02
225             	3.68293392e+02
226             	3.68309612e+02
227             	3.68325817e+02
228             	3.68341941e+02
229             	3.68357952e+02
230             	3.68373800e+02
231             	3.68389416e+02
232             	3.68404773e+02
233             	3.68419885e+02
234             	3.68434871e+02
235             	3.68449707e+02
236             	3.68464474e+02
237             	3.68479216e+02
238             	3.68493969e+02
239             	3.68508773e+02
240             	3.68523601e+02
241             	3.68538343e+02
242             	3.68552937e+02
243             	3.68567351e+02
244             	3.68581496e+02
245             	3.68595290e+02
246             	3.68608725e+02
247             	3.68621719e+02
248             	3.68634270e+02
249             	3.68646347e+02
250             	3.68657993e+02
251             	3.68669098e+02
252             	3.68679675e+02
253             	3.68689794e+02
254             	3.68577350e+02
255             	3.68400480e+02
256             	3.68215357e+02
257             	3.68048436e+02
258             	3.67906088e+02
259             	3.67787954e+02
260             	3.67694510e+02
261             	3.67632484e+02
262             	3.67594524e+02
263             	3.67579258e+02
264             	3.67587633e+02
265             	3.67618165e+02
266             	3.67666176e+02
267             	3.67729932e+02
268             	3.67808683e+02
269             	3.67898281e+02
270             	3.67994277e+02
271             	3.68094235e+02
272             	3.68198967e+02
273             	3.68304248e+02
274             	3.68410511e+02
275             	3.68517836e+02
276             	3.68624196e+02
277             	3.68727370e+02
278             	3.68826779e+02
279             	3.68923805e+02
280             	3.69020148e+02
281             	3.69117324e+02
282             	3.69207542e+02
283             	3.69303996e+02
284             	3.69404174e+02
285             	3.69506487e+02
286             	3.69609855e+02
287             	3.69714438e+02
288             	3.69820839e+02
289             	3.69929904e+02
290             	3.70042761e+02
291             	3.70161298e+02
292             	3.70283248e+02
293             	3.70409394e+02
294             	3.70542411e+02
295             	3.70667418e+02
296             	3.70791020e+02
297             	3.70918219e+02
298             	3.71047804e+02
299             	3.71166354e+02
300             	3.71288997e+02
301             	3.71413491e+02
302             	3.71531204e+02
303             	3.71643683e+02
304             	3.71756677e+02
305             	3.71867254e+02
306             	3.71973200e+02
307             	3.72074494e+02
308             	3.72172838e+02
309             	3.72272877e+02
310             	3.72371520e+02
311             	3.72461960e+02
312             	3.72549803e+02
313             	3.72635713e+02
314             	3.72721650e+02
315             	3.72810992e+02
316             	3.72875324e+02
317             	3.72954452e+02
318             	3.73046897e+02
319             	3.73121599e+02
320             	3.73209307e+02
321             	3.73300640e+02
322             	3.73392778e+02
323             	3.73486850e+02
324             	3.73572706e+02
325             	3.73652811e+02
326             	3.73731706e+02
327             	3.73804482e+02
328             	3.73872589e+02
329             	3.73938881e+02
330             	3.74001759e+02
331             	3.74060424e+02
332             	3.74115566e+02
333             	3.74167692e+02
334             	3.74213822e+02
335             	3.74249209e+02
336             	3.74289116e+02
337             	3.74327836e+02
338             	3.74364538e+02
339             	3.74398037e+02
340             	3.74426601e+02
341             	3.74453258e+02
342             	3.74480478e+02
343             	3.74507568e+02
344             	3.74534945e+02
345             	3.74561999e+02
346             	3.74564556e+02
347             	3.74587198e+02
348             	3.74606303e+02
349             	3.74633204e+02
350             	3.74667219e+02
351             	3.74704130e+02
352             	3.74742363e+02
353             	3.74775242e+02
354             	3.74798364e+02
355             	3.74819514e+02
356             	3.74839705e+02
357             	3.74860316e+02
358             	3.74882522e+02
359             	3.74900358e+02
360             	3.74915593e+02
361             	3.74923077e+02
362             	3.74908311e+02
363             	3.74906964e+02
364             	3.74914673e+02
365             	3.74898109e+02
366             	3.74893343e+02
367             	3.74898663e+02
368             	3.74882578e+02
369             	3.74880601e+02
370             	3.74889668e+02
371             	3.74895879e+02
372             	3.74912329e+02
373             	3.74911592e+02
374             	3.74905268e+02
375             	3.74903300e+02
376             	3.74908194e+02
377             	3.74915963e+02
378             	3.74925510e+02
379             	3.74918655e+02
380             	3.74903466e+02
381             	3.74878267e+02
382             	3.74872221e+02
383             	3.74878800e+02
384             	3.74861226e+02
385             	3.74853754e+02
386             	3.74855166e+02
387             	3.74856878e+02
388             	3.74855646e+02
389             	3.74868460e+02
390             	3.74858075e+02
391             	3.74841323e+02
392             	3.74831418e+02
393             	3.74830156e+02
394             	3.74832041e+02
395             	3.74837390e+02
396             	3.74844031e+02
397             	3.74851391e+02
398             	3.74859124e+02
399             	3.74856324e+02
400             	3.74839209e+02
401             	3.74835272e+02
402             	3.74823988e+02
403             	3.74829731e+02
404             	3.74842679e+02
405             	3.74852756e+02
406             	3.74858817e+02
407             	3.74862486e+02
408             	3.74871439e+02
409             	3.74867043e+02
410             	3.74870944e+02
411             	3.74862730e+02
412             	3.74853231e+02
413             	3.74849333e+02
414             	3.74852681e+02
415             	3.74852947e+02
416             	3.74852446e+02
417             	3.74851366e+02
418             	3.74849991e+02
419             	3.74849978e+02
420             	3.74843429e+02
421             	3.74817473e+02
422             	3.74803264e+02
423             	3.74803010e+02
424             	3.74802464e+02
425             	3.74800197e+02
426             	3.74796639e+02
427             	3.74790857e+02
428             	3.74788058e+02
429             	3.74776562e+02
430             	3.74764870e+02
431             	3.74756981e+02
432             	3.74751061e+02
433             	3.74745616e+02
434             	3.74739640e+02
435             	3.74733158e+02
436             	3.74706614e+02
437             	3.74694361e+02
438             	3.74695501e+02
439             	3.74697253e+02
440             	3.74677335e+02
441             	3.74671553e+02
442             	3.74676717e+02
443             	3.74682407e+02
444             	3.74689385e+02
445             	3.74692763e+02
446             	3.74692641e+02
447             	3.74691547e+02
448             	3.74690064e+02
449             	3.74688291e+02
450             	3.74687324e+02
451             	3.74679318e+02
452             	3.74670352e+02
453             	3.74662385e+02
454             	3.74654556e+02
455             	3.74645227e+02
456             	3.74634963e+02
457             	3.74624823e+02
458             	3.74615031e+02
459             	3.74605879e+02
460             	3.74597527e+02
461             	3.74590296e+02
462             	3.74585448e+02
463             	3.74574446e+02
464             	3.74568616e+02
465             	3.74545358e+02
466             	3.74534936e+02
467             	3.74535969e+02
468             	3.74538529e+02
469             	3.74539680e+02
470             	3.74539478e+02
471             	3.74519493e+02
472             	3.74512777e+02
473             	3.74517148e+02
474             	3.74523438e+02
475             	3.74530023e+02
476             	3.74533637e+02
477             	3.74543257e+02
478             	3.74539935e+02
479             	3.74532287e+02
480             	3.74527284e+02
481             	3.74527064e+02
482             	3.74527900e+02
483             	3.74529492e+02
484             	3.74526100e+02
485             	3.74521829e+02
486             	3.74498421e+02
487             	3.74487391e+02
488             	3.74486992e+02
489             	3.74490040e+02
490             	3.74492081e+02
491             	3.74492365e+02
492             	3.74492195e+02
493             	3.74491973e+02
494             	3.74491313e+02
495             	3.74490387e+02
496             	3.74489590e+02
497             	3.74489129e+02
498             	3.74469118e+02
499             	3.74462375e+02
500             	3.74467398e+02
501             	3.74452838e+02
502             	3.74451106e+02
503             	3.74459858e+02
504             	3.74469229e+02
505             	3.74477955e+02
506             	3.74485666e+02
507             	3.74492675e+02
508             	3.74499386e+02
509             	3.74506522e+02
510             	3.74510037e+02
511             	3.74512634e+02
512             	3.74517363e+02
513             	3.74518321e+02
514             	3.74517781e+02
515             	3.74517425e+02
516             	3.74517506e+02
517             	3.74515498e+02
518             	3.74513219e+02
519             	3.74510523e+02
520             	3.74507598e+02
521             	3.74504478e+02
522             	3.74498374e+02
523             	3.74472086e+02
524             	3.74461843e+02
525             	3.74464663e+02
526             	3.74449354e+02
527             	3.74445541e+02
528             	3.74451475e+02
529             	3.74458339e+02
530             	3.74464310e+02
531             	3.74450462e+02
532             	3.74449176e+02
533             	3.74457354e+02
534             	3.74467017e+02
535             	3.74475264e+02
536             	3.74484467e+02
537             	3.74492705e+02
538             	3.74500023e+02
539             	3.74506854e+02
540             	3.74513679e+02
541             	3.74519207e+02
542             	3.74523501e+02
543             	3.74527529e+02
544             	3.74531112e+02
545             	3.74534466e+02
546             	3.74537134e+02
547             	3.74539605e+02
548             	3.74537193e+02
549             	3.74536093e+02
550             	3.74536241e+02
551             	3.74515037e+02
552             	3.74504732e+02
553             	3.74505145e+02
554             	3.74488874e+02
555             	3.74483782e+02
556             	3.74488928e+02
557             	3.74494077e+02
558             	3.74481942e+02
559             	3.74477763e+02
560             	3.74484025e+02
561             	3.74490830e+02
562             	3.74497815e+02
563             	3.74505186e+02
564             	3.74511910e+02
565             	3.74518234e+02
566             	3.74524174e+02
567             	3.74529962e+02
568             	3.74535118e+02
569             	3.74539659e+02
570             	3.74542776e+02
571             	3.74545171e+02
572             	3.74547264e+02
573             	3.74548799e+02
574             	3.74549442e+02
575             	3.74550108e+02
576             	3.74550802e+02
577             	3.74551173e+02
578             	3.74530644e+02
579             	3.74523910e+02
580             	3.74529313e+02
581             	3.74534684e+02
582             	3.74518600e+02
583             	3.74514092e+02
584             	3.74520607e+02
585             	3.74528195e+02
586             	3.74534720e+02
587             	3.74540206e+02
588             	3.74545452e+02
589             	3.74550013e+02
590             	3.74554765e+02
591             	3.74559634e+02
592             	3.74564280e+02
593             	3.74567934e+02
594             	3.74570174e+02
595             	3.74572657e+02
596             	3.74575054e+02
597             	3.74577166e+02
598             	3.74578860e+02
599             	3.74579877e+02
600             	3.74582729e+02
601             	3.74582651e+02
602             	3.74581368e+02
603             	3.74580934e+02
604             	3.74580551e+02
605             	3.74580209e+02
606             	3.74579822e+02
607             	3.74579194e+02
608             	3.74578405e+02
609             	3.74577736e+02
610             	3.74574945e+02
611             	3.74552746e+02
612             	3.74543062e+02
613             	3.74545361e+02
614             	3.74527703e+02
615             	3.74522194e+02
616             	3.74526967e+02
617             	3.74531957e+02
618             	3.74535727e+02
619             	3.74538691e+02
620             	3.74542885e+02
621             	3.74546307e+02
