# Region        : cellZone component_0
# Cells         : 684
# Volume        : 1.41542512e+00
# Time          	volAverage(T)
1               	3.00110634e+02
2               	3.00219714e+02
3               	3.00318261e+02
4               	3.00409806e+02
5               	3.00498414e+02
6               	3.00585337e+02
7               	3.00670629e+02
8               	3.00754492e+02
9               	3.00836893e+02
10              	3.00918052e+02
11              	3.00997930e+02
12              	3.01076765e+02
13              	3.01154740e+02
14              	3.01232155e+02
15              	3.01308977e+02
16              	3.01385308e+02
17              	3.01461407e+02
18              	3.01536846e+02
19              	3.01611136e+02
20              	3.01684737e+02
21              	3.01757263e+02
22              	3.01827859e+02
23              	3.01895898e+02
24              	3.01962230e+02
25              	3.02025188e+02
26              	3.02087548e+02
27              	3.02148756e+02
28              	3.02208740e+02
29              	3.02267164e+02
30              	3.02323348e+02
31              	3.02378077e+02
32              	3.02431969e+02
33              	3.02487042e+02
34              	3.02543192e+02
35              	3.02598282e+02
36              	3.02653726e+02
37              	3.02708850e+02
38              	3.02762413e+02
39              	3.02813936e+02
40              	3.02863402e+02
41              	3.02910995e+02
42              	3.02957138e+02
43              	3.03000694e+02
44              	3.03043738e+02
45              	3.03085807e+02
46              	3.03128350e+02
47              	3.03172123e+02
48              	3.03216113e+02
49              	3.03258369e+02
50              	3.03296861e+02
51              	3.03333449e+02
52              	3.03366636e+02
53              	3.03400689e+02
54              	3.03433716e+02
55              	3.03465603e+02
56              	3.03495935e+02
57              	3.03524556e+02
58              	3.03552528e+02
59              	3.03580198e+02
60              	3.03608569e+02
61              	3.03637750e+02
62              	3.03667218e+02
63              	3.03697202e+02
64              	3.03727205e+02
65              	3.03757425e+02
66              	3.03787478e+02
67              	3.03818253e+02
68              	3.03847041e+02
69              	3.03874328e+02
70              	3.03900044e+02
71              	3.03925107e+02
72              	3.03947646e+02
73              	3.03970524e+02
74              	3.03993752e+02
75              	3.04016889e+02
76              	3.04039858e+02
77              	3.04062903e+02
78              	3.04086020e+02
79              	3.04109353e+02
80              	3.04132589e+02
81              	3.04154600e+02
82              	3.04175523e+02
83              	3.04195299e+02
84              	3.04213822e+02
85              	3.04231483e+02
86              	3.04247994e+02
87              	3.04264420e+02
88              	3.04280163e+02
89              	3.04295712e+02
90              	3.04310854e+02
91              	3.04326068e+02
92              	3.04341329e+02
93              	3.04356819e+02
94              	3.04372666e+02
95              	3.04388847e+02
96              	3.04405035e+02
97              	3.04420769e+02
98              	3.04435637e+02
99              	3.04449425e+02
100             	3.04461928e+02
101             	3.04473283e+02
102             	3.04483669e+02
103             	3.04493554e+02
104             	3.04503596e+02
105             	3.04513956e+02
106             	3.04524257e+02
107             	3.04535124e+02
108             	3.04546277e+02
109             	3.04557741e+02
110             	3.04569147e+02
111             	3.04580391e+02
112             	3.04591139e+02
113             	3.04601423e+02
114             	3.04611137e+02
115             	3.04620232e+02
116             	3.04628767e+02
117             	3.04636877e+02
118             	3.04644573e+02
119             	3.04652075e+02
120             	3.04659308e+02
121             	3.04666454e+02
122             	3.04673511e+02
123             	3.04680545e+02
124             	3.04687531e+02
125             	3.04694517e+02
126             	3.04701509e+02
127             	3.04708540e+02
128             	3.04715776e+02
129             	3.04723159e+02
130             	3.04730544e+02
131             	3.04737814e+02
132             	3.04744930e+02
133             	3.04751450e+02
134             	3.04757473e+02
135             	3.04763019e+02
136             	3.04768144e+02
137             	3.04772833e+02
138             	3.04777285e+02
139             	3.04781919e+02
140             	3.04786756e+02
141             	3.04791544e+02
142             	3.04796604e+02
143             	3.04801801e+02
144             	3.04807242e+02
145             	3.04812676e+02
146             	3.04817922e+02
147             	3.04822935e+02
148             	3.04827858e+02
149             	3.04832489e+02
150             	3.04836908e+02
151             	3.04841248e+02
152             	3.04845494e+02
153             	3.04849476e+02
154             	3.04853330e+02
155             	3.04857106e+02
156             	3.04860916e+02
157             	3.04864709e+02
158             	3.04868359e+02
159             	3.04871775e+02
160             	3.04875027e+02
161             	3.04878135e+02
162             	3.04881176e+02
163             	3.04884328e+02
164             	3.04887702e+02
165             	3.04891310e+02
166             	3.04895203e+02
167             	3.04899401e+02
168             	3.04903864e+02
169             	3.04908292e+02
170             	3.04912565e+02
171             	3.04916633e+02
172             	3.04920490e+02
173             	3.04924249e+02
174             	3.04927869e+02
175             	3.04931317e+02
176             	3.04934640e+02
177             	3.04937982e+02
178             	3.04941400e+02
179             	3.04944818e+02
180             	3.04948140e+02
181             	3.04951283e+02
182             	3.04954240e+02
183             	3.04956834e+02
184             	3.04959218e+02
185             	3.04961485e+02
186             	3.04963645e+02
187             	3.04965703e+02
188             	3.04967616e+02
189             	3.04969494e+02
190             	3.04971441e+02
191             	3.04973431e+02
192             	3.04975608e+02
193             	3.04977958e+02
194             	3.04980462e+02
195             	3.04983083e+02
196             	3.04985804e+02
197             	3.04988694e+02
198             	3.04991660e+02
199             	3.04994711e+02
200             	3.04997666e+02
201             	3.05000563e+02
202             	3.05003459e+02
203             	3.05006291e+02
204             	3.05009144e+02
205             	3.05011930e+02
206             	3.05014653e+02
207             	3.05017297e+02
208             	3.05019862e+02
209             	3.05022428e+02
210             	3.05024981e+02
211             	3.05027544e+02
212             	3.05030112e+02
213             	3.05032713e+02
214             	3.05035323e+02
215             	3.05037823e+02
216             	3.05040216e+02
217             	3.05042564e+02
218             	3.05044840e+02
219             	3.05047019e+02
220             	3.05049136e+02
221             	3.05051185e+02
222             	3.05053211e+02
223             	3.05055214e+02
224             	3.05057243e+02
225             	3.05059293e+02
226             	3.05061431e+02
227             	3.05063615e+02
228             	3.05065848e+02
229             	3.05068130e+02
230             	3.05070409e+02
231             	3.05072698e+02
232             	3.05074986e+02
233             	3.05077290e+02
234             	3.05079614e+02
235             	3.05081823e+02
236             	3.05083997e+02
237             	3.05086231e+02
238             	3.05088506e+02
239             	3.05090741e+02
240             	3.05092939e+02
241             	3.05095083e+02
242             	3.05097153e+02
243             	3.05099188e+02
244             	3.05101192e+02
245             	3.05103152e+02
246             	3.05105042e+02
247             	3.05106876e+02
248             	3.05108671e+02
249             	3.05110456e+02
250             	3.05112254e+02
251             	3.05114065e+02
252             	3.05115873e+02
253             	3.05117687e+02
254             	3.05119505e+02
255             	3.05121334e+02
256             	3.05123177e+02
257             	3.05125042e+02
258             	3.05126907e+02
259             	3.05128788e+02
260             	3.05130649e+02
261             	3.05132507e+02
262             	3.05134347e+02
263             	3.05136166e+02
264             	3.05137918e+02
265             	3.05139682e+02
266             	3.05141440e+02
267             	3.05143242e+02
268             	3.05145078e+02
269             	3.05146921e+02
270             	3.05148784e+02
271             	3.05150661e+02
272             	3.05152547e+02
273             	3.05154453e+02
274             	3.05156371e+02
275             	3.05158300e+02
276             	3.05160206e+02
277             	3.05162101e+02
278             	3.05163996e+02
279             	3.05165891e+02
280             	3.05167766e+02
281             	3.05169587e+02
282             	3.05171319e+02
283             	3.05172953e+02
284             	3.05174541e+02
285             	3.05176051e+02
286             	3.05177484e+02
287             	3.05178853e+02
288             	3.05180165e+02
289             	3.05181432e+02
290             	3.05182686e+02
291             	3.05183928e+02
292             	3.05185195e+02
293             	3.05186497e+02
294             	3.05187809e+02
295             	3.05189132e+02
296             	3.05190467e+02
297             	3.05191818e+02
298             	3.05193189e+02
299             	3.05194585e+02
300             	3.05196004e+02
301             	3.05197430e+02
302             	3.05198893e+02
303             	3.05200388e+02
304             	3.05201913e+02
305             	3.05203463e+02
306             	3.05205033e+02
307             	3.05206606e+02
308             	3.05208184e+02
309             	3.05209755e+02
310             	3.05211332e+02
311             	3.05212910e+02
312             	3.05214460e+02
313             	3.05215977e+02
314             	3.05217491e+02
315             	3.05218982e+02
316             	3.05220487e+02
317             	3.05221972e+02
318             	3.05223415e+02
319             	3.05224813e+02
320             	3.05226197e+02
321             	3.05227563e+02
322             	3.05228908e+02
323             	3.05230235e+02
324             	3.05231538e+02
325             	3.05232818e+02
326             	3.05234054e+02
327             	3.05235250e+02
328             	3.05236416e+02
329             	3.05237561e+02
330             	3.05238695e+02
331             	3.05239804e+02
332             	3.05240890e+02
333             	3.05241947e+02
334             	3.05242984e+02
335             	3.05243995e+02
336             	3.05244977e+02
337             	3.05245955e+02
338             	3.05246941e+02
339             	3.05247931e+02
340             	3.05248940e+02
341             	3.05249963e+02
342             	3.05250999e+02
343             	3.05252054e+02
344             	3.05253133e+02
345             	3.05254246e+02
346             	3.05255388e+02
347             	3.05256553e+02
348             	3.05257738e+02
349             	3.05258874e+02
350             	3.05260009e+02
351             	3.05261141e+02
352             	3.05262269e+02
353             	3.05263390e+02
354             	3.05264491e+02
355             	3.05265560e+02
356             	3.05266609e+02
357             	3.05267639e+02
358             	3.05268628e+02
359             	3.05269597e+02
360             	3.05270555e+02
361             	3.05271508e+02
362             	3.05272457e+02
363             	3.05273404e+02
364             	3.05274351e+02
365             	3.05275289e+02
366             	3.05276210e+02
367             	3.05277120e+02
368             	3.05278021e+02
369             	3.05278924e+02
370             	3.05279835e+02
371             	3.05280747e+02
372             	3.05281668e+02
373             	3.05282583e+02
374             	3.05283508e+02
375             	3.05284430e+02
376             	3.05285343e+02
377             	3.05286248e+02
378             	3.05287152e+02
379             	3.05288044e+02
380             	3.05288915e+02
381             	3.05289763e+02
382             	3.05290585e+02
383             	3.05291388e+02
384             	3.05292164e+02
385             	3.05292921e+02
386             	3.05293650e+02
387             	3.05294346e+02
388             	3.05295015e+02
389             	3.05295666e+02
390             	3.05296302e+02
391             	3.05296929e+02
392             	3.05297553e+02
393             	3.05298176e+02
394             	3.05298808e+02
395             	3.05299442e+02
396             	3.05300077e+02
397             	3.05300714e+02
398             	3.05301351e+02
399             	3.05301991e+02
400             	3.05302631e+02
401             	3.05303277e+02
402             	3.05303930e+02
403             	3.05304596e+02
404             	3.05305273e+02
405             	3.05305971e+02
406             	3.05306690e+02
407             	3.05307429e+02
408             	3.05308188e+02
409             	3.05308962e+02
410             	3.05309748e+02
411             	3.05310540e+02
412             	3.05311332e+02
413             	3.05312123e+02
414             	3.05312916e+02
415             	3.05313700e+02
416             	3.05314471e+02
417             	3.05315218e+02
418             	3.05315953e+02
419             	3.05316673e+02
420             	3.05317365e+02
421             	3.05318042e+02
422             	3.05318704e+02
423             	3.05319339e+02
424             	3.05319968e+02
425             	3.05320573e+02
426             	3.05321176e+02
427             	3.05321776e+02
428             	3.05322377e+02
429             	3.05322983e+02
430             	3.05323581e+02
431             	3.05324154e+02
432             	3.05324694e+02
433             	3.05325192e+02
434             	3.05325645e+02
435             	3.05326065e+02
436             	3.05326441e+02
437             	3.05326765e+02
438             	3.05327053e+02
439             	3.05327269e+02
440             	3.05327454e+02
441             	3.05327651e+02
442             	3.05327877e+02
443             	3.05328132e+02
444             	3.05328403e+02
445             	3.05328683e+02
446             	3.05328960e+02
447             	3.05329238e+02
448             	3.05329527e+02
449             	3.05329829e+02
450             	3.05330148e+02
451             	3.05330491e+02
452             	3.05330854e+02
453             	3.05331242e+02
454             	3.05331654e+02
455             	3.05332077e+02
456             	3.05332518e+02
457             	3.05332990e+02
458             	3.05333491e+02
459             	3.05334015e+02
460             	3.05334553e+02
461             	3.05335108e+02
462             	3.05335682e+02
463             	3.05336269e+02
464             	3.05336853e+02
465             	3.05337402e+02
466             	3.05337949e+02
467             	3.05338512e+02
468             	3.05339086e+02
469             	3.05339658e+02
470             	3.05340221e+02
471             	3.05340773e+02
472             	3.05341318e+02
473             	3.05341860e+02
474             	3.05342393e+02
475             	3.05342910e+02
476             	3.05343391e+02
477             	3.05343841e+02
478             	3.05344262e+02
479             	3.05344651e+02
480             	3.05345006e+02
481             	3.05345332e+02
482             	3.05345639e+02
483             	3.05345927e+02
484             	3.05346209e+02
485             	3.05346492e+02
486             	3.05346763e+02
487             	3.05347010e+02
488             	3.05347221e+02
489             	3.05347414e+02
490             	3.05347594e+02
491             	3.05347752e+02
492             	3.05347886e+02
493             	3.05347999e+02
494             	3.05348117e+02
495             	3.05348204e+02
496             	3.05348274e+02
497             	3.05348347e+02
498             	3.05348424e+02
499             	3.05348505e+02
500             	3.05348617e+02
501             	3.05348766e+02
502             	3.05348954e+02
503             	3.05349164e+02
504             	3.05349418e+02
505             	3.05349725e+02
506             	3.05350070e+02
507             	3.05350420e+02
508             	3.05350807e+02
509             	3.05351251e+02
510             	3.05351714e+02
511             	3.05352204e+02
512             	3.05352706e+02
513             	3.05353197e+02
514             	3.05353673e+02
515             	3.05354131e+02
516             	3.05354585e+02
517             	3.05355000e+02
518             	3.05355384e+02
519             	3.05355738e+02
520             	3.05356059e+02
521             	3.05356349e+02
522             	3.05356633e+02
523             	3.05356933e+02
524             	3.05357249e+02
525             	3.05357579e+02
526             	3.05357910e+02
527             	3.05358236e+02
528             	3.05358551e+02
529             	3.05358839e+02
530             	3.05359092e+02
531             	3.05359309e+02
532             	3.05359484e+02
533             	3.05359619e+02
534             	3.05359720e+02
535             	3.05359786e+02
536             	3.05359846e+02
537             	3.05359905e+02
538             	3.05359952e+02
539             	3.05359989e+02
540             	3.05360018e+02
541             	3.05360052e+02
542             	3.05360100e+02
543             	3.05360166e+02
544             	3.05360245e+02
545             	3.05360338e+02
546             	3.05360444e+02
547             	3.05360561e+02
548             	3.05360689e+02
549             	3.05360829e+02
550             	3.05360983e+02
551             	3.05361158e+02
552             	3.05361349e+02
553             	3.05361560e+02
554             	3.05361786e+02
555             	3.05362034e+02
556             	3.05362298e+02
557             	3.05362580e+02
558             	3.05362878e+02
559             	3.05363193e+02
560             	3.05363520e+02
561             	3.05363853e+02
562             	3.05364187e+02
563             	3.05364519e+02
564             	3.05364845e+02
565             	3.05365156e+02
566             	3.05365458e+02
567             	3.05365743e+02
568             	3.05366014e+02
569             	3.05366261e+02
570             	3.05366479e+02
571             	3.05366661e+02
572             	3.05366807e+02
573             	3.05366919e+02
574             	3.05367005e+02
575             	3.05367074e+02
576             	3.05367130e+02
577             	3.05367179e+02
578             	3.05367223e+02
579             	3.05367269e+02
580             	3.05367323e+02
581             	3.05367389e+02
582             	3.05367469e+02
583             	3.05367561e+02
584             	3.05367667e+02
585             	3.05367750e+02
586             	3.05367826e+02
587             	3.05367920e+02
588             	3.05368023e+02
589             	3.05368135e+02
590             	3.05368225e+02
591             	3.05368318e+02
592             	3.05368408e+02
593             	3.05368493e+02
594             	3.05368578e+02
595             	3.05368664e+02
596             	3.05368748e+02
597             	3.05368825e+02
598             	3.05368899e+02
599             	3.05368979e+02
600             	3.05369070e+02
601             	3.05369171e+02
602             	3.05369284e+02
603             	3.05369413e+02
604             	3.05369560e+02
605             	3.05369728e+02
606             	3.05369867e+02
607             	3.05370016e+02
608             	3.05370203e+02
609             	3.05370414e+02
610             	3.05370638e+02
611             	3.05370864e+02
612             	3.05371067e+02
613             	3.05371256e+02
614             	3.05371431e+02
615             	3.05371584e+02
616             	3.05371717e+02
617             	3.05371832e+02
618             	3.05371936e+02
619             	3.05372037e+02
620             	3.05372134e+02
621             	3.05372230e+02
