# Region        : cellZone component_0
# Cells         : 44
# Volume        : 7.54627782e-02
# Time          	volAverage(T)
1               	3.00804511e+02
2               	3.01596374e+02
3               	3.02321605e+02
4               	3.03013168e+02
5               	3.03690948e+02
6               	3.04358156e+02
7               	3.05017607e+02
8               	3.05671055e+02
9               	3.06319533e+02
10              	3.06959461e+02
11              	3.07582771e+02
12              	3.08188367e+02
13              	3.08770802e+02
14              	3.09336989e+02
15              	3.09869425e+02
16              	3.10391476e+02
17              	3.10907707e+02
18              	3.11424182e+02
19              	3.11940361e+02
20              	3.12452432e+02
21              	3.12959851e+02
22              	3.13471534e+02
23              	3.13987674e+02
24              	3.14497801e+02
25              	3.15008376e+02
26              	3.15496776e+02
27              	3.15971602e+02
28              	3.16395281e+02
29              	3.16777144e+02
30              	3.17147185e+02
31              	3.17490698e+02
32              	3.17822909e+02
33              	3.18120242e+02
34              	3.18395878e+02
35              	3.18653004e+02
36              	3.18907932e+02
37              	3.19165928e+02
38              	3.19440938e+02
39              	3.19705698e+02
40              	3.19967014e+02
41              	3.20232241e+02
42              	3.20462507e+02
43              	3.20645210e+02
44              	3.20808515e+02
45              	3.20949495e+02
46              	3.21083352e+02
47              	3.21232833e+02
48              	3.21396329e+02
49              	3.21572049e+02
50              	3.21754993e+02
51              	3.21958394e+02
52              	3.22194841e+02
53              	3.22475453e+02
54              	3.22764668e+02
55              	3.23053085e+02
56              	3.23332300e+02
57              	3.23604315e+02
58              	3.23881816e+02
59              	3.24162258e+02
60              	3.24427570e+02
61              	3.24652928e+02
62              	3.24866811e+02
63              	3.25076570e+02
64              	3.25294519e+02
65              	3.25504880e+02
66              	3.25729641e+02
67              	3.25954944e+02
68              	3.26196347e+02
69              	3.26436134e+02
70              	3.26686859e+02
71              	3.26948402e+02
72              	3.27199359e+02
73              	3.27458866e+02
74              	3.27680763e+02
75              	3.27885599e+02
76              	3.28100933e+02
77              	3.28292425e+02
78              	3.28450317e+02
79              	3.28603418e+02
80              	3.28763917e+02
81              	3.28927063e+02
82              	3.29094412e+02
83              	3.29235577e+02
84              	3.29367370e+02
85              	3.29485994e+02
86              	3.29590990e+02
87              	3.29685157e+02
88              	3.29779354e+02
89              	3.29872760e+02
90              	3.29931207e+02
91              	3.29963103e+02
92              	3.29995585e+02
93              	3.30027846e+02
94              	3.30077265e+02
95              	3.30102484e+02
96              	3.30133346e+02
97              	3.30166035e+02
98              	3.30179260e+02
99              	3.30181890e+02
100             	3.30184328e+02
101             	3.30201451e+02
102             	3.30211953e+02
103             	3.30235547e+02
104             	3.30259532e+02
105             	3.30305546e+02
106             	3.30352396e+02
107             	3.30408876e+02
108             	3.30450708e+02
109             	3.30501746e+02
110             	3.30568813e+02
111             	3.30656008e+02
112             	3.30726281e+02
113             	3.30825673e+02
114             	3.30896078e+02
115             	3.30955336e+02
116             	3.31032593e+02
117             	3.31094867e+02
118             	3.31172475e+02
119             	3.31248436e+02
120             	3.31312039e+02
121             	3.31382030e+02
122             	3.31461985e+02
123             	3.31508503e+02
124             	3.31591869e+02
125             	3.31642571e+02
126             	3.31671594e+02
127             	3.31698856e+02
128             	3.31703102e+02
129             	3.31717476e+02
130             	3.31756879e+02
131             	3.31807341e+02
132             	3.31858071e+02
133             	3.31912972e+02
134             	3.31967867e+02
135             	3.32017619e+02
136             	3.32067506e+02
137             	3.32117582e+02
138             	3.32160341e+02
139             	3.32199567e+02
140             	3.32237828e+02
141             	3.32272766e+02
142             	3.32317029e+02
143             	3.32379361e+02
144             	3.32450465e+02
145             	3.32518794e+02
146             	3.32593736e+02
147             	3.32694435e+02
148             	3.32800353e+02
149             	3.32918718e+02
150             	3.33042843e+02
151             	3.33183821e+02
152             	3.33327801e+02
153             	3.33476924e+02
154             	3.33619311e+02
155             	3.33760817e+02
156             	3.33893123e+02
157             	3.34020243e+02
158             	3.34145407e+02
159             	3.34268915e+02
160             	3.34397978e+02
161             	3.34527603e+02
162             	3.34655718e+02
163             	3.34783319e+02
164             	3.34911341e+02
165             	3.35043738e+02
166             	3.35178244e+02
167             	3.35314698e+02
168             	3.35443739e+02
169             	3.35574880e+02
170             	3.35701458e+02
171             	3.35832120e+02
172             	3.35959237e+02
173             	3.36082122e+02
174             	3.36199118e+02
175             	3.36315648e+02
176             	3.36433921e+02
177             	3.36542073e+02
178             	3.36641236e+02
179             	3.36732328e+02
180             	3.36821687e+02
181             	3.36912741e+02
182             	3.37008090e+02
183             	3.37107531e+02
184             	3.37210350e+02
185             	3.37315382e+02
186             	3.37432479e+02
187             	3.37555526e+02
188             	3.37673693e+02
189             	3.37789067e+02
190             	3.37903717e+02
191             	3.38016514e+02
192             	3.38130490e+02
193             	3.38240748e+02
194             	3.38337318e+02
195             	3.38421290e+02
196             	3.38499761e+02
197             	3.38576991e+02
198             	3.38658732e+02
199             	3.38739908e+02
200             	3.38820762e+02
201             	3.38902452e+02
202             	3.38985022e+02
203             	3.39072411e+02
204             	3.39163190e+02
205             	3.39255443e+02
206             	3.39344584e+02
207             	3.39426972e+02
208             	3.39502751e+02
209             	3.39583287e+02
210             	3.39662378e+02
211             	3.39737777e+02
212             	3.39808337e+02
213             	3.39876364e+02
214             	3.39942598e+02
215             	3.40008534e+02
216             	3.40074499e+02
217             	3.40139036e+02
218             	3.40202183e+02
219             	3.40264085e+02
220             	3.40327013e+02
221             	3.40391982e+02
222             	3.40458820e+02
223             	3.40525458e+02
224             	3.40591517e+02
225             	3.40658552e+02
226             	3.40724732e+02
227             	3.40790584e+02
228             	3.40856539e+02
229             	3.40920688e+02
230             	3.40985507e+02
231             	3.41050766e+02
232             	3.41115652e+02
233             	3.41180190e+02
234             	3.41241769e+02
235             	3.41301994e+02
236             	3.41361175e+02
237             	3.41418713e+02
238             	3.41471934e+02
239             	3.41523357e+02
240             	3.41573816e+02
241             	3.41623400e+02
242             	3.41674501e+02
243             	3.41723536e+02
244             	3.41771404e+02
245             	3.41819241e+02
246             	3.41868063e+02
247             	3.41913838e+02
248             	3.41959296e+02
249             	3.42003927e+02
250             	3.42047062e+02
251             	3.42089778e+02
252             	3.42130559e+02
253             	3.42169720e+02
254             	3.42209291e+02
255             	3.42249998e+02
256             	3.42292149e+02
257             	3.42335487e+02
258             	3.42379667e+02
259             	3.42423442e+02
260             	3.42467336e+02
261             	3.42510615e+02
262             	3.42550563e+02
263             	3.42590101e+02
264             	3.42628963e+02
265             	3.42666692e+02
266             	3.42704497e+02
267             	3.42743983e+02
268             	3.42781337e+02
269             	3.42818777e+02
270             	3.42856292e+02
271             	3.42893999e+02
272             	3.42929907e+02
273             	3.42964508e+02
274             	3.42997783e+02
275             	3.43030299e+02
276             	3.43062940e+02
277             	3.43093414e+02
278             	3.43124085e+02
279             	3.43154949e+02
280             	3.43185023e+02
281             	3.43214021e+02
282             	3.43242594e+02
283             	3.43269800e+02
284             	3.43296610e+02
285             	3.43323875e+02
286             	3.43350834e+02
287             	3.43378073e+02
288             	3.43405597e+02
289             	3.43433973e+02
290             	3.43461913e+02
291             	3.43489656e+02
292             	3.43516611e+02
293             	3.43542833e+02
294             	3.43569187e+02
295             	3.43594431e+02
296             	3.43619383e+02
297             	3.43643852e+02
298             	3.43668317e+02
299             	3.43692497e+02
300             	3.43716742e+02
301             	3.43740549e+02
302             	3.43764302e+02
303             	3.43788497e+02
304             	3.43811075e+02
305             	3.43833230e+02
306             	3.43854645e+02
307             	3.43875615e+02
308             	3.43896077e+02
309             	3.43916473e+02
310             	3.43936104e+02
311             	3.43955761e+02
312             	3.43976237e+02
313             	3.43995211e+02
314             	3.44013867e+02
315             	3.44032218e+02
316             	3.44050502e+02
317             	3.44068134e+02
318             	3.44085540e+02
319             	3.44102206e+02
320             	3.44118858e+02
321             	3.44136109e+02
322             	3.44152266e+02
323             	3.44168499e+02
324             	3.44184836e+02
325             	3.44201459e+02
326             	3.44217702e+02
327             	3.44233840e+02
328             	3.44249213e+02
329             	3.44264254e+02
330             	3.44279811e+02
331             	3.44294366e+02
332             	3.44308785e+02
333             	3.44323033e+02
334             	3.44337796e+02
335             	3.44352345e+02
336             	3.44366891e+02
337             	3.44380978e+02
338             	3.44395169e+02
339             	3.44410095e+02
340             	3.44423656e+02
341             	3.44437091e+02
342             	3.44450347e+02
343             	3.44463205e+02
344             	3.44475642e+02
345             	3.44488210e+02
346             	3.44500099e+02
347             	3.44511754e+02
348             	3.44523870e+02
349             	3.44534902e+02
350             	3.44546031e+02
351             	3.44557250e+02
352             	3.44568686e+02
353             	3.44579744e+02
354             	3.44590990e+02
355             	3.44601856e+02
356             	3.44612672e+02
357             	3.44623929e+02
358             	3.44634061e+02
359             	3.44644227e+02
360             	3.44654305e+02
361             	3.44664580e+02
362             	3.44674613e+02
363             	3.44684813e+02
364             	3.44694625e+02
365             	3.44704576e+02
366             	3.44715626e+02
367             	3.44725508e+02
368             	3.44735273e+02
369             	3.44745060e+02
370             	3.44755130e+02
371             	3.44764697e+02
372             	3.44774270e+02
373             	3.44783270e+02
374             	3.44792201e+02
375             	3.44801737e+02
376             	3.44810036e+02
377             	3.44818341e+02
378             	3.44826669e+02
379             	3.44835404e+02
380             	3.44843794e+02
381             	3.44852269e+02
382             	3.44860319e+02
383             	3.44868347e+02
384             	3.44877011e+02
385             	3.44884301e+02
386             	3.44891526e+02
387             	3.44898723e+02
388             	3.44905996e+02
389             	3.44913008e+02
390             	3.44920283e+02
391             	3.44927174e+02
392             	3.44934207e+02
393             	3.44942023e+02
394             	3.44948715e+02
395             	3.44955515e+02
396             	3.44962377e+02
397             	3.44969771e+02
398             	3.44976842e+02
399             	3.44983972e+02
400             	3.44990651e+02
401             	3.44997356e+02
402             	3.45004789e+02
403             	3.45010998e+02
404             	3.45017212e+02
405             	3.45023490e+02
406             	3.45030140e+02
407             	3.45036492e+02
408             	3.45043003e+02
409             	3.45049105e+02
410             	3.45055308e+02
411             	3.45062251e+02
412             	3.45067823e+02
413             	3.45073293e+02
414             	3.45078728e+02
415             	3.45084434e+02
416             	3.45089666e+02
417             	3.45095010e+02
418             	3.45099936e+02
419             	3.45105033e+02
420             	3.45110947e+02
421             	3.45115605e+02
422             	3.45120285e+02
423             	3.45124940e+02
424             	3.45130030e+02
425             	3.45134883e+02
426             	3.45139869e+02
427             	3.45144417e+02
428             	3.45149077e+02
429             	3.45154521e+02
430             	3.45158778e+02
431             	3.45163100e+02
432             	3.45167548e+02
433             	3.45172522e+02
434             	3.45177179e+02
435             	3.45181991e+02
436             	3.45186475e+02
437             	3.45191114e+02
438             	3.45196504e+02
439             	3.45200623e+02
440             	3.45204730e+02
441             	3.45208897e+02
442             	3.45213447e+02
443             	3.45217580e+02
444             	3.45221918e+02
445             	3.45225868e+02
446             	3.45229912e+02
447             	3.45234705e+02
448             	3.45238114e+02
449             	3.45241353e+02
450             	3.45244545e+02
451             	3.45248063e+02
452             	3.45251283e+02
453             	3.45254671e+02
454             	3.45257758e+02
455             	3.45260986e+02
456             	3.45265134e+02
457             	3.45268097e+02
458             	3.45271142e+02
459             	3.45274390e+02
460             	3.45278142e+02
461             	3.45281521e+02
462             	3.45285070e+02
463             	3.45288301e+02
464             	3.45291732e+02
465             	3.45295922e+02
466             	3.45298804e+02
467             	3.45301668e+02
468             	3.45304628e+02
469             	3.45308042e+02
470             	3.45311116e+02
471             	3.45314359e+02
472             	3.45317193e+02
473             	3.45320176e+02
474             	3.45323937e+02
475             	3.45326408e+02
476             	3.45328888e+02
477             	3.45331488e+02
478             	3.45334499e+02
479             	3.45337080e+02
480             	3.45339803e+02
481             	3.45342183e+02
482             	3.45344687e+02
483             	3.45347955e+02
484             	3.45349920e+02
485             	3.45351838e+02
486             	3.45353820e+02
487             	3.45356199e+02
488             	3.45358287e+02
489             	3.45360563e+02
490             	3.45362463e+02
491             	3.45364585e+02
492             	3.45367592e+02
493             	3.45369433e+02
494             	3.45371317e+02
495             	3.45373306e+02
496             	3.45375746e+02
497             	3.45377939e+02
498             	3.45380351e+02
499             	3.45382434e+02
500             	3.45384699e+02
501             	3.45387781e+02
502             	3.45389661e+02
503             	3.45391512e+02
504             	3.45393443e+02
505             	3.45395765e+02
506             	3.45397810e+02
507             	3.45400038e+02
508             	3.45401929e+02
509             	3.45403993e+02
510             	3.45406874e+02
511             	3.45408548e+02
512             	3.45410186e+02
513             	3.45411914e+02
514             	3.45414032e+02
515             	3.45415794e+02
516             	3.45417685e+02
517             	3.45419202e+02
518             	3.45420896e+02
519             	3.45423419e+02
520             	3.45424741e+02
521             	3.45426093e+02
522             	3.45427586e+02
523             	3.45429537e+02
524             	3.45431170e+02
525             	3.45432986e+02
526             	3.45434465e+02
527             	3.45436116e+02
528             	3.45438566e+02
529             	3.45439798e+02
530             	3.45440994e+02
531             	3.45442294e+02
532             	3.45444017e+02
533             	3.45445429e+02
534             	3.45446994e+02
535             	3.45448216e+02
536             	3.45449495e+02
537             	3.45451566e+02
538             	3.45452454e+02
539             	3.45453279e+02
540             	3.45454233e+02
541             	3.45455578e+02
542             	3.45456607e+02
543             	3.45457835e+02
544             	3.45458771e+02
545             	3.45459913e+02
546             	3.45461893e+02
547             	3.45462692e+02
548             	3.45463489e+02
549             	3.45464310e+02
550             	3.45465571e+02
551             	3.45466554e+02
552             	3.45467701e+02
553             	3.45468509e+02
554             	3.45469487e+02
555             	3.45471285e+02
556             	3.45471968e+02
557             	3.45472695e+02
558             	3.45473575e+02
559             	3.45474944e+02
560             	3.45476087e+02
561             	3.45477434e+02
562             	3.45478475e+02
563             	3.45479692e+02
564             	3.45481718e+02
565             	3.45482551e+02
566             	3.45483340e+02
567             	3.45484211e+02
568             	3.45485478e+02
569             	3.45486441e+02
570             	3.45487576e+02
571             	3.45488365e+02
572             	3.45489337e+02
573             	3.45491124e+02
574             	3.45491738e+02
575             	3.45492343e+02
576             	3.45493083e+02
577             	3.45494295e+02
578             	3.45495273e+02
579             	3.45496462e+02
580             	3.45497364e+02
581             	3.45498467e+02
582             	3.45500401e+02
583             	3.45501185e+02
584             	3.45501987e+02
585             	3.45502929e+02
586             	3.45504298e+02
587             	3.45505328e+02
588             	3.45506488e+02
589             	3.45507319e+02
590             	3.45508366e+02
591             	3.45510233e+02
592             	3.45510940e+02
593             	3.45511568e+02
594             	3.45512264e+02
595             	3.45513450e+02
596             	3.45514283e+02
597             	3.45515159e+02
598             	3.45515708e+02
599             	3.45516445e+02
600             	3.45517893e+02
601             	3.45518100e+02
602             	3.45518250e+02
603             	3.45518550e+02
604             	3.45519319e+02
605             	3.45519930e+02
606             	3.45520799e+02
607             	3.45521462e+02
608             	3.45522353e+02
609             	3.45524242e+02
610             	3.45524943e+02
611             	3.45525574e+02
612             	3.45526262e+02
613             	3.45527366e+02
614             	3.45528264e+02
615             	3.45529281e+02
616             	3.45529921e+02
617             	3.45530718e+02
618             	3.45532334e+02
619             	3.45532719e+02
620             	3.45533045e+02
621             	3.45533430e+02
