# Region        : cellZone component_4
# Cells         : 157
# Volume        : 2.87379582e-01
# Time          	volAverage(T)
1               	3.01521776e+02
2               	3.03028590e+02
3               	3.04459669e+02
4               	3.05849346e+02
5               	3.07217716e+02
6               	3.08572084e+02
7               	3.09915199e+02
8               	3.11252237e+02
9               	3.12587493e+02
10              	3.13920313e+02
11              	3.15247780e+02
12              	3.16567684e+02
13              	3.17880357e+02
14              	3.19183164e+02
15              	3.20472454e+02
16              	3.21735409e+02
17              	3.22990177e+02
18              	3.24231912e+02
19              	3.25460305e+02
20              	3.26682200e+02
21              	3.27916051e+02
22              	3.29144262e+02
23              	3.30361300e+02
24              	3.31567591e+02
25              	3.32766608e+02
26              	3.33961566e+02
27              	3.35153864e+02
28              	3.36329479e+02
29              	3.37490465e+02
30              	3.38646617e+02
31              	3.39800653e+02
32              	3.40940964e+02
33              	3.42059774e+02
34              	3.43148221e+02
35              	3.44208174e+02
36              	3.45248969e+02
37              	3.46277378e+02
38              	3.47284234e+02
39              	3.48298212e+02
40              	3.49355343e+02
41              	3.50406383e+02
42              	3.51450111e+02
43              	3.52482275e+02
44              	3.53504458e+02
45              	3.54518662e+02
46              	3.55524009e+02
47              	3.56517795e+02
48              	3.57513119e+02
49              	3.58458551e+02
50              	3.59354920e+02
51              	3.60241976e+02
52              	3.61090172e+02
53              	3.61971109e+02
54              	3.62845935e+02
55              	3.63736056e+02
56              	3.64622410e+02
57              	3.65519524e+02
58              	3.66424166e+02
59              	3.67330371e+02
60              	3.68239515e+02
61              	3.69146342e+02
62              	3.70044412e+02
63              	3.70932046e+02
64              	3.71812067e+02
65              	3.72686409e+02
66              	3.73554093e+02
67              	3.74411655e+02
68              	3.75257087e+02
69              	3.76093646e+02
70              	3.76920354e+02
71              	3.77733192e+02
72              	3.78538328e+02
73              	3.79336228e+02
74              	3.80127742e+02
75              	3.80919766e+02
76              	3.81713541e+02
77              	3.82516412e+02
78              	3.83314286e+02
79              	3.84105278e+02
80              	3.84892620e+02
81              	3.85665325e+02
82              	3.86419907e+02
83              	3.87157735e+02
84              	3.87881504e+02
85              	3.88591413e+02
86              	3.89289016e+02
87              	3.89976248e+02
88              	3.90653592e+02
89              	3.91322430e+02
90              	3.91988776e+02
91              	3.92653089e+02
92              	3.93316773e+02
93              	3.93978926e+02
94              	3.94639419e+02
95              	3.95295721e+02
96              	3.95945856e+02
97              	3.96589416e+02
98              	3.97228402e+02
99              	3.97863691e+02
100             	3.98493090e+02
101             	3.99124379e+02
102             	3.99756739e+02
103             	4.00385945e+02
104             	4.01014135e+02
105             	4.01637701e+02
106             	4.02252061e+02
107             	4.02856632e+02
108             	4.03454618e+02
109             	4.04047047e+02
110             	4.04634457e+02
111             	4.05214704e+02
112             	4.05800808e+02
113             	4.06390179e+02
114             	4.06981092e+02
115             	4.07572103e+02
116             	4.08162387e+02
117             	4.08746550e+02
118             	4.09318332e+02
119             	4.09873615e+02
120             	4.10411536e+02
121             	4.10932131e+02
122             	4.11432955e+02
123             	4.11914671e+02
124             	4.12383141e+02
125             	4.12841299e+02
126             	4.13294227e+02
127             	4.13746877e+02
128             	4.14197844e+02
129             	4.14650234e+02
130             	4.15100657e+02
131             	4.15543788e+02
132             	4.15982701e+02
133             	4.16416143e+02
134             	4.16833291e+02
135             	4.17238657e+02
136             	4.17632574e+02
137             	4.18014732e+02
138             	4.18388573e+02
139             	4.18754626e+02
140             	4.19116367e+02
141             	4.19475564e+02
142             	4.19833646e+02
143             	4.20191790e+02
144             	4.20551167e+02
145             	4.20911159e+02
146             	4.21271006e+02
147             	4.21628278e+02
148             	4.21981010e+02
149             	4.22328062e+02
150             	4.22671407e+02
151             	4.23008699e+02
152             	4.23344756e+02
153             	4.23678148e+02
154             	4.24009083e+02
155             	4.24338166e+02
156             	4.24666010e+02
157             	4.24993786e+02
158             	4.25319364e+02
159             	4.25643930e+02
160             	4.25968575e+02
161             	4.26292367e+02
162             	4.26612533e+02
163             	4.26929533e+02
164             	4.27244915e+02
165             	4.27559191e+02
166             	4.27872546e+02
167             	4.28184994e+02
168             	4.28491304e+02
169             	4.28797348e+02
170             	4.29099598e+02
171             	4.29396218e+02
172             	4.29686551e+02
173             	4.29972629e+02
174             	4.30254525e+02
175             	4.30533596e+02
176             	4.30810362e+02
177             	4.31085337e+02
178             	4.31358958e+02
179             	4.31631486e+02
180             	4.31902756e+02
181             	4.32172683e+02
182             	4.32440749e+02
183             	4.32706260e+02
184             	4.32968270e+02
185             	4.33227021e+02
186             	4.33484913e+02
187             	4.33738943e+02
188             	4.33990378e+02
189             	4.34240707e+02
190             	4.34490332e+02
191             	4.34738481e+02
192             	4.34985789e+02
193             	4.35228371e+02
194             	4.35470136e+02
195             	4.35709148e+02
196             	4.35944803e+02
197             	4.36176414e+02
198             	4.36404489e+02
199             	4.36629493e+02
200             	4.36852393e+02
201             	4.37072911e+02
202             	4.37292949e+02
203             	4.37512009e+02
204             	4.37729841e+02
205             	4.37947712e+02
206             	4.38164532e+02
207             	4.38380099e+02
208             	4.38593598e+02
209             	4.38804308e+02
210             	4.39012722e+02
211             	4.39219501e+02
212             	4.39423503e+02
213             	4.39625097e+02
214             	4.39824945e+02
215             	4.40023659e+02
216             	4.40221359e+02
217             	4.40417729e+02
218             	4.40612616e+02
219             	4.40805891e+02
220             	4.40997491e+02
221             	4.41187343e+02
222             	4.41375324e+02
223             	4.41561404e+02
224             	4.41745551e+02
225             	4.41927747e+02
226             	4.42108047e+02
227             	4.42286626e+02
228             	4.42463925e+02
229             	4.42639877e+02
230             	4.42814068e+02
231             	4.42987329e+02
232             	4.43159305e+02
233             	4.43328901e+02
234             	4.43497731e+02
235             	4.43665157e+02
236             	4.43830985e+02
237             	4.43995395e+02
238             	4.44158328e+02
239             	4.44319990e+02
240             	4.44480569e+02
241             	4.44639572e+02
242             	4.44798608e+02
243             	4.44956331e+02
244             	4.45112943e+02
245             	4.45268954e+02
246             	4.45424109e+02
247             	4.45577082e+02
248             	4.45729848e+02
249             	4.45881270e+02
250             	4.46030936e+02
251             	4.46178827e+02
252             	4.46325362e+02
253             	4.46470555e+02
254             	4.46614346e+02
255             	4.46757132e+02
256             	4.46899189e+02
257             	4.47040276e+02
258             	4.47180178e+02
259             	4.47319538e+02
260             	4.47457703e+02
261             	4.47594804e+02
262             	4.47730895e+02
263             	4.47865805e+02
264             	4.47999535e+02
265             	4.48132184e+02
266             	4.48263796e+02
267             	4.48394425e+02
268             	4.48524163e+02
269             	4.48653035e+02
270             	4.48781083e+02
271             	4.48908066e+02
272             	4.49034058e+02
273             	4.49159183e+02
274             	4.49283190e+02
275             	4.49406137e+02
276             	4.49528319e+02
277             	4.49649453e+02
278             	4.49769669e+02
279             	4.49889047e+02
280             	4.50007612e+02
281             	4.50125354e+02
282             	4.50242249e+02
283             	4.50358244e+02
284             	4.50473372e+02
285             	4.50587479e+02
286             	4.50700641e+02
287             	4.50812872e+02
288             	4.50924202e+02
289             	4.51034537e+02
290             	4.51144130e+02
291             	4.51252918e+02
292             	4.51360859e+02
293             	4.51467934e+02
294             	4.51573761e+02
295             	4.51678530e+02
296             	4.51782700e+02
297             	4.51885858e+02
298             	4.51988167e+02
299             	4.52089587e+02
300             	4.52190115e+02
301             	4.52289902e+02
302             	4.52388928e+02
303             	4.52487493e+02
304             	4.52585403e+02
305             	4.52682315e+02
306             	4.52778436e+02
307             	4.52873938e+02
308             	4.52968538e+02
309             	4.53062262e+02
310             	4.53155189e+02
311             	4.53247383e+02
312             	4.53338928e+02
313             	4.53430082e+02
314             	4.53520489e+02
315             	4.53610222e+02
316             	4.53698938e+02
317             	4.53787142e+02
318             	4.53874674e+02
319             	4.53961511e+02
320             	4.54047420e+02
321             	4.54132545e+02
322             	4.54216861e+02
323             	4.54300463e+02
324             	4.54383485e+02
325             	4.54465968e+02
326             	4.54547943e+02
327             	4.54629405e+02
328             	4.54710327e+02
329             	4.54790532e+02
330             	4.54870166e+02
331             	4.54949336e+02
332             	4.55027930e+02
333             	4.55105854e+02
334             	4.55183225e+02
335             	4.55259900e+02
336             	4.55335950e+02
337             	4.55411406e+02
338             	4.55486455e+02
339             	4.55560960e+02
340             	4.55634979e+02
341             	4.55708523e+02
342             	4.55781510e+02
343             	4.55853989e+02
344             	4.55925965e+02
345             	4.55997385e+02
346             	4.56068187e+02
347             	4.56138428e+02
348             	4.56208106e+02
349             	4.56277150e+02
350             	4.56345620e+02
351             	4.56413531e+02
352             	4.56480870e+02
353             	4.56547663e+02
354             	4.56613970e+02
355             	4.56679769e+02
356             	4.56745083e+02
357             	4.56809942e+02
358             	4.56874323e+02
359             	4.56938258e+02
360             	4.57001727e+02
361             	4.57064676e+02
362             	4.57127113e+02
363             	4.57189078e+02
364             	4.57250558e+02
365             	4.57311679e+02
366             	4.57372314e+02
367             	4.57432531e+02
368             	4.57492392e+02
369             	4.57551810e+02
370             	4.57610814e+02
371             	4.57669404e+02
372             	4.57727534e+02
373             	4.57785233e+02
374             	4.57842517e+02
375             	4.57899395e+02
376             	4.57955975e+02
377             	4.58012204e+02
378             	4.58068251e+02
379             	4.58123836e+02
380             	4.58179067e+02
381             	4.58233977e+02
382             	4.58288550e+02
383             	4.58342748e+02
384             	4.58396516e+02
385             	4.58449844e+02
386             	4.58502786e+02
387             	4.58555411e+02
388             	4.58607684e+02
389             	4.58659603e+02
390             	4.58711378e+02
391             	4.58762745e+02
392             	4.58813823e+02
393             	4.58864657e+02
394             	4.58915245e+02
395             	4.58965565e+02
396             	4.59015603e+02
397             	4.59065390e+02
398             	4.59114819e+02
399             	4.59164056e+02
400             	4.59213052e+02
401             	4.59261792e+02
402             	4.59310331e+02
403             	4.59358589e+02
404             	4.59406595e+02
405             	4.59454343e+02
406             	4.59501806e+02
407             	4.59549009e+02
408             	4.59595990e+02
409             	4.59642717e+02
410             	4.59689169e+02
411             	4.59735343e+02
412             	4.59781219e+02
413             	4.59826803e+02
414             	4.59872115e+02
415             	4.59917168e+02
416             	4.59961949e+02
417             	4.60006490e+02
418             	4.60050782e+02
419             	4.60094828e+02
420             	4.60138637e+02
421             	4.60182201e+02
422             	4.60225524e+02
423             	4.60268619e+02
424             	4.60311488e+02
425             	4.60354131e+02
426             	4.60396534e+02
427             	4.60438707e+02
428             	4.60480658e+02
429             	4.60522381e+02
430             	4.60564066e+02
431             	4.60605471e+02
432             	4.60646704e+02
433             	4.60687789e+02
434             	4.60728692e+02
435             	4.60769350e+02
436             	4.60809776e+02
437             	4.60850015e+02
438             	4.60890046e+02
439             	4.60929859e+02
440             	4.60969488e+02
441             	4.61008975e+02
442             	4.61048321e+02
443             	4.61087534e+02
444             	4.61126617e+02
445             	4.61165536e+02
446             	4.61204346e+02
447             	4.61243033e+02
448             	4.61281598e+02
449             	4.61320045e+02
450             	4.61358371e+02
451             	4.61396374e+02
452             	4.61434363e+02
453             	4.61472185e+02
454             	4.61509793e+02
455             	4.61547219e+02
456             	4.61584449e+02
457             	4.61621527e+02
458             	4.61658484e+02
459             	4.61695334e+02
460             	4.61732071e+02
461             	4.61768690e+02
462             	4.61805196e+02
463             	4.61841648e+02
464             	4.61878011e+02
465             	4.61914297e+02
466             	4.61950512e+02
467             	4.61986626e+02
468             	4.62022776e+02
469             	4.62058690e+02
470             	4.62094480e+02
471             	4.62130169e+02
472             	4.62165734e+02
473             	4.62201163e+02
474             	4.62236488e+02
475             	4.62271662e+02
476             	4.62306733e+02
477             	4.62341686e+02
478             	4.62376505e+02
479             	4.62411187e+02
480             	4.62445729e+02
481             	4.62480139e+02
482             	4.62514412e+02
483             	4.62548562e+02
484             	4.62582626e+02
485             	4.62616545e+02
486             	4.62650343e+02
487             	4.62684023e+02
488             	4.62717576e+02
489             	4.62750647e+02
490             	4.62783848e+02
491             	4.62816869e+02
492             	4.62849602e+02
493             	4.62882090e+02
494             	4.62914453e+02
495             	4.62946691e+02
496             	4.62978835e+02
497             	4.63010755e+02
498             	4.63042562e+02
499             	4.63074395e+02
500             	4.63106138e+02
501             	4.63137785e+02
502             	4.63169344e+02
503             	4.63200736e+02
504             	4.63231959e+02
505             	4.63262980e+02
506             	4.63293768e+02
507             	4.63324308e+02
508             	4.63354618e+02
509             	4.63384732e+02
510             	4.63414642e+02
511             	4.63444323e+02
512             	4.63473882e+02
513             	4.63503295e+02
514             	4.63532544e+02
515             	4.63561628e+02
516             	4.63590551e+02
517             	4.63619322e+02
518             	4.63647948e+02
519             	4.63676454e+02
520             	4.63704819e+02
521             	4.63733047e+02
522             	4.63761150e+02
523             	4.63789139e+02
524             	4.63817023e+02
525             	4.63844768e+02
526             	4.63872389e+02
527             	4.63899903e+02
528             	4.63927318e+02
529             	4.63954634e+02
530             	4.63981826e+02
531             	4.64008903e+02
532             	4.64035805e+02
533             	4.64062616e+02
534             	4.64089283e+02
535             	4.64115679e+02
536             	4.64141972e+02
537             	4.64168099e+02
538             	4.64194046e+02
539             	4.64219805e+02
540             	4.64245421e+02
541             	4.64270884e+02
542             	4.64296198e+02
543             	4.64321284e+02
544             	4.64346295e+02
545             	4.64371172e+02
546             	4.64395924e+02
547             	4.64420543e+02
548             	4.64444996e+02
549             	4.64469365e+02
550             	4.64493621e+02
551             	4.64517739e+02
552             	4.64541779e+02
553             	4.64565793e+02
554             	4.64589581e+02
555             	4.64613223e+02
556             	4.64636741e+02
557             	4.64660092e+02
558             	4.64683291e+02
559             	4.64706336e+02
560             	4.64729222e+02
561             	4.64751952e+02
562             	4.64774533e+02
563             	4.64796976e+02
564             	4.64819286e+02
565             	4.64841458e+02
566             	4.64863523e+02
567             	4.64885451e+02
568             	4.64907299e+02
569             	4.64929065e+02
570             	4.64950718e+02
571             	4.64972292e+02
572             	4.64993779e+02
573             	4.65015173e+02
574             	4.65036475e+02
575             	4.65057661e+02
576             	4.65078754e+02
577             	4.65099721e+02
578             	4.65120619e+02
579             	4.65141426e+02
580             	4.65162133e+02
581             	4.65182698e+02
582             	4.65203226e+02
583             	4.65223682e+02
584             	4.65244045e+02
585             	4.65264320e+02
586             	4.65284513e+02
587             	4.65304631e+02
588             	4.65324660e+02
589             	4.65344590e+02
590             	4.65364426e+02
591             	4.65384165e+02
592             	4.65403802e+02
593             	4.65423332e+02
594             	4.65442755e+02
595             	4.65462073e+02
596             	4.65481302e+02
597             	4.65500432e+02
598             	4.65519449e+02
599             	4.65538352e+02
600             	4.65557155e+02
601             	4.65575878e+02
602             	4.65594499e+02
603             	4.65613015e+02
604             	4.65631435e+02
605             	4.65649747e+02
606             	4.65667955e+02
607             	4.65686166e+02
608             	4.65704190e+02
609             	4.65722109e+02
610             	4.65739938e+02
611             	4.65757607e+02
612             	4.65775250e+02
613             	4.65792774e+02
614             	4.65810179e+02
615             	4.65827474e+02
616             	4.65844664e+02
617             	4.65861749e+02
618             	4.65878733e+02
619             	4.65895624e+02
620             	4.65912441e+02
621             	4.65929151e+02
