# Region        : cellZone component_4
# Cells         : 90
# Volume        : 1.98577457e-01
# Time          	volAverage(T)
1               	3.01127722e+02
2               	3.02235514e+02
3               	3.03157408e+02
4               	3.03942080e+02
5               	3.04673110e+02
6               	3.05369213e+02
7               	3.06041208e+02
8               	3.06687772e+02
9               	3.07313411e+02
10              	3.07925054e+02
11              	3.08537743e+02
12              	3.09132077e+02
13              	3.09701460e+02
14              	3.10255325e+02
15              	3.10760251e+02
16              	3.11253678e+02
17              	3.11735113e+02
18              	3.12217210e+02
19              	3.12689149e+02
20              	3.13148279e+02
21              	3.13585537e+02
22              	3.13995403e+02
23              	3.14365825e+02
24              	3.14713445e+02
25              	3.15018551e+02
26              	3.15298068e+02
27              	3.15527149e+02
28              	3.15735849e+02
29              	3.15923531e+02
30              	3.16106820e+02
31              	3.16285256e+02
32              	3.16472557e+02
33              	3.16670888e+02
34              	3.16878028e+02
35              	3.17087347e+02
36              	3.17285993e+02
37              	3.17468770e+02
38              	3.17629052e+02
39              	3.17766019e+02
40              	3.17888450e+02
41              	3.18007073e+02
42              	3.18128687e+02
43              	3.18256695e+02
44              	3.18387809e+02
45              	3.18510653e+02
46              	3.18620488e+02
47              	3.18716311e+02
48              	3.18787497e+02
49              	3.18830414e+02
50              	3.18847954e+02
51              	3.18844165e+02
52              	3.18830623e+02
53              	3.18821099e+02
54              	3.18818698e+02
55              	3.18829311e+02
56              	3.18855119e+02
57              	3.18896896e+02
58              	3.18954015e+02
59              	3.19021141e+02
60              	3.19085443e+02
61              	3.19149293e+02
62              	3.19207019e+02
63              	3.19250979e+02
64              	3.19281356e+02
65              	3.19304845e+02
66              	3.19326379e+02
67              	3.19336358e+02
68              	3.19338381e+02
69              	3.19330880e+02
70              	3.19316252e+02
71              	3.19301133e+02
72              	3.19284666e+02
73              	3.19270910e+02
74              	3.19271420e+02
75              	3.19282083e+02
76              	3.19302413e+02
77              	3.19324608e+02
78              	3.19353190e+02
79              	3.19387461e+02
80              	3.19425218e+02
81              	3.19463864e+02
82              	3.19502101e+02
83              	3.19540846e+02
84              	3.19573335e+02
85              	3.19599517e+02
86              	3.19618289e+02
87              	3.19627448e+02
88              	3.19627385e+02
89              	3.19618655e+02
90              	3.19600953e+02
91              	3.19573217e+02
92              	3.19532697e+02
93              	3.19496903e+02
94              	3.19466850e+02
95              	3.19448432e+02
96              	3.19439289e+02
97              	3.19433573e+02
98              	3.19425955e+02
99              	3.19421916e+02
100             	3.19415569e+02
101             	3.19394966e+02
102             	3.19362149e+02
103             	3.19320799e+02
104             	3.19272777e+02
105             	3.19218399e+02
106             	3.19159395e+02
107             	3.19102158e+02
108             	3.19048743e+02
109             	3.19008092e+02
110             	3.18982213e+02
111             	3.18967168e+02
112             	3.18958670e+02
113             	3.18943812e+02
114             	3.18930288e+02
115             	3.18917259e+02
116             	3.18902232e+02
117             	3.18886481e+02
118             	3.18870311e+02
119             	3.18853407e+02
120             	3.18835510e+02
121             	3.18820145e+02
122             	3.18807334e+02
123             	3.18797768e+02
124             	3.18791529e+02
125             	3.18787080e+02
126             	3.18782834e+02
127             	3.18780241e+02
128             	3.18781797e+02
129             	3.18785590e+02
130             	3.18793319e+02
131             	3.18804407e+02
132             	3.18820054e+02
133             	3.18840064e+02
134             	3.18862252e+02
135             	3.18883328e+02
136             	3.18905061e+02
137             	3.18925927e+02
138             	3.18941886e+02
139             	3.18951849e+02
140             	3.18957807e+02
141             	3.18960935e+02
142             	3.18962617e+02
143             	3.18963231e+02
144             	3.18963288e+02
145             	3.18965008e+02
146             	3.18966641e+02
147             	3.18968637e+02
148             	3.18974226e+02
149             	3.18981246e+02
150             	3.18991115e+02
151             	3.19003990e+02
152             	3.19018698e+02
153             	3.19036077e+02
154             	3.19056236e+02
155             	3.19074571e+02
156             	3.19091843e+02
157             	3.19107279e+02
158             	3.19120574e+02
159             	3.19129863e+02
160             	3.19135605e+02
161             	3.19138572e+02
162             	3.19139094e+02
163             	3.19136590e+02
164             	3.19131962e+02
165             	3.19126181e+02
166             	3.19121799e+02
167             	3.19121524e+02
168             	3.19124920e+02
169             	3.19132283e+02
170             	3.19142364e+02
171             	3.19154377e+02
172             	3.19160799e+02
173             	3.19169368e+02
174             	3.19178710e+02
175             	3.19185465e+02
176             	3.19188640e+02
177             	3.19187877e+02
178             	3.19184113e+02
179             	3.19178179e+02
180             	3.19171339e+02
181             	3.19163885e+02
182             	3.19156374e+02
183             	3.19151431e+02
184             	3.19150184e+02
185             	3.19152653e+02
186             	3.19158166e+02
187             	3.19169001e+02
188             	3.19182192e+02
189             	3.19197930e+02
190             	3.19211477e+02
191             	3.19220875e+02
192             	3.19226990e+02
193             	3.19230708e+02
194             	3.19231706e+02
195             	3.19230046e+02
196             	3.19226450e+02
197             	3.19222248e+02
198             	3.19219051e+02
199             	3.19217408e+02
200             	3.19217027e+02
201             	3.19217921e+02
202             	3.19219369e+02
203             	3.19221104e+02
204             	3.19222194e+02
205             	3.19222273e+02
206             	3.19221978e+02
207             	3.19222447e+02
208             	3.19224122e+02
209             	3.19228285e+02
210             	3.19235335e+02
211             	3.19245796e+02
212             	3.19258393e+02
213             	3.19268695e+02
214             	3.19279826e+02
215             	3.19290253e+02
216             	3.19298188e+02
217             	3.19303667e+02
218             	3.19306734e+02
219             	3.19307604e+02
220             	3.19306870e+02
221             	3.19304849e+02
222             	3.19301784e+02
223             	3.19298083e+02
224             	3.19294137e+02
225             	3.19290331e+02
226             	3.19288228e+02
227             	3.19289184e+02
228             	3.19291659e+02
229             	3.19294811e+02
230             	3.19299470e+02
231             	3.19306041e+02
232             	3.19313984e+02
233             	3.19322137e+02
234             	3.19328396e+02
235             	3.19333677e+02
236             	3.19337735e+02
237             	3.19339503e+02
238             	3.19339120e+02
239             	3.19336759e+02
240             	3.19333485e+02
241             	3.19329944e+02
242             	3.19326393e+02
243             	3.19322690e+02
244             	3.19318997e+02
245             	3.19315526e+02
246             	3.19313033e+02
247             	3.19312586e+02
248             	3.19313471e+02
249             	3.19315165e+02
250             	3.19317489e+02
251             	3.19320626e+02
252             	3.19324734e+02
253             	3.19329925e+02
254             	3.19335251e+02
255             	3.19339566e+02
256             	3.19342792e+02
257             	3.19344843e+02
258             	3.19346055e+02
259             	3.19346357e+02
260             	3.19345575e+02
261             	3.19343771e+02
262             	3.19341094e+02
263             	3.19337894e+02
264             	3.19334548e+02
265             	3.19332179e+02
266             	3.19331362e+02
267             	3.19332049e+02
268             	3.19333485e+02
269             	3.19335013e+02
270             	3.19336173e+02
271             	3.19337902e+02
272             	3.19340635e+02
273             	3.19344081e+02
274             	3.19348099e+02
275             	3.19352393e+02
276             	3.19356860e+02
277             	3.19361426e+02
278             	3.19366385e+02
279             	3.19371657e+02
280             	3.19376620e+02
281             	3.19381641e+02
282             	3.19386807e+02
283             	3.19391991e+02
284             	3.19396889e+02
285             	3.19401066e+02
286             	3.19403925e+02
287             	3.19404268e+02
288             	3.19402027e+02
289             	3.19397057e+02
290             	3.19390257e+02
291             	3.19382969e+02
292             	3.19375746e+02
293             	3.19368721e+02
294             	3.19363321e+02
295             	3.19360148e+02
296             	3.19359648e+02
297             	3.19362010e+02
298             	3.19365773e+02
299             	3.19371380e+02
300             	3.19377066e+02
301             	3.19381933e+02
302             	3.19385466e+02
303             	3.19386900e+02
304             	3.19386601e+02
305             	3.19384642e+02
306             	3.19381040e+02
307             	3.19376643e+02
308             	3.19372614e+02
309             	3.19369504e+02
310             	3.19368145e+02
311             	3.19368416e+02
312             	3.19369119e+02
313             	3.19371142e+02
314             	3.19374877e+02
315             	3.19379749e+02
316             	3.19385507e+02
317             	3.19391850e+02
318             	3.19398009e+02
319             	3.19403448e+02
320             	3.19408380e+02
321             	3.19412254e+02
322             	3.19415168e+02
323             	3.19417079e+02
324             	3.19417611e+02
325             	3.19416842e+02
326             	3.19415131e+02
327             	3.19412111e+02
328             	3.19408139e+02
329             	3.19403578e+02
330             	3.19398597e+02
331             	3.19393473e+02
332             	3.19389125e+02
333             	3.19386420e+02
334             	3.19384184e+02
335             	3.19382418e+02
336             	3.19381361e+02
337             	3.19380903e+02
338             	3.19381164e+02
339             	3.19381625e+02
340             	3.19381799e+02
341             	3.19381636e+02
342             	3.19381041e+02
343             	3.19380190e+02
344             	3.19379642e+02
345             	3.19379274e+02
346             	3.19379659e+02
347             	3.19381027e+02
348             	3.19383284e+02
349             	3.19385987e+02
350             	3.19389173e+02
351             	3.19393116e+02
352             	3.19397408e+02
353             	3.19401268e+02
354             	3.19404177e+02
355             	3.19405313e+02
356             	3.19405309e+02
357             	3.19404278e+02
358             	3.19402578e+02
359             	3.19400678e+02
360             	3.19398966e+02
361             	3.19398283e+02
362             	3.19398665e+02
363             	3.19399801e+02
364             	3.19401466e+02
365             	3.19403299e+02
366             	3.19405277e+02
367             	3.19407036e+02
368             	3.19408441e+02
369             	3.19409230e+02
370             	3.19409307e+02
371             	3.19408840e+02
372             	3.19407973e+02
373             	3.19406897e+02
374             	3.19405771e+02
375             	3.19404984e+02
376             	3.19404180e+02
377             	3.19404034e+02
378             	3.19404582e+02
379             	3.19405645e+02
380             	3.19407077e+02
381             	3.19408245e+02
382             	3.19409231e+02
383             	3.19409911e+02
384             	3.19410132e+02
385             	3.19409938e+02
386             	3.19409405e+02
387             	3.19408358e+02
388             	3.19406917e+02
389             	3.19405198e+02
390             	3.19403205e+02
391             	3.19401158e+02
392             	3.19399346e+02
393             	3.19397989e+02
394             	3.19397077e+02
395             	3.19396753e+02
396             	3.19396873e+02
397             	3.19397668e+02
398             	3.19399286e+02
399             	3.19401116e+02
400             	3.19403392e+02
401             	3.19405774e+02
402             	3.19408089e+02
403             	3.19410211e+02
404             	3.19412144e+02
405             	3.19413749e+02
406             	3.19415050e+02
407             	3.19416354e+02
408             	3.19417368e+02
409             	3.19417948e+02
410             	3.19418171e+02
411             	3.19418166e+02
412             	3.19418044e+02
413             	3.19417967e+02
414             	3.19417959e+02
415             	3.19417722e+02
416             	3.19417185e+02
417             	3.19416556e+02
418             	3.19415741e+02
419             	3.19414721e+02
420             	3.19413632e+02
421             	3.19412555e+02
422             	3.19411653e+02
423             	3.19410812e+02
424             	3.19409715e+02
425             	3.19408363e+02
426             	3.19406684e+02
427             	3.19404759e+02
428             	3.19402802e+02
429             	3.19400899e+02
430             	3.19399081e+02
431             	3.19397369e+02
432             	3.19395766e+02
433             	3.19394265e+02
434             	3.19392963e+02
435             	3.19391867e+02
436             	3.19390989e+02
437             	3.19390385e+02
438             	3.19390204e+02
439             	3.19390460e+02
440             	3.19391144e+02
441             	3.19392205e+02
442             	3.19393546e+02
443             	3.19395053e+02
444             	3.19396668e+02
445             	3.19398085e+02
446             	3.19399435e+02
447             	3.19400697e+02
448             	3.19401711e+02
449             	3.19402473e+02
450             	3.19403081e+02
451             	3.19403614e+02
452             	3.19404137e+02
453             	3.19404688e+02
454             	3.19405273e+02
455             	3.19405888e+02
456             	3.19406752e+02
457             	3.19407800e+02
458             	3.19408988e+02
459             	3.19410218e+02
460             	3.19411286e+02
461             	3.19412209e+02
462             	3.19412972e+02
463             	3.19413628e+02
464             	3.19414192e+02
465             	3.19414712e+02
466             	3.19415299e+02
467             	3.19415767e+02
468             	3.19416189e+02
469             	3.19416563e+02
470             	3.19416840e+02
471             	3.19417002e+02
472             	3.19417016e+02
473             	3.19416877e+02
474             	3.19416730e+02
475             	3.19416651e+02
476             	3.19416723e+02
477             	3.19416883e+02
478             	3.19416769e+02
479             	3.19416407e+02
480             	3.19415940e+02
481             	3.19415194e+02
482             	3.19414156e+02
483             	3.19412996e+02
484             	3.19411593e+02
485             	3.19409966e+02
486             	3.19408201e+02
487             	3.19406433e+02
488             	3.19404746e+02
489             	3.19403271e+02
490             	3.19401886e+02
491             	3.19400581e+02
492             	3.19399676e+02
493             	3.19399398e+02
494             	3.19399698e+02
495             	3.19400534e+02
496             	3.19401924e+02
497             	3.19403813e+02
498             	3.19405919e+02
499             	3.19408312e+02
500             	3.19410684e+02
501             	3.19412973e+02
502             	3.19414824e+02
503             	3.19416094e+02
504             	3.19416864e+02
505             	3.19417083e+02
506             	3.19416729e+02
507             	3.19415896e+02
508             	3.19414892e+02
509             	3.19413957e+02
510             	3.19413097e+02
511             	3.19412352e+02
512             	3.19411796e+02
513             	3.19411514e+02
514             	3.19411703e+02
515             	3.19412427e+02
516             	3.19413623e+02
517             	3.19415272e+02
518             	3.19417240e+02
519             	3.19419401e+02
520             	3.19421495e+02
521             	3.19423448e+02
522             	3.19425221e+02
523             	3.19426537e+02
524             	3.19427038e+02
525             	3.19426783e+02
526             	3.19425712e+02
527             	3.19423801e+02
528             	3.19421209e+02
529             	3.19418237e+02
530             	3.19415619e+02
531             	3.19413615e+02
532             	3.19412102e+02
533             	3.19411159e+02
534             	3.19410696e+02
535             	3.19410869e+02
536             	3.19411822e+02
537             	3.19413427e+02
538             	3.19415465e+02
539             	3.19417424e+02
540             	3.19418765e+02
541             	3.19419236e+02
542             	3.19418956e+02
543             	3.19417772e+02
544             	3.19415724e+02
545             	3.19413068e+02
546             	3.19410055e+02
547             	3.19407334e+02
548             	3.19405383e+02
549             	3.19404276e+02
550             	3.19404177e+02
551             	3.19404975e+02
552             	3.19406612e+02
553             	3.19408925e+02
554             	3.19411397e+02
555             	3.19414122e+02
556             	3.19416796e+02
557             	3.19419203e+02
558             	3.19421086e+02
559             	3.19422118e+02
560             	3.19422510e+02
561             	3.19422340e+02
562             	3.19421749e+02
563             	3.19420759e+02
564             	3.19419449e+02
565             	3.19418091e+02
566             	3.19417150e+02
567             	3.19416402e+02
568             	3.19415875e+02
569             	3.19415638e+02
570             	3.19415809e+02
571             	3.19416443e+02
572             	3.19417462e+02
573             	3.19418762e+02
574             	3.19420139e+02
575             	3.19421546e+02
576             	3.19422997e+02
577             	3.19424462e+02
578             	3.19425469e+02
579             	3.19425774e+02
580             	3.19425442e+02
581             	3.19424430e+02
582             	3.19422935e+02
583             	3.19421060e+02
584             	3.19419021e+02
585             	3.19417026e+02
586             	3.19415067e+02
587             	3.19413245e+02
588             	3.19411584e+02
589             	3.19409934e+02
590             	3.19408223e+02
591             	3.19406557e+02
592             	3.19405303e+02
593             	3.19404532e+02
594             	3.19404347e+02
595             	3.19405015e+02
596             	3.19406507e+02
597             	3.19408720e+02
598             	3.19411373e+02
599             	3.19414103e+02
600             	3.19416523e+02
601             	3.19418431e+02
602             	3.19419740e+02
603             	3.19420472e+02
604             	3.19420571e+02
605             	3.19419992e+02
606             	3.19418896e+02
607             	3.19417441e+02
608             	3.19415962e+02
609             	3.19414850e+02
610             	3.19414367e+02
611             	3.19414721e+02
612             	3.19415808e+02
613             	3.19417619e+02
614             	3.19420052e+02
615             	3.19422963e+02
616             	3.19425698e+02
617             	3.19428147e+02
618             	3.19430206e+02
619             	3.19431718e+02
620             	3.19432553e+02
621             	3.19432725e+02
