# Region        : cellZone component_1
# Cells         : 174
# Volume        : 3.34159429e-01
# Time          	volAverage(T)
1               	3.01347544e+02
2               	3.02648387e+02
3               	3.03604858e+02
4               	3.04334960e+02
5               	3.05120269e+02
6               	3.06030698e+02
7               	3.06926084e+02
8               	3.07680289e+02
9               	3.08360968e+02
10              	3.09070923e+02
11              	3.09802966e+02
12              	3.10470573e+02
13              	3.11046438e+02
14              	3.11595238e+02
15              	3.12146254e+02
16              	3.12716107e+02
17              	3.13279516e+02
18              	3.13830656e+02
19              	3.14330255e+02
20              	3.14803450e+02
21              	3.15269098e+02
22              	3.15730564e+02
23              	3.16162377e+02
24              	3.16629314e+02
25              	3.17044638e+02
26              	3.17332876e+02
27              	3.17508777e+02
28              	3.17759606e+02
29              	3.18089584e+02
30              	3.18461618e+02
31              	3.18818039e+02
32              	3.19131312e+02
33              	3.19414178e+02
34              	3.19682284e+02
35              	3.19938291e+02
36              	3.20133432e+02
37              	3.20261557e+02
38              	3.20365267e+02
39              	3.20495723e+02
40              	3.20673093e+02
41              	3.20922262e+02
42              	3.21197154e+02
43              	3.21440132e+02
44              	3.21661226e+02
45              	3.21836091e+02
46              	3.22118982e+02
47              	3.22322058e+02
48              	3.22440936e+02
49              	3.22523885e+02
50              	3.22635562e+02
51              	3.22792075e+02
52              	3.22971934e+02
53              	3.23132305e+02
54              	3.23261597e+02
55              	3.23378457e+02
56              	3.23515839e+02
57              	3.23677601e+02
58              	3.23844761e+02
59              	3.23997637e+02
60              	3.24122639e+02
61              	3.24257295e+02
62              	3.24414052e+02
63              	3.24573621e+02
64              	3.24722449e+02
65              	3.24864233e+02
66              	3.25012546e+02
67              	3.25150328e+02
68              	3.25302751e+02
69              	3.25477570e+02
70              	3.25650570e+02
71              	3.25795564e+02
72              	3.25943310e+02
73              	3.26075110e+02
74              	3.26174680e+02
75              	3.26263566e+02
76              	3.26340657e+02
77              	3.26412567e+02
78              	3.26458101e+02
79              	3.26549114e+02
80              	3.26675812e+02
81              	3.26761486e+02
82              	3.26843819e+02
83              	3.26975840e+02
84              	3.27121375e+02
85              	3.27259860e+02
86              	3.27372813e+02
87              	3.27459375e+02
88              	3.27554891e+02
89              	3.27651568e+02
90              	3.27725213e+02
91              	3.27766134e+02
92              	3.27785550e+02
93              	3.27841435e+02
94              	3.27945248e+02
95              	3.28047799e+02
96              	3.28135075e+02
97              	3.28200637e+02
98              	3.28263082e+02
99              	3.28315124e+02
100             	3.28359587e+02
101             	3.28349772e+02
102             	3.28311353e+02
103             	3.28276924e+02
104             	3.28250786e+02
105             	3.28216289e+02
106             	3.28262394e+02
107             	3.28353159e+02
108             	3.28452043e+02
109             	3.28539990e+02
110             	3.28620578e+02
111             	3.28691279e+02
112             	3.28763140e+02
113             	3.28832379e+02
114             	3.28853578e+02
115             	3.28829813e+02
116             	3.28786337e+02
117             	3.28741254e+02
118             	3.28721783e+02
119             	3.28747581e+02
120             	3.28752896e+02
121             	3.28785333e+02
122             	3.28861685e+02
123             	3.28938774e+02
124             	3.28982101e+02
125             	3.28999991e+02
126             	3.29029008e+02
127             	3.29072453e+02
128             	3.29123006e+02
129             	3.29186791e+02
130             	3.29217714e+02
131             	3.29223612e+02
132             	3.29200440e+02
133             	3.29201641e+02
134             	3.29207488e+02
135             	3.29224952e+02
136             	3.29247011e+02
137             	3.29262034e+02
138             	3.29262251e+02
139             	3.29270219e+02
140             	3.29304862e+02
141             	3.29339715e+02
142             	3.29363421e+02
143             	3.29380812e+02
144             	3.29404508e+02
145             	3.29436437e+02
146             	3.29472807e+02
147             	3.29500044e+02
148             	3.29527551e+02
149             	3.29560574e+02
150             	3.29600719e+02
151             	3.29632230e+02
152             	3.29653005e+02
153             	3.29671549e+02
154             	3.29678121e+02
155             	3.29678098e+02
156             	3.29662290e+02
157             	3.29645270e+02
158             	3.29614418e+02
159             	3.29596217e+02
160             	3.29598278e+02
161             	3.29608729e+02
162             	3.29615968e+02
163             	3.29640063e+02
164             	3.29680229e+02
165             	3.29725161e+02
166             	3.29761642e+02
167             	3.29804864e+02
168             	3.29845790e+02
169             	3.29874693e+02
170             	3.29888547e+02
171             	3.29896920e+02
172             	3.29891399e+02
173             	3.29877726e+02
174             	3.29852131e+02
175             	3.29818991e+02
176             	3.29777123e+02
177             	3.29735711e+02
178             	3.29730827e+02
179             	3.29756324e+02
180             	3.29785925e+02
181             	3.29798508e+02
182             	3.29801565e+02
183             	3.29813131e+02
184             	3.29835635e+02
185             	3.29859512e+02
186             	3.29877239e+02
187             	3.29887543e+02
188             	3.29900294e+02
189             	3.29905131e+02
190             	3.29897307e+02
191             	3.29885394e+02
192             	3.29894386e+02
193             	3.29920964e+02
194             	3.29945267e+02
195             	3.29957416e+02
196             	3.29966669e+02
197             	3.29980933e+02
198             	3.29999390e+02
199             	3.30005774e+02
200             	3.30002300e+02
201             	3.29997106e+02
202             	3.29991899e+02
203             	3.29995621e+02
204             	3.30005498e+02
205             	3.30016068e+02
206             	3.30024804e+02
207             	3.30040883e+02
208             	3.30066090e+02
209             	3.30093832e+02
210             	3.30119574e+02
211             	3.30143856e+02
212             	3.30166589e+02
213             	3.30192563e+02
214             	3.30211751e+02
215             	3.30221843e+02
216             	3.30225521e+02
217             	3.30227551e+02
218             	3.30229883e+02
219             	3.30233300e+02
220             	3.30236212e+02
221             	3.30237197e+02
222             	3.30237736e+02
223             	3.30237769e+02
224             	3.30238522e+02
225             	3.30244608e+02
226             	3.30256229e+02
227             	3.30268499e+02
228             	3.30279021e+02
229             	3.30288530e+02
230             	3.30303849e+02
231             	3.30313190e+02
232             	3.30312411e+02
233             	3.30308887e+02
234             	3.30308139e+02
235             	3.30310166e+02
236             	3.30309175e+02
237             	3.30302992e+02
238             	3.30294075e+02
239             	3.30297389e+02
240             	3.30311839e+02
241             	3.30325625e+02
242             	3.30332959e+02
243             	3.30338786e+02
244             	3.30350229e+02
245             	3.30366810e+02
246             	3.30379296e+02
247             	3.30380394e+02
248             	3.30375629e+02
249             	3.30375102e+02
250             	3.30378705e+02
251             	3.30381619e+02
252             	3.30372977e+02
253             	3.30365806e+02
254             	3.30371224e+02
255             	3.30383670e+02
256             	3.30392949e+02
257             	3.30399548e+02
258             	3.30411530e+02
259             	3.30426247e+02
260             	3.30442719e+02
261             	3.30462548e+02
262             	3.30473086e+02
263             	3.30473584e+02
264             	3.30471052e+02
265             	3.30473043e+02
266             	3.30474961e+02
267             	3.30467437e+02
268             	3.30447965e+02
269             	3.30442059e+02
270             	3.30458506e+02
271             	3.30478894e+02
272             	3.30481843e+02
273             	3.30482873e+02
274             	3.30497111e+02
275             	3.30529007e+02
276             	3.30547709e+02
277             	3.30545885e+02
278             	3.30538786e+02
279             	3.30533131e+02
280             	3.30538620e+02
281             	3.30520077e+02
282             	3.30492323e+02
283             	3.30473783e+02
284             	3.30465825e+02
285             	3.30459144e+02
286             	3.30452633e+02
287             	3.30468096e+02
288             	3.30504114e+02
289             	3.30532288e+02
290             	3.30560349e+02
291             	3.30585118e+02
292             	3.30609238e+02
293             	3.30618408e+02
294             	3.30614489e+02
295             	3.30605093e+02
296             	3.30592616e+02
297             	3.30570389e+02
298             	3.30550578e+02
299             	3.30539656e+02
300             	3.30540908e+02
301             	3.30546927e+02
302             	3.30554177e+02
303             	3.30564806e+02
304             	3.30572813e+02
305             	3.30588668e+02
306             	3.30608279e+02
307             	3.30623423e+02
308             	3.30630899e+02
309             	3.30633893e+02
310             	3.30631011e+02
311             	3.30625376e+02
312             	3.30620672e+02
313             	3.30619769e+02
314             	3.30622954e+02
315             	3.30626420e+02
316             	3.30625158e+02
317             	3.30617602e+02
318             	3.30603144e+02
319             	3.30586973e+02
320             	3.30579022e+02
321             	3.30585774e+02
322             	3.30598730e+02
323             	3.30608506e+02
324             	3.30610250e+02
325             	3.30616143e+02
326             	3.30634423e+02
327             	3.30645930e+02
328             	3.30643833e+02
329             	3.30636045e+02
330             	3.30630479e+02
331             	3.30626154e+02
332             	3.30618350e+02
333             	3.30601141e+02
334             	3.30574569e+02
335             	3.30547739e+02
336             	3.30540237e+02
337             	3.30546719e+02
338             	3.30563875e+02
339             	3.30575997e+02
340             	3.30590236e+02
341             	3.30610338e+02
342             	3.30633987e+02
343             	3.30645872e+02
344             	3.30647314e+02
345             	3.30641231e+02
346             	3.30634079e+02
347             	3.30628528e+02
348             	3.30623578e+02
349             	3.30619665e+02
350             	3.30619826e+02
351             	3.30622497e+02
352             	3.30625482e+02
353             	3.30628332e+02
354             	3.30629491e+02
355             	3.30631087e+02
356             	3.30634301e+02
357             	3.30639276e+02
358             	3.30644653e+02
359             	3.30649964e+02
360             	3.30655826e+02
361             	3.30659879e+02
362             	3.30666398e+02
363             	3.30678222e+02
364             	3.30680472e+02
365             	3.30671641e+02
366             	3.30659751e+02
367             	3.30655186e+02
368             	3.30650370e+02
369             	3.30638344e+02
370             	3.30638438e+02
371             	3.30649822e+02
372             	3.30667210e+02
373             	3.30678658e+02
374             	3.30683755e+02
375             	3.30686130e+02
376             	3.30685698e+02
377             	3.30684332e+02
378             	3.30672901e+02
379             	3.30657451e+02
380             	3.30650729e+02
381             	3.30652294e+02
382             	3.30649872e+02
383             	3.30639195e+02
384             	3.30623268e+02
385             	3.30619109e+02
386             	3.30627256e+02
387             	3.30635604e+02
388             	3.30635413e+02
389             	3.30636640e+02
390             	3.30648496e+02
391             	3.30670809e+02
392             	3.30684793e+02
393             	3.30684683e+02
394             	3.30678882e+02
395             	3.30676000e+02
396             	3.30675243e+02
397             	3.30669874e+02
398             	3.30659286e+02
399             	3.30641010e+02
400             	3.30610236e+02
401             	3.30593988e+02
402             	3.30595215e+02
403             	3.30609104e+02
404             	3.30625534e+02
405             	3.30632162e+02
406             	3.30638507e+02
407             	3.30653627e+02
408             	3.30665177e+02
409             	3.30666408e+02
410             	3.30661288e+02
411             	3.30657119e+02
412             	3.30654416e+02
413             	3.30650621e+02
414             	3.30636944e+02
415             	3.30622148e+02
416             	3.30614147e+02
417             	3.30612076e+02
418             	3.30611275e+02
419             	3.30603173e+02
420             	3.30608498e+02
421             	3.30625220e+02
422             	3.30647423e+02
423             	3.30664426e+02
424             	3.30676390e+02
425             	3.30687521e+02
426             	3.30690850e+02
427             	3.30689703e+02
428             	3.30683142e+02
429             	3.30672786e+02
430             	3.30661703e+02
431             	3.30652403e+02
432             	3.30641429e+02
433             	3.30641663e+02
434             	3.30659469e+02
435             	3.30672339e+02
436             	3.30679735e+02
437             	3.30679554e+02
438             	3.30679152e+02
439             	3.30684881e+02
440             	3.30689400e+02
441             	3.30685958e+02
442             	3.30680647e+02
443             	3.30680614e+02
444             	3.30684308e+02
445             	3.30685811e+02
446             	3.30683148e+02
447             	3.30679816e+02
448             	3.30674415e+02
449             	3.30667357e+02
450             	3.30656645e+02
451             	3.30651096e+02
452             	3.30656813e+02
453             	3.30668337e+02
454             	3.30677972e+02
455             	3.30685178e+02
456             	3.30692267e+02
457             	3.30699885e+02
458             	3.30700029e+02
459             	3.30693542e+02
460             	3.30686400e+02
461             	3.30682691e+02
462             	3.30680498e+02
463             	3.30678791e+02
464             	3.30676996e+02
465             	3.30673574e+02
466             	3.30672137e+02
467             	3.30674073e+02
468             	3.30676397e+02
469             	3.30677423e+02
470             	3.30678117e+02
471             	3.30680098e+02
472             	3.30682826e+02
473             	3.30689174e+02
474             	3.30706928e+02
475             	3.30721866e+02
476             	3.30731540e+02
477             	3.30733079e+02
478             	3.30730511e+02
479             	3.30727335e+02
480             	3.30720508e+02
481             	3.30711271e+02
482             	3.30700158e+02
483             	3.30684228e+02
484             	3.30670458e+02
485             	3.30666281e+02
486             	3.30670345e+02
487             	3.30675594e+02
488             	3.30678491e+02
489             	3.30678143e+02
490             	3.30681008e+02
491             	3.30697683e+02
492             	3.30721262e+02
493             	3.30731493e+02
494             	3.30726572e+02
495             	3.30711905e+02
496             	3.30703659e+02
497             	3.30695922e+02
498             	3.30677957e+02
499             	3.30645663e+02
500             	3.30622615e+02
501             	3.30622526e+02
502             	3.30645667e+02
503             	3.30666924e+02
504             	3.30686428e+02
505             	3.30697691e+02
506             	3.30701704e+02
507             	3.30691538e+02
508             	3.30677081e+02
509             	3.30673919e+02
510             	3.30683737e+02
511             	3.30695368e+02
512             	3.30701288e+02
513             	3.30704140e+02
514             	3.30705650e+02
515             	3.30695593e+02
516             	3.30678175e+02
517             	3.30656840e+02
518             	3.30634613e+02
519             	3.30630309e+02
520             	3.30640929e+02
521             	3.30649724e+02
522             	3.30649432e+02
523             	3.30647301e+02
524             	3.30652815e+02
525             	3.30664771e+02
526             	3.30674557e+02
527             	3.30675585e+02
528             	3.30672617e+02
529             	3.30669793e+02
530             	3.30670611e+02
531             	3.30671612e+02
532             	3.30670384e+02
533             	3.30664797e+02
534             	3.30659408e+02
535             	3.30648930e+02
536             	3.30640828e+02
537             	3.30638935e+02
538             	3.30640362e+02
539             	3.30641239e+02
540             	3.30640809e+02
541             	3.30639376e+02
542             	3.30644992e+02
543             	3.30660937e+02
544             	3.30677612e+02
545             	3.30694007e+02
546             	3.30706217e+02
547             	3.30714590e+02
548             	3.30717253e+02
549             	3.30707897e+02
550             	3.30695469e+02
551             	3.30680911e+02
552             	3.30659059e+02
553             	3.30631147e+02
554             	3.30607509e+02
555             	3.30615354e+02
556             	3.30645083e+02
557             	3.30665905e+02
558             	3.30674757e+02
559             	3.30681113e+02
560             	3.30684137e+02
561             	3.30686534e+02
562             	3.30685928e+02
563             	3.30681176e+02
564             	3.30671836e+02
565             	3.30666668e+02
566             	3.30667075e+02
567             	3.30667549e+02
568             	3.30665251e+02
569             	3.30663245e+02
570             	3.30660744e+02
571             	3.30656975e+02
572             	3.30654112e+02
573             	3.30653267e+02
574             	3.30655061e+02
575             	3.30658481e+02
576             	3.30661909e+02
577             	3.30664577e+02
578             	3.30665558e+02
579             	3.30670908e+02
580             	3.30686624e+02
581             	3.30694640e+02
582             	3.30690901e+02
583             	3.30684259e+02
584             	3.30681937e+02
585             	3.30686027e+02
586             	3.30682675e+02
587             	3.30658652e+02
588             	3.30644605e+02
589             	3.30654114e+02
590             	3.30671613e+02
591             	3.30679157e+02
592             	3.30677693e+02
593             	3.30688802e+02
594             	3.30701470e+02
595             	3.30704038e+02
596             	3.30699834e+02
597             	3.30694943e+02
598             	3.30691991e+02
599             	3.30678646e+02
600             	3.30651759e+02
601             	3.30644023e+02
602             	3.30661283e+02
603             	3.30681515e+02
604             	3.30686197e+02
605             	3.30685753e+02
606             	3.30695457e+02
607             	3.30719553e+02
608             	3.30738053e+02
609             	3.30737468e+02
610             	3.30718532e+02
611             	3.30702570e+02
612             	3.30693818e+02
613             	3.30674016e+02
614             	3.30660694e+02
615             	3.30662210e+02
616             	3.30669587e+02
617             	3.30672703e+02
618             	3.30667176e+02
619             	3.30664255e+02
620             	3.30674138e+02
621             	3.30692398e+02
