# Region        : cellZone component_4
# Cells         : 17
# Volume        : 7.72390731e-03
# Time          	volAverage(T)
1               	3.07176767e+02
2               	3.14005299e+02
3               	3.20241776e+02
4               	3.26139863e+02
5               	3.31847597e+02
6               	3.37412037e+02
7               	3.42861924e+02
8               	3.48201926e+02
9               	3.53446656e+02
10              	3.58616456e+02
11              	3.63702549e+02
12              	3.68708421e+02
13              	3.73656125e+02
14              	3.78579900e+02
15              	3.83516686e+02
16              	3.88474326e+02
17              	3.93272485e+02
18              	3.97735803e+02
19              	4.02000072e+02
20              	4.06274073e+02
21              	4.10615545e+02
22              	4.14972751e+02
23              	4.19314573e+02
24              	4.23625334e+02
25              	4.27895789e+02
26              	4.32113544e+02
27              	4.36297494e+02
28              	4.40422992e+02
29              	4.44506790e+02
30              	4.48552031e+02
31              	4.52566216e+02
32              	4.56541719e+02
33              	4.60518982e+02
34              	4.64502620e+02
35              	4.68501524e+02
36              	4.72545488e+02
37              	4.76422438e+02
38              	4.80098005e+02
39              	4.83705527e+02
40              	4.87313078e+02
41              	4.90891947e+02
42              	4.94431785e+02
43              	4.97929830e+02
44              	5.01348221e+02
45              	5.04679562e+02
46              	5.07926754e+02
47              	5.11158103e+02
48              	5.14389714e+02
49              	5.17613209e+02
50              	5.20860311e+02
51              	5.24078532e+02
52              	5.27356752e+02
53              	5.30608472e+02
54              	5.33922624e+02
55              	5.37156550e+02
56              	5.40302067e+02
57              	5.43366161e+02
58              	5.46361087e+02
59              	5.49296981e+02
60              	5.52165866e+02
61              	5.54972098e+02
62              	5.57722627e+02
63              	5.60425393e+02
64              	5.63089501e+02
65              	5.65719701e+02
66              	5.68314615e+02
67              	5.70874959e+02
68              	5.73440835e+02
69              	5.76041034e+02
70              	5.78665222e+02
71              	5.81221353e+02
72              	5.83859693e+02
73              	5.86444251e+02
74              	5.89037298e+02
75              	5.91577054e+02
76              	5.94077436e+02
77              	5.96053316e+02
78              	5.97409483e+02
79              	5.98521816e+02
80              	5.99267241e+02
81              	5.99611101e+02
82              	5.99725609e+02
83              	5.99767992e+02
84              	5.99777777e+02
85              	5.99776742e+02
86              	5.99772438e+02
87              	5.99768346e+02
88              	5.99764117e+02
89              	5.99766798e+02
90              	5.99772883e+02
91              	5.99776585e+02
92              	5.99781112e+02
93              	5.99782664e+02
94              	5.99772264e+02
95              	5.99784348e+02
96              	5.99779141e+02
97              	5.99783527e+02
98              	5.99789542e+02
99              	5.99791882e+02
100             	5.99789170e+02
101             	5.99779411e+02
102             	5.99761785e+02
103             	5.99746529e+02
104             	5.99735828e+02
105             	5.99730684e+02
106             	5.99736846e+02
107             	5.99749320e+02
108             	5.99756357e+02
109             	5.99760684e+02
110             	5.99759098e+02
111             	5.99753791e+02
112             	5.99743779e+02
113             	5.99744872e+02
114             	5.99753911e+02
115             	5.99763063e+02
116             	5.99770669e+02
117             	5.99774306e+02
118             	5.99771787e+02
119             	5.99758729e+02
120             	5.99740050e+02
121             	5.99723773e+02
122             	5.99720323e+02
123             	5.99729233e+02
124             	5.99743233e+02
125             	5.99756779e+02
126             	5.99766191e+02
127             	5.99758884e+02
128             	5.99748134e+02
129             	5.99755838e+02
130             	5.99771134e+02
131             	5.99781271e+02
132             	5.99786222e+02
133             	5.99782509e+02
134             	5.99768048e+02
135             	5.99752166e+02
136             	5.99743358e+02
137             	5.99744044e+02
138             	5.99751786e+02
139             	5.99763513e+02
140             	5.99778153e+02
141             	5.99761583e+02
142             	5.99782391e+02
143             	5.99787553e+02
144             	5.99790586e+02
145             	5.99792346e+02
146             	5.99791560e+02
147             	5.99783901e+02
148             	5.99770888e+02
149             	5.99760624e+02
150             	5.99757745e+02
151             	5.99762907e+02
152             	5.99774091e+02
153             	5.99768315e+02
154             	5.99750831e+02
155             	5.99738268e+02
156             	5.99750326e+02
157             	5.99759730e+02
158             	5.99766093e+02
159             	5.99769306e+02
160             	5.99760956e+02
161             	5.99743176e+02
162             	5.99736154e+02
163             	5.99736115e+02
164             	5.99743701e+02
165             	5.99755245e+02
166             	5.99766958e+02
167             	5.99773294e+02
168             	5.99770280e+02
169             	5.99761329e+02
170             	5.99777968e+02
171             	5.99787874e+02
172             	5.99792896e+02
173             	5.99795802e+02
174             	5.99794863e+02
175             	5.99786698e+02
176             	5.99773387e+02
177             	5.99768601e+02
178             	5.99771519e+02
179             	5.99777478e+02
180             	5.99782607e+02
181             	5.99783825e+02
182             	5.99778161e+02
183             	5.99790648e+02
184             	5.99792639e+02
185             	5.99793815e+02
186             	5.99795291e+02
187             	5.99795763e+02
188             	5.99795131e+02
189             	5.99794011e+02
190             	5.99791236e+02
191             	5.99789109e+02
192             	5.99788063e+02
193             	5.99788198e+02
194             	5.99787582e+02
195             	5.99788296e+02
196             	5.99789564e+02
197             	5.99791219e+02
198             	5.99792667e+02
199             	5.99793539e+02
200             	5.99790828e+02
201             	5.99785913e+02
202             	5.99790790e+02
203             	5.99795567e+02
204             	5.99796247e+02
205             	5.99795068e+02
206             	5.99793814e+02
207             	5.99791314e+02
208             	5.99786327e+02
209             	5.99779590e+02
210             	5.99774214e+02
211             	5.99768062e+02
212             	5.99763808e+02
213             	5.99766589e+02
214             	5.99769125e+02
215             	5.99772885e+02
216             	5.99776669e+02
217             	5.99777858e+02
218             	5.99784490e+02
219             	5.99788785e+02
220             	5.99790335e+02
221             	5.99791308e+02
222             	5.99790679e+02
223             	5.99787847e+02
224             	5.99783654e+02
225             	5.99779408e+02
226             	5.99776424e+02
227             	5.99772544e+02
228             	5.99770422e+02
229             	5.99770964e+02
230             	5.99771928e+02
231             	5.99771966e+02
232             	5.99770987e+02
233             	5.99768960e+02
234             	5.99770071e+02
235             	5.99774232e+02
236             	5.99779594e+02
237             	5.99783342e+02
238             	5.99784819e+02
239             	5.99784758e+02
240             	5.99782599e+02
241             	5.99777585e+02
242             	5.99773155e+02
243             	5.99767536e+02
244             	5.99763684e+02
245             	5.99764978e+02
246             	5.99765969e+02
247             	5.99767523e+02
248             	5.99771748e+02
249             	5.99775251e+02
250             	5.99776911e+02
251             	5.99777853e+02
252             	5.99781167e+02
253             	5.99785506e+02
254             	5.99788933e+02
255             	5.99790160e+02
256             	5.99790324e+02
257             	5.99788715e+02
258             	5.99784059e+02
259             	5.99777653e+02
260             	5.99774328e+02
261             	5.99773383e+02
262             	5.99773166e+02
263             	5.99772899e+02
264             	5.99772702e+02
265             	5.99774748e+02
266             	5.99775590e+02
267             	5.99779175e+02
268             	5.99782287e+02
269             	5.99783319e+02
270             	5.99782342e+02
271             	5.99781246e+02
272             	5.99778834e+02
273             	5.99773061e+02
274             	5.99768192e+02
275             	5.99765113e+02
276             	5.99764581e+02
277             	5.99767337e+02
278             	5.99768707e+02
279             	5.99766220e+02
280             	5.99774032e+02
281             	5.99779224e+02
282             	5.99779344e+02
283             	5.99777596e+02
284             	5.99776099e+02
285             	5.99776134e+02
286             	5.99777412e+02
287             	5.99779073e+02
288             	5.99779898e+02
289             	5.99779767e+02
290             	5.99778965e+02
291             	5.99777488e+02
292             	5.99775891e+02
293             	5.99774949e+02
294             	5.99773975e+02
295             	5.99773038e+02
296             	5.99772141e+02
297             	5.99772528e+02
298             	5.99772530e+02
299             	5.99771190e+02
300             	5.99768579e+02
301             	5.99763796e+02
302             	5.99770632e+02
303             	5.99773460e+02
304             	5.99772269e+02
305             	5.99769938e+02
306             	5.99768493e+02
307             	5.99769025e+02
308             	5.99770389e+02
309             	5.99770551e+02
310             	5.99769177e+02
311             	5.99767814e+02
312             	5.99766946e+02
313             	5.99766877e+02
314             	5.99765062e+02
315             	5.99765706e+02
316             	5.99767815e+02
317             	5.99769636e+02
318             	5.99769845e+02
319             	5.99769561e+02
320             	5.99770828e+02
321             	5.99774635e+02
322             	5.99778408e+02
323             	5.99779823e+02
324             	5.99778880e+02
325             	5.99774495e+02
326             	5.99768074e+02
327             	5.99763551e+02
328             	5.99761672e+02
329             	5.99764105e+02
330             	5.99766803e+02
331             	5.99768804e+02
332             	5.99768943e+02
333             	5.99767329e+02
334             	5.99775565e+02
335             	5.99779539e+02
336             	5.99780735e+02
337             	5.99778599e+02
338             	5.99772918e+02
339             	5.99767695e+02
340             	5.99764910e+02
341             	5.99764967e+02
342             	5.99767561e+02
343             	5.99769089e+02
344             	5.99771055e+02
345             	5.99770806e+02
346             	5.99776471e+02
347             	5.99778189e+02
348             	5.99778025e+02
349             	5.99777853e+02
350             	5.99776142e+02
351             	5.99772597e+02
352             	5.99769746e+02
353             	5.99767394e+02
354             	5.99766176e+02
355             	5.99767958e+02
356             	5.99768652e+02
357             	5.99769613e+02
358             	5.99774389e+02
359             	5.99777842e+02
360             	5.99778912e+02
361             	5.99779551e+02
362             	5.99778935e+02
363             	5.99775941e+02
364             	5.99774152e+02
365             	5.99774684e+02
366             	5.99776063e+02
367             	5.99777174e+02
368             	5.99776945e+02
369             	5.99778000e+02
370             	5.99779499e+02
371             	5.99779561e+02
372             	5.99778778e+02
373             	5.99778255e+02
374             	5.99777792e+02
375             	5.99776571e+02
376             	5.99775480e+02
377             	5.99774344e+02
378             	5.99774113e+02
379             	5.99775311e+02
380             	5.99776225e+02
381             	5.99778153e+02
382             	5.99780026e+02
383             	5.99781184e+02
384             	5.99780674e+02
385             	5.99779816e+02
386             	5.99778949e+02
387             	5.99777547e+02
388             	5.99776527e+02
389             	5.99776070e+02
390             	5.99776498e+02
391             	5.99776889e+02
392             	5.99777024e+02
393             	5.99777318e+02
394             	5.99777372e+02
395             	5.99777817e+02
396             	5.99779248e+02
397             	5.99780278e+02
398             	5.99780119e+02
399             	5.99779180e+02
400             	5.99777597e+02
401             	5.99775762e+02
402             	5.99774288e+02
403             	5.99774093e+02
404             	5.99774966e+02
405             	5.99775365e+02
406             	5.99776485e+02
407             	5.99778292e+02
408             	5.99779591e+02
409             	5.99779939e+02
410             	5.99779380e+02
411             	5.99778329e+02
412             	5.99776814e+02
413             	5.99775147e+02
414             	5.99773706e+02
415             	5.99773438e+02
416             	5.99774537e+02
417             	5.99775453e+02
418             	5.99777128e+02
419             	5.99778755e+02
420             	5.99779825e+02
421             	5.99779795e+02
422             	5.99778655e+02
423             	5.99777009e+02
424             	5.99775197e+02
425             	5.99773525e+02
426             	5.99772900e+02
427             	5.99773702e+02
428             	5.99774476e+02
429             	5.99775295e+02
430             	5.99776534e+02
431             	5.99777673e+02
432             	5.99778343e+02
433             	5.99778067e+02
434             	5.99777332e+02
435             	5.99775894e+02
436             	5.99774974e+02
437             	5.99774604e+02
438             	5.99774537e+02
439             	5.99775221e+02
440             	5.99775775e+02
441             	5.99776399e+02
442             	5.99777610e+02
443             	5.99778829e+02
444             	5.99779323e+02
445             	5.99778869e+02
446             	5.99777911e+02
447             	5.99777060e+02
448             	5.99776151e+02
449             	5.99775707e+02
450             	5.99776242e+02
451             	5.99776957e+02
452             	5.99777530e+02
453             	5.99778516e+02
454             	5.99779360e+02
455             	5.99779496e+02
456             	5.99778821e+02
457             	5.99777539e+02
458             	5.99776830e+02
459             	5.99776651e+02
460             	5.99776839e+02
461             	5.99777192e+02
462             	5.99777405e+02
463             	5.99777542e+02
464             	5.99777826e+02
465             	5.99778126e+02
466             	5.99778405e+02
467             	5.99778458e+02
468             	5.99778160e+02
469             	5.99777622e+02
470             	5.99777136e+02
471             	5.99776757e+02
472             	5.99776588e+02
473             	5.99776803e+02
474             	5.99777046e+02
475             	5.99777229e+02
476             	5.99777528e+02
477             	5.99777871e+02
478             	5.99778127e+02
479             	5.99778059e+02
480             	5.99777796e+02
481             	5.99777495e+02
482             	5.99777118e+02
483             	5.99776795e+02
484             	5.99776566e+02
485             	5.99776660e+02
486             	5.99776968e+02
487             	5.99777344e+02
488             	5.99777752e+02
489             	5.99778165e+02
490             	5.99778308e+02
491             	5.99778012e+02
492             	5.99777649e+02
493             	5.99777153e+02
494             	5.99776745e+02
495             	5.99776546e+02
496             	5.99776566e+02
497             	5.99776835e+02
498             	5.99777154e+02
499             	5.99777587e+02
500             	5.99777944e+02
501             	5.99778083e+02
502             	5.99777981e+02
503             	5.99777713e+02
504             	5.99777349e+02
505             	5.99776875e+02
506             	5.99776533e+02
507             	5.99776449e+02
508             	5.99776736e+02
509             	5.99777024e+02
510             	5.99777299e+02
511             	5.99777641e+02
512             	5.99778014e+02
513             	5.99778199e+02
514             	5.99778006e+02
515             	5.99777765e+02
516             	5.99777456e+02
517             	5.99777080e+02
518             	5.99776890e+02
519             	5.99776897e+02
520             	5.99777030e+02
521             	5.99777201e+02
522             	5.99777409e+02
523             	5.99777688e+02
524             	5.99777955e+02
525             	5.99777954e+02
526             	5.99777754e+02
527             	5.99777535e+02
528             	5.99777328e+02
529             	5.99777075e+02
530             	5.99776919e+02
531             	5.99776890e+02
532             	5.99777045e+02
533             	5.99777265e+02
534             	5.99777460e+02
535             	5.99777626e+02
536             	5.99777775e+02
537             	5.99777892e+02
538             	5.99777858e+02
539             	5.99777710e+02
540             	5.99777415e+02
541             	5.99777179e+02
542             	5.99777085e+02
543             	5.99777062e+02
544             	5.99777160e+02
545             	5.99777282e+02
546             	5.99777448e+02
547             	5.99777622e+02
548             	5.99777748e+02
549             	5.99777799e+02
550             	5.99777714e+02
551             	5.99777604e+02
552             	5.99777413e+02
553             	5.99777232e+02
554             	5.99777118e+02
555             	5.99777131e+02
556             	5.99777228e+02
557             	5.99777332e+02
558             	5.99777494e+02
559             	5.99777636e+02
560             	5.99777735e+02
561             	5.99777723e+02
562             	5.99777618e+02
563             	5.99777487e+02
564             	5.99777310e+02
565             	5.99777157e+02
566             	5.99777056e+02
567             	5.99777041e+02
568             	5.99777127e+02
569             	5.99777225e+02
570             	5.99777367e+02
571             	5.99777547e+02
572             	5.99777686e+02
573             	5.99777680e+02
574             	5.99777567e+02
575             	5.99777456e+02
576             	5.99777277e+02
577             	5.99777146e+02
578             	5.99777081e+02
579             	5.99777103e+02
580             	5.99777182e+02
581             	5.99777284e+02
582             	5.99777414e+02
583             	5.99777535e+02
584             	5.99777631e+02
585             	5.99777632e+02
586             	5.99777537e+02
587             	5.99777425e+02
588             	5.99777239e+02
589             	5.99777110e+02
590             	5.99777090e+02
591             	5.99777165e+02
592             	5.99777256e+02
593             	5.99777337e+02
594             	5.99777434e+02
595             	5.99777528e+02
596             	5.99777576e+02
597             	5.99777542e+02
598             	5.99777462e+02
599             	5.99777364e+02
600             	5.99777284e+02
601             	5.99777220e+02
602             	5.99777195e+02
603             	5.99777245e+02
604             	5.99777312e+02
605             	5.99777418e+02
606             	5.99777493e+02
607             	5.99777527e+02
608             	5.99777513e+02
609             	5.99777465e+02
610             	5.99777410e+02
611             	5.99777332e+02
612             	5.99777266e+02
613             	5.99777240e+02
614             	5.99777258e+02
615             	5.99777307e+02
616             	5.99777360e+02
617             	5.99777432e+02
618             	5.99777493e+02
619             	5.99777522e+02
620             	5.99777489e+02
621             	5.99777439e+02
