# Region        : cellZone component_4
# Cells         : 48
# Volume        : 7.56333978e-02
# Time          	volAverage(T)
1               	3.12087633e+02
2               	3.23621783e+02
3               	3.30978564e+02
4               	3.35649927e+02
5               	3.40482468e+02
6               	3.46152206e+02
7               	3.51652310e+02
8               	3.56155565e+02
9               	3.59932656e+02
10              	3.63346713e+02
11              	3.66911600e+02
12              	3.70604909e+02
13              	3.74266167e+02
14              	3.77785109e+02
15              	3.80545295e+02
16              	3.82649752e+02
17              	3.83483193e+02
18              	3.84427086e+02
19              	3.85888167e+02
20              	3.87785926e+02
21              	3.89736847e+02
22              	3.91328945e+02
23              	3.92710870e+02
24              	3.93888571e+02
25              	3.94798077e+02
26              	3.95449056e+02
27              	3.96071566e+02
28              	3.96451660e+02
29              	3.96864979e+02
30              	3.97189078e+02
31              	3.97409164e+02
32              	3.97612875e+02
33              	3.97884014e+02
34              	3.98185317e+02
35              	3.98635852e+02
36              	3.99028542e+02
37              	3.99422940e+02
38              	3.99846167e+02
39              	4.00261065e+02
40              	4.00557862e+02
41              	4.00919440e+02
42              	4.01416598e+02
43              	4.02095446e+02
44              	4.02699665e+02
45              	4.03147075e+02
46              	4.02917586e+02
47              	4.02746345e+02
48              	4.02578013e+02
49              	4.02280981e+02
50              	4.01803241e+02
51              	4.01233690e+02
52              	4.00747787e+02
53              	4.00422108e+02
54              	4.00468806e+02
55              	4.00771412e+02
56              	4.01366752e+02
57              	4.02451064e+02
58              	4.02791114e+02
59              	4.02480847e+02
60              	4.02263296e+02
61              	4.02213657e+02
62              	4.02613078e+02
63              	4.02868756e+02
64              	4.02896156e+02
65              	4.02836033e+02
66              	4.02527531e+02
67              	4.02120067e+02
68              	4.01937615e+02
69              	4.02005552e+02
70              	4.02542866e+02
71              	4.02665065e+02
72              	4.02970575e+02
73              	4.03297493e+02
74              	4.03651925e+02
75              	4.03817801e+02
76              	4.03767444e+02
77              	4.03769052e+02
78              	4.03770283e+02
79              	4.03797876e+02
80              	4.03845306e+02
81              	4.03790528e+02
82              	4.03584093e+02
83              	4.03443103e+02
84              	4.03477676e+02
85              	4.03667163e+02
86              	4.03875259e+02
87              	4.04122390e+02
88              	4.04390001e+02
89              	4.04683947e+02
90              	4.04975186e+02
91              	4.05218893e+02
92              	4.05361523e+02
93              	4.05391917e+02
94              	4.05370409e+02
95              	4.05348447e+02
96              	4.05322001e+02
97              	4.05182321e+02
98              	4.05116950e+02
99              	4.04956322e+02
100             	4.04847127e+02
101             	4.04827657e+02
102             	4.04823840e+02
103             	4.04827028e+02
104             	4.04890517e+02
105             	4.05043982e+02
106             	4.05247216e+02
107             	4.05429870e+02
108             	4.05573709e+02
109             	4.05707717e+02
110             	4.05812131e+02
111             	4.05878679e+02
112             	4.05919611e+02
113             	4.05924201e+02
114             	4.05936241e+02
115             	4.05947590e+02
116             	4.05972436e+02
117             	4.05973751e+02
118             	4.06008288e+02
119             	4.06081849e+02
120             	4.06188729e+02
121             	4.06291583e+02
122             	4.06389009e+02
123             	4.06488868e+02
124             	4.06573460e+02
125             	4.06635179e+02
126             	4.06692185e+02
127             	4.06753171e+02
128             	4.06799075e+02
129             	4.06808173e+02
130             	4.06803519e+02
131             	4.06770521e+02
132             	4.06711654e+02
133             	4.06644050e+02
134             	4.06577925e+02
135             	4.06509010e+02
136             	4.06460799e+02
137             	4.06432776e+02
138             	4.06415606e+02
139             	4.06432145e+02
140             	4.06489055e+02
141             	4.06573374e+02
142             	4.06668394e+02
143             	4.06763215e+02
144             	4.06865678e+02
145             	4.06938014e+02
146             	4.06979591e+02
147             	4.07002486e+02
148             	4.07021092e+02
149             	4.07036956e+02
150             	4.07049738e+02
151             	4.07055566e+02
152             	4.07062803e+02
153             	4.07091615e+02
154             	4.07103922e+02
155             	4.07102474e+02
156             	4.07115496e+02
157             	4.07138144e+02
158             	4.07158720e+02
159             	4.07182973e+02
160             	4.07216852e+02
161             	4.07251558e+02
162             	4.07268976e+02
163             	4.07268663e+02
164             	4.07254419e+02
165             	4.07240859e+02
166             	4.07230610e+02
167             	4.07213348e+02
168             	4.07194536e+02
169             	4.07186282e+02
170             	4.07191408e+02
171             	4.07190768e+02
172             	4.07180361e+02
173             	4.07174559e+02
174             	4.07185816e+02
175             	4.07218850e+02
176             	4.07266093e+02
177             	4.07300334e+02
178             	4.07315690e+02
179             	4.07323641e+02
180             	4.07334077e+02
181             	4.07343910e+02
182             	4.07362196e+02
183             	4.07393022e+02
184             	4.07428285e+02
185             	4.07438070e+02
186             	4.07431439e+02
187             	4.07428579e+02
188             	4.07431950e+02
189             	4.07452475e+02
190             	4.07481899e+02
191             	4.07505014e+02
192             	4.07507798e+02
193             	4.07498198e+02
194             	4.07491186e+02
195             	4.07490445e+02
196             	4.07496800e+02
197             	4.07517726e+02
198             	4.07507712e+02
199             	4.07477048e+02
200             	4.07446007e+02
201             	4.07422804e+02
202             	4.07414370e+02
203             	4.07422365e+02
204             	4.07438989e+02
205             	4.07458946e+02
206             	4.07473905e+02
207             	4.07485696e+02
208             	4.07499177e+02
209             	4.07517351e+02
210             	4.07528007e+02
211             	4.07534961e+02
212             	4.07550206e+02
213             	4.07548308e+02
214             	4.07529136e+02
215             	4.07514175e+02
216             	4.07508203e+02
217             	4.07511468e+02
218             	4.07518397e+02
219             	4.07528984e+02
220             	4.07537976e+02
221             	4.07543004e+02
222             	4.07549499e+02
223             	4.07557294e+02
224             	4.07567917e+02
225             	4.07578703e+02
226             	4.07579092e+02
227             	4.07573572e+02
228             	4.07569983e+02
229             	4.07566728e+02
230             	4.07562237e+02
231             	4.07558916e+02
232             	4.07561167e+02
233             	4.07566434e+02
234             	4.07566424e+02
235             	4.07565790e+02
236             	4.07568442e+02
237             	4.07574174e+02
238             	4.07581815e+02
239             	4.07588847e+02
240             	4.07592116e+02
241             	4.07588708e+02
242             	4.07582991e+02
243             	4.07575594e+02
244             	4.07568451e+02
245             	4.07563050e+02
246             	4.07561057e+02
247             	4.07563758e+02
248             	4.07570680e+02
249             	4.07579899e+02
250             	4.07588816e+02
251             	4.07598803e+02
252             	4.07607065e+02
253             	4.07610918e+02
254             	4.07612549e+02
255             	4.07611974e+02
256             	4.07608601e+02
257             	4.07602575e+02
258             	4.07594983e+02
259             	4.07588207e+02
260             	4.07585675e+02
261             	4.07585756e+02
262             	4.07587515e+02
263             	4.07592272e+02
264             	4.07599740e+02
265             	4.07608029e+02
266             	4.07615776e+02
267             	4.07620309e+02
268             	4.07623064e+02
269             	4.07623797e+02
270             	4.07623007e+02
271             	4.07621779e+02
272             	4.07620360e+02
273             	4.07616860e+02
274             	4.07611109e+02
275             	4.07607428e+02
276             	4.07605542e+02
277             	4.07604857e+02
278             	4.07607619e+02
279             	4.07612929e+02
280             	4.07619185e+02
281             	4.07624952e+02
282             	4.07628511e+02
283             	4.07631284e+02
284             	4.07633719e+02
285             	4.07635298e+02
286             	4.07634057e+02
287             	4.07629999e+02
288             	4.07627599e+02
289             	4.07626855e+02
290             	4.07627438e+02
291             	4.07629571e+02
292             	4.07632455e+02
293             	4.07637555e+02
294             	4.07642209e+02
295             	4.07642389e+02
296             	4.07639023e+02
297             	4.07635116e+02
298             	4.07631577e+02
299             	4.07629006e+02
300             	4.07626359e+02
301             	4.07625886e+02
302             	4.07628782e+02
303             	4.07632357e+02
304             	4.07634024e+02
305             	4.07633982e+02
306             	4.07633281e+02
307             	4.07632852e+02
308             	4.07632222e+02
309             	4.07630677e+02
310             	4.07631319e+02
311             	4.07634103e+02
312             	4.07637818e+02
313             	4.07641368e+02
314             	4.07643564e+02
315             	4.07644488e+02
316             	4.07642878e+02
317             	4.07640942e+02
318             	4.07639428e+02
319             	4.07637870e+02
320             	4.07637749e+02
321             	4.07640240e+02
322             	4.07644020e+02
323             	4.07647282e+02
324             	4.07650603e+02
325             	4.07652654e+02
326             	4.07653820e+02
327             	4.07654021e+02
328             	4.07653521e+02
329             	4.07652635e+02
330             	4.07652111e+02
331             	4.07651721e+02
332             	4.07651646e+02
333             	4.07651208e+02
334             	4.07650679e+02
335             	4.07650164e+02
336             	4.07649807e+02
337             	4.07649681e+02
338             	4.07650299e+02
339             	4.07651816e+02
340             	4.07654295e+02
341             	4.07657010e+02
342             	4.07659959e+02
343             	4.07662642e+02
344             	4.07664312e+02
345             	4.07665119e+02
346             	4.07665223e+02
347             	4.07664603e+02
348             	4.07663475e+02
349             	4.07662113e+02
350             	4.07661067e+02
351             	4.07660550e+02
352             	4.07660349e+02
353             	4.07660536e+02
354             	4.07661168e+02
355             	4.07662034e+02
356             	4.07662963e+02
357             	4.07663969e+02
358             	4.07665057e+02
359             	4.07665942e+02
360             	4.07666677e+02
361             	4.07667198e+02
362             	4.07667816e+02
363             	4.07667953e+02
364             	4.07667754e+02
365             	4.07667688e+02
366             	4.07667722e+02
367             	4.07667747e+02
368             	4.07667727e+02
369             	4.07667557e+02
370             	4.07667243e+02
371             	4.07666702e+02
372             	4.07666039e+02
373             	4.07665582e+02
374             	4.07665273e+02
375             	4.07665130e+02
376             	4.07665330e+02
377             	4.07665814e+02
378             	4.07666617e+02
379             	4.07667419e+02
380             	4.07668308e+02
381             	4.07668871e+02
382             	4.07669262e+02
383             	4.07669758e+02
384             	4.07670089e+02
385             	4.07670322e+02
386             	4.07670769e+02
387             	4.07671155e+02
388             	4.07671607e+02
389             	4.07671965e+02
390             	4.07671980e+02
391             	4.07671782e+02
392             	4.07671401e+02
393             	4.07670747e+02
394             	4.07669942e+02
395             	4.07669068e+02
396             	4.07668469e+02
397             	4.07668012e+02
398             	4.07667698e+02
399             	4.07667492e+02
400             	4.07667444e+02
401             	4.07667530e+02
402             	4.07667722e+02
403             	4.07668115e+02
404             	4.07668482e+02
405             	4.07668925e+02
406             	4.07669359e+02
407             	4.07669726e+02
408             	4.07669811e+02
409             	4.07669819e+02
410             	4.07669611e+02
411             	4.07669108e+02
412             	4.07668557e+02
413             	4.07668131e+02
414             	4.07667825e+02
415             	4.07667544e+02
416             	4.07667545e+02
417             	4.07667707e+02
418             	4.07668101e+02
419             	4.07668535e+02
420             	4.07669081e+02
421             	4.07669698e+02
422             	4.07670340e+02
423             	4.07670917e+02
424             	4.07671492e+02
425             	4.07671831e+02
426             	4.07672147e+02
427             	4.07672403e+02
428             	4.07672599e+02
429             	4.07672700e+02
430             	4.07672882e+02
431             	4.07672986e+02
432             	4.07673099e+02
433             	4.07673184e+02
434             	4.07673236e+02
435             	4.07673318e+02
436             	4.07673370e+02
437             	4.07673340e+02
438             	4.07673344e+02
439             	4.07673388e+02
440             	4.07673489e+02
441             	4.07673602e+02
442             	4.07673798e+02
443             	4.07673938e+02
444             	4.07674131e+02
445             	4.07674247e+02
446             	4.07674224e+02
447             	4.07674052e+02
448             	4.07673798e+02
449             	4.07673510e+02
450             	4.07673272e+02
451             	4.07673074e+02
452             	4.07673071e+02
453             	4.07673252e+02
454             	4.07673508e+02
455             	4.07673775e+02
456             	4.07674040e+02
457             	4.07674234e+02
458             	4.07674447e+02
459             	4.07674519e+02
460             	4.07674488e+02
461             	4.07674408e+02
462             	4.07674295e+02
463             	4.07674194e+02
464             	4.07674063e+02
465             	4.07673971e+02
466             	4.07673953e+02
467             	4.07673981e+02
468             	4.07674006e+02
469             	4.07674067e+02
470             	4.07674175e+02
471             	4.07674311e+02
472             	4.07674487e+02
473             	4.07674669e+02
474             	4.07674855e+02
475             	4.07675001e+02
476             	4.07675180e+02
477             	4.07675252e+02
478             	4.07675260e+02
479             	4.07675219e+02
480             	4.07675149e+02
481             	4.07675035e+02
482             	4.07674871e+02
483             	4.07674804e+02
484             	4.07674648e+02
485             	4.07674590e+02
486             	4.07674627e+02
487             	4.07674703e+02
488             	4.07674768e+02
489             	4.07674854e+02
490             	4.07675049e+02
491             	4.07675221e+02
492             	4.07675304e+02
493             	4.07675326e+02
494             	4.07675429e+02
495             	4.07675467e+02
496             	4.07675421e+02
497             	4.07675365e+02
498             	4.07675384e+02
499             	4.07675328e+02
500             	4.07675298e+02
501             	4.07675273e+02
502             	4.07675254e+02
503             	4.07675221e+02
504             	4.07675191e+02
505             	4.07675169e+02
506             	4.07675161e+02
507             	4.07675165e+02
508             	4.07675170e+02
509             	4.07675199e+02
510             	4.07675256e+02
511             	4.07675297e+02
512             	4.07675380e+02
513             	4.07675415e+02
514             	4.07675398e+02
515             	4.07675353e+02
516             	4.07675291e+02
517             	4.07675198e+02
518             	4.07675089e+02
519             	4.07675017e+02
520             	4.07674920e+02
521             	4.07674903e+02
522             	4.07674959e+02
523             	4.07675045e+02
524             	4.07675138e+02
525             	4.07675239e+02
526             	4.07675338e+02
527             	4.07675415e+02
528             	4.07675496e+02
529             	4.07675533e+02
530             	4.07675560e+02
531             	4.07675590e+02
532             	4.07675632e+02
533             	4.07675665e+02
534             	4.07675670e+02
535             	4.07675653e+02
536             	4.07675636e+02
537             	4.07675552e+02
538             	4.07675489e+02
539             	4.07675461e+02
540             	4.07675427e+02
541             	4.07675415e+02
542             	4.07675419e+02
543             	4.07675452e+02
544             	4.07675502e+02
545             	4.07675561e+02
546             	4.07675640e+02
547             	4.07675699e+02
548             	4.07675729e+02
549             	4.07675737e+02
550             	4.07675716e+02
551             	4.07675683e+02
552             	4.07675618e+02
553             	4.07675539e+02
554             	4.07675456e+02
555             	4.07675384e+02
556             	4.07675330e+02
557             	4.07675304e+02
558             	4.07675293e+02
559             	4.07675332e+02
560             	4.07675393e+02
561             	4.07675465e+02
562             	4.07675551e+02
563             	4.07675632e+02
564             	4.07675697e+02
565             	4.07675737e+02
566             	4.07675760e+02
567             	4.07675753e+02
568             	4.07675729e+02
569             	4.07675703e+02
570             	4.07675674e+02
571             	4.07675647e+02
572             	4.07675634e+02
573             	4.07675629e+02
574             	4.07675625e+02
575             	4.07675619e+02
576             	4.07675641e+02
577             	4.07675668e+02
578             	4.07675681e+02
579             	4.07675695e+02
580             	4.07675711e+02
581             	4.07675730e+02
582             	4.07675744e+02
583             	4.07675749e+02
584             	4.07675727e+02
585             	4.07675721e+02
586             	4.07675702e+02
587             	4.07675670e+02
588             	4.07675642e+02
589             	4.07675631e+02
590             	4.07675631e+02
591             	4.07675648e+02
592             	4.07675682e+02
593             	4.07675736e+02
594             	4.07675815e+02
595             	4.07675885e+02
596             	4.07675964e+02
597             	4.07676041e+02
598             	4.07676090e+02
599             	4.07676099e+02
600             	4.07676096e+02
601             	4.07676069e+02
602             	4.07676030e+02
603             	4.07675983e+02
604             	4.07675959e+02
605             	4.07675930e+02
606             	4.07675902e+02
607             	4.07675892e+02
608             	4.07675898e+02
609             	4.07675898e+02
610             	4.07675900e+02
611             	4.07675922e+02
612             	4.07675955e+02
613             	4.07675987e+02
614             	4.07676017e+02
615             	4.07676036e+02
616             	4.07676051e+02
617             	4.07676063e+02
618             	4.07676068e+02
619             	4.07676075e+02
620             	4.07676065e+02
621             	4.07676059e+02
