# Region        : cellZone component_3
# Cells         : 128
# Volume        : 2.58592864e-01
# Time          	volAverage(T)
1               	3.00273492e+02
2               	3.00543983e+02
3               	3.00794742e+02
4               	3.01031531e+02
5               	3.01259396e+02
6               	3.01479618e+02
7               	3.01694388e+02
8               	3.01904036e+02
9               	3.02109700e+02
10              	3.02311717e+02
11              	3.02510921e+02
12              	3.02708834e+02
13              	3.02907214e+02
14              	3.03103988e+02
15              	3.03297773e+02
16              	3.03490628e+02
17              	3.03680618e+02
18              	3.03866813e+02
19              	3.04049627e+02
20              	3.04227744e+02
21              	3.04400582e+02
22              	3.04567338e+02
23              	3.04727718e+02
24              	3.04881513e+02
25              	3.05030018e+02
26              	3.05173433e+02
27              	3.05308287e+02
28              	3.05439891e+02
29              	3.05569357e+02
30              	3.05696885e+02
31              	3.05828427e+02
32              	3.05963137e+02
33              	3.06097029e+02
34              	3.06224263e+02
35              	3.06347426e+02
36              	3.06470402e+02
37              	3.06587702e+02
38              	3.06698491e+02
39              	3.06807402e+02
40              	3.06910381e+02
41              	3.07009819e+02
42              	3.07106310e+02
43              	3.07199815e+02
44              	3.07291376e+02
45              	3.07381990e+02
46              	3.07471657e+02
47              	3.07560236e+02
48              	3.07647938e+02
49              	3.07735369e+02
50              	3.07821459e+02
51              	3.07905632e+02
52              	3.07989930e+02
53              	3.08074358e+02
54              	3.08158271e+02
55              	3.08242479e+02
56              	3.08326423e+02
57              	3.08411483e+02
58              	3.08493909e+02
59              	3.08571852e+02
60              	3.08644782e+02
61              	3.08713240e+02
62              	3.08777777e+02
63              	3.08837579e+02
64              	3.08896387e+02
65              	3.08952641e+02
66              	3.09009545e+02
67              	3.09066605e+02
68              	3.09123037e+02
69              	3.09181042e+02
70              	3.09241428e+02
71              	3.09302436e+02
72              	3.09363201e+02
73              	3.09421905e+02
74              	3.09477681e+02
75              	3.09530088e+02
76              	3.09579273e+02
77              	3.09625147e+02
78              	3.09668718e+02
79              	3.09710837e+02
80              	3.09751828e+02
81              	3.09792574e+02
82              	3.09833282e+02
83              	3.09874075e+02
84              	3.09913849e+02
85              	3.09952892e+02
86              	3.09990272e+02
87              	3.10026470e+02
88              	3.10061692e+02
89              	3.10097338e+02
90              	3.10133618e+02
91              	3.10170304e+02
92              	3.10207545e+02
93              	3.10245334e+02
94              	3.10282900e+02
95              	3.10318829e+02
96              	3.10353111e+02
97              	3.10385348e+02
98              	3.10415840e+02
99              	3.10445282e+02
100             	3.10474327e+02
101             	3.10502839e+02
102             	3.10531620e+02
103             	3.10561609e+02
104             	3.10592275e+02
105             	3.10622888e+02
106             	3.10652297e+02
107             	3.10680787e+02
108             	3.10708304e+02
109             	3.10734970e+02
110             	3.10760795e+02
111             	3.10787433e+02
112             	3.10815499e+02
113             	3.10844721e+02
114             	3.10875203e+02
115             	3.10906629e+02
116             	3.10938723e+02
117             	3.10969740e+02
118             	3.11000091e+02
119             	3.11028936e+02
120             	3.11055717e+02
121             	3.11080892e+02
122             	3.11104716e+02
123             	3.11127584e+02
124             	3.11150369e+02
125             	3.11174025e+02
126             	3.11198119e+02
127             	3.11223724e+02
128             	3.11250410e+02
129             	3.11277611e+02
130             	3.11303153e+02
131             	3.11327889e+02
132             	3.11351288e+02
133             	3.11373161e+02
134             	3.11393871e+02
135             	3.11413954e+02
136             	3.11433605e+02
137             	3.11452673e+02
138             	3.11472091e+02
139             	3.11492291e+02
140             	3.11513237e+02
141             	3.11535077e+02
142             	3.11557456e+02
143             	3.11580216e+02
144             	3.11603328e+02
145             	3.11626597e+02
146             	3.11648005e+02
147             	3.11669326e+02
148             	3.11690034e+02
149             	3.11709659e+02
150             	3.11728047e+02
151             	3.11745140e+02
152             	3.11761185e+02
153             	3.11776689e+02
154             	3.11792211e+02
155             	3.11808230e+02
156             	3.11824590e+02
157             	3.11841947e+02
158             	3.11860125e+02
159             	3.11878585e+02
160             	3.11896821e+02
161             	3.11913834e+02
162             	3.11929982e+02
163             	3.11945300e+02
164             	3.11959399e+02
165             	3.11972687e+02
166             	3.11985216e+02
167             	3.11997583e+02
168             	3.12009964e+02
169             	3.12023040e+02
170             	3.12037366e+02
171             	3.12052446e+02
172             	3.12068448e+02
173             	3.12085233e+02
174             	3.12102050e+02
175             	3.12117243e+02
176             	3.12132197e+02
177             	3.12145916e+02
178             	3.12158324e+02
179             	3.12169453e+02
180             	3.12179710e+02
181             	3.12188882e+02
182             	3.12198684e+02
183             	3.12209338e+02
184             	3.12220946e+02
185             	3.12233540e+02
186             	3.12247283e+02
187             	3.12260545e+02
188             	3.12271909e+02
189             	3.12283994e+02
190             	3.12294569e+02
191             	3.12303600e+02
192             	3.12311282e+02
193             	3.12317357e+02
194             	3.12322791e+02
195             	3.12328497e+02
196             	3.12335014e+02
197             	3.12342683e+02
198             	3.12351717e+02
199             	3.12362451e+02
200             	3.12372600e+02
201             	3.12381352e+02
202             	3.12390472e+02
203             	3.12398507e+02
204             	3.12403909e+02
205             	3.12407968e+02
206             	3.12411016e+02
207             	3.12414233e+02
208             	3.12418790e+02
209             	3.12424842e+02
210             	3.12432294e+02
211             	3.12440720e+02
212             	3.12450225e+02
213             	3.12458443e+02
214             	3.12466327e+02
215             	3.12474864e+02
216             	3.12481274e+02
217             	3.12485697e+02
218             	3.12489041e+02
219             	3.12491907e+02
220             	3.12495059e+02
221             	3.12499107e+02
222             	3.12504809e+02
223             	3.12510815e+02
224             	3.12518956e+02
225             	3.12527782e+02
226             	3.12536052e+02
227             	3.12544542e+02
228             	3.12551955e+02
229             	3.12556982e+02
230             	3.12561038e+02
231             	3.12563936e+02
232             	3.12566298e+02
233             	3.12568365e+02
234             	3.12571466e+02
235             	3.12575657e+02
236             	3.12581397e+02
237             	3.12588618e+02
238             	3.12596433e+02
239             	3.12602302e+02
240             	3.12609443e+02
241             	3.12615820e+02
242             	3.12621110e+02
243             	3.12625948e+02
244             	3.12630651e+02
245             	3.12635354e+02
246             	3.12640294e+02
247             	3.12646046e+02
248             	3.12650742e+02
249             	3.12657128e+02
250             	3.12664964e+02
251             	3.12673337e+02
252             	3.12680621e+02
253             	3.12688013e+02
254             	3.12694235e+02
255             	3.12698884e+02
256             	3.12702279e+02
257             	3.12705035e+02
258             	3.12707667e+02
259             	3.12710703e+02
260             	3.12714635e+02
261             	3.12718882e+02
262             	3.12724333e+02
263             	3.12730618e+02
264             	3.12736092e+02
265             	3.12741218e+02
266             	3.12746361e+02
267             	3.12750340e+02
268             	3.12753421e+02
269             	3.12755941e+02
270             	3.12758428e+02
271             	3.12760938e+02
272             	3.12764143e+02
273             	3.12766920e+02
274             	3.12770453e+02
275             	3.12774952e+02
276             	3.12780577e+02
277             	3.12785997e+02
278             	3.12791141e+02
279             	3.12796200e+02
280             	3.12800696e+02
281             	3.12804572e+02
282             	3.12807818e+02
283             	3.12810492e+02
284             	3.12813097e+02
285             	3.12815955e+02
286             	3.12818905e+02
287             	3.12822346e+02
288             	3.12826341e+02
289             	3.12830940e+02
290             	3.12834573e+02
291             	3.12838507e+02
292             	3.12842494e+02
293             	3.12845847e+02
294             	3.12848596e+02
295             	3.12850699e+02
296             	3.12852597e+02
297             	3.12854701e+02
298             	3.12857521e+02
299             	3.12858562e+02
300             	3.12862242e+02
301             	3.12867355e+02
302             	3.12871579e+02
303             	3.12876045e+02
304             	3.12879919e+02
305             	3.12882492e+02
306             	3.12883812e+02
307             	3.12884877e+02
308             	3.12885985e+02
309             	3.12887118e+02
310             	3.12888914e+02
311             	3.12890556e+02
312             	3.12892595e+02
313             	3.12896026e+02
314             	3.12900078e+02
315             	3.12904538e+02
316             	3.12908234e+02
317             	3.12911853e+02
318             	3.12914888e+02
319             	3.12917445e+02
320             	3.12919748e+02
321             	3.12921366e+02
322             	3.12922606e+02
323             	3.12923820e+02
324             	3.12925342e+02
325             	3.12927618e+02
326             	3.12930305e+02
327             	3.12933842e+02
328             	3.12937152e+02
329             	3.12940376e+02
330             	3.12943801e+02
331             	3.12946517e+02
332             	3.12948508e+02
333             	3.12950055e+02
334             	3.12951309e+02
335             	3.12952580e+02
336             	3.12954264e+02
337             	3.12955671e+02
338             	3.12957610e+02
339             	3.12960254e+02
340             	3.12963323e+02
341             	3.12966561e+02
342             	3.12969354e+02
343             	3.12971669e+02
344             	3.12974059e+02
345             	3.12976371e+02
346             	3.12978406e+02
347             	3.12980030e+02
348             	3.12981400e+02
349             	3.12982606e+02
350             	3.12983743e+02
351             	3.12985167e+02
352             	3.12986835e+02
353             	3.12988848e+02
354             	3.12991342e+02
355             	3.12993920e+02
356             	3.12996640e+02
357             	3.12999358e+02
358             	3.13002138e+02
359             	3.13004871e+02
360             	3.13006391e+02
361             	3.13008118e+02
362             	3.13009877e+02
363             	3.13011353e+02
364             	3.13012780e+02
365             	3.13013991e+02
366             	3.13015088e+02
367             	3.13016384e+02
368             	3.13017970e+02
369             	3.13019609e+02
370             	3.13021516e+02
371             	3.13023642e+02
372             	3.13025965e+02
373             	3.13028335e+02
374             	3.13030757e+02
375             	3.13033103e+02
376             	3.13035372e+02
377             	3.13036894e+02
378             	3.13038418e+02
379             	3.13039818e+02
380             	3.13040971e+02
381             	3.13042029e+02
382             	3.13043154e+02
383             	3.13044377e+02
384             	3.13045721e+02
385             	3.13047132e+02
386             	3.13048437e+02
387             	3.13049877e+02
388             	3.13051364e+02
389             	3.13053077e+02
390             	3.13054683e+02
391             	3.13056399e+02
392             	3.13058307e+02
393             	3.13060240e+02
394             	3.13061665e+02
395             	3.13063037e+02
396             	3.13063723e+02
397             	3.13064364e+02
398             	3.13064870e+02
399             	3.13065498e+02
400             	3.13066184e+02
401             	3.13067146e+02
402             	3.13068326e+02
403             	3.13069489e+02
404             	3.13070909e+02
405             	3.13072558e+02
406             	3.13074258e+02
407             	3.13075963e+02
408             	3.13077221e+02
409             	3.13078254e+02
410             	3.13079174e+02
411             	3.13079925e+02
412             	3.13080578e+02
413             	3.13081254e+02
414             	3.13082082e+02
415             	3.13083045e+02
416             	3.13083969e+02
417             	3.13084954e+02
418             	3.13086024e+02
419             	3.13087132e+02
420             	3.13088353e+02
421             	3.13089613e+02
422             	3.13090864e+02
423             	3.13092130e+02
424             	3.13093390e+02
425             	3.13094642e+02
426             	3.13095572e+02
427             	3.13096336e+02
428             	3.13097077e+02
429             	3.13097742e+02
430             	3.13098336e+02
431             	3.13098886e+02
432             	3.13099492e+02
433             	3.13100250e+02
434             	3.13100959e+02
435             	3.13101759e+02
436             	3.13102639e+02
437             	3.13103540e+02
438             	3.13104429e+02
439             	3.13105290e+02
440             	3.13106110e+02
441             	3.13106864e+02
442             	3.13107539e+02
443             	3.13108150e+02
444             	3.13108753e+02
445             	3.13109251e+02
446             	3.13109747e+02
447             	3.13110249e+02
448             	3.13110711e+02
449             	3.13111201e+02
450             	3.13111697e+02
451             	3.13112284e+02
452             	3.13112960e+02
453             	3.13113572e+02
454             	3.13114247e+02
455             	3.13114981e+02
456             	3.13115696e+02
457             	3.13116362e+02
458             	3.13116891e+02
459             	3.13117438e+02
460             	3.13117954e+02
461             	3.13118484e+02
462             	3.13118996e+02
463             	3.13119536e+02
464             	3.13120057e+02
465             	3.13120594e+02
466             	3.13121141e+02
467             	3.13121613e+02
468             	3.13122120e+02
469             	3.13122686e+02
470             	3.13123270e+02
471             	3.13123791e+02
472             	3.13124307e+02
473             	3.13124686e+02
474             	3.13125010e+02
475             	3.13125282e+02
476             	3.13125507e+02
477             	3.13125708e+02
478             	3.13125920e+02
479             	3.13126219e+02
480             	3.13126497e+02
481             	3.13126807e+02
482             	3.13127159e+02
483             	3.13127570e+02
484             	3.13128000e+02
485             	3.13128442e+02
486             	3.13128891e+02
487             	3.13129333e+02
488             	3.13129773e+02
489             	3.13130170e+02
490             	3.13130545e+02
491             	3.13130908e+02
492             	3.13131241e+02
493             	3.13131486e+02
494             	3.13131748e+02
495             	3.13132018e+02
496             	3.13132306e+02
497             	3.13132587e+02
498             	3.13132852e+02
499             	3.13133112e+02
500             	3.13133413e+02
501             	3.13133672e+02
502             	3.13133923e+02
503             	3.13134176e+02
504             	3.13134437e+02
505             	3.13134689e+02
506             	3.13134927e+02
507             	3.13135106e+02
508             	3.13135277e+02
509             	3.13135408e+02
510             	3.13135529e+02
511             	3.13135643e+02
512             	3.13135766e+02
513             	3.13135900e+02
514             	3.13136069e+02
515             	3.13136270e+02
516             	3.13136486e+02
517             	3.13136708e+02
518             	3.13136934e+02
519             	3.13137115e+02
520             	3.13137237e+02
521             	3.13137357e+02
522             	3.13137435e+02
523             	3.13137508e+02
524             	3.13137577e+02
525             	3.13137675e+02
526             	3.13137813e+02
527             	3.13137972e+02
528             	3.13138160e+02
529             	3.13138324e+02
530             	3.13138486e+02
531             	3.13138654e+02
532             	3.13138833e+02
533             	3.13139021e+02
534             	3.13139166e+02
535             	3.13139289e+02
536             	3.13139414e+02
537             	3.13139529e+02
538             	3.13139634e+02
539             	3.13139728e+02
540             	3.13139809e+02
541             	3.13139893e+02
542             	3.13139981e+02
543             	3.13140066e+02
544             	3.13140165e+02
545             	3.13140303e+02
546             	3.13140464e+02
547             	3.13140632e+02
548             	3.13140804e+02
549             	3.13140981e+02
550             	3.13141154e+02
551             	3.13141317e+02
552             	3.13141444e+02
553             	3.13141538e+02
554             	3.13141610e+02
555             	3.13141668e+02
556             	3.13141721e+02
557             	3.13141778e+02
558             	3.13141848e+02
559             	3.13141918e+02
560             	3.13141992e+02
561             	3.13142079e+02
562             	3.13142182e+02
563             	3.13142307e+02
564             	3.13142427e+02
565             	3.13142543e+02
566             	3.13142654e+02
567             	3.13142765e+02
568             	3.13142871e+02
569             	3.13142961e+02
570             	3.13143018e+02
571             	3.13143075e+02
572             	3.13143132e+02
573             	3.13143191e+02
574             	3.13143249e+02
575             	3.13143300e+02
576             	3.13143349e+02
577             	3.13143402e+02
578             	3.13143475e+02
579             	3.13143548e+02
580             	3.13143636e+02
581             	3.13143726e+02
582             	3.13143817e+02
583             	3.13143907e+02
584             	3.13143993e+02
585             	3.13144075e+02
586             	3.13144152e+02
587             	3.13144208e+02
588             	3.13144264e+02
589             	3.13144318e+02
590             	3.13144354e+02
591             	3.13144383e+02
592             	3.13144409e+02
593             	3.13144435e+02
594             	3.13144461e+02
595             	3.13144507e+02
596             	3.13144563e+02
597             	3.13144639e+02
598             	3.13144717e+02
599             	3.13144796e+02
600             	3.13144877e+02
601             	3.13144957e+02
602             	3.13145031e+02
603             	3.13145099e+02
604             	3.13145162e+02
605             	3.13145199e+02
606             	3.13145237e+02
607             	3.13145274e+02
608             	3.13145308e+02
609             	3.13145339e+02
610             	3.13145369e+02
611             	3.13145400e+02
612             	3.13145429e+02
613             	3.13145476e+02
614             	3.13145524e+02
615             	3.13145576e+02
616             	3.13145628e+02
617             	3.13145682e+02
618             	3.13145738e+02
619             	3.13145799e+02
620             	3.13145866e+02
621             	3.13145937e+02
