# Region        : cellZone pcb
# Cells         : 647
# Volume        : 1.26631764e+00
# Time          	volAverage(T)
1               	3.00007574e+02
2               	3.00021926e+02
3               	3.00042255e+02
4               	3.00068461e+02
5               	3.00097213e+02
6               	3.00130415e+02
7               	3.00166879e+02
8               	3.00207841e+02
9               	3.00253358e+02
10              	3.00304246e+02
11              	3.00358651e+02
12              	3.00414557e+02
13              	3.00474529e+02
14              	3.00536872e+02
15              	3.00603895e+02
16              	3.00673379e+02
17              	3.00742094e+02
18              	3.00811397e+02
19              	3.00882419e+02
20              	3.00954294e+02
21              	3.01031682e+02
22              	3.01110271e+02
23              	3.01190835e+02
24              	3.01276718e+02
25              	3.01364200e+02
26              	3.01450300e+02
27              	3.01536473e+02
28              	3.01624250e+02
29              	3.01715180e+02
30              	3.01805988e+02
31              	3.01899965e+02
32              	3.01994221e+02
33              	3.02090931e+02
34              	3.02187811e+02
35              	3.02284624e+02
36              	3.02380335e+02
37              	3.02479596e+02
38              	3.02576433e+02
39              	3.02672554e+02
40              	3.02772387e+02
41              	3.02871404e+02
42              	3.02973143e+02
43              	3.03075703e+02
44              	3.03180952e+02
45              	3.03287337e+02
46              	3.03392828e+02
47              	3.03501869e+02
48              	3.03613716e+02
49              	3.03723146e+02
50              	3.03830002e+02
51              	3.03930484e+02
52              	3.04029308e+02
53              	3.04125293e+02
54              	3.04225133e+02
55              	3.04330293e+02
56              	3.04433324e+02
57              	3.04534997e+02
58              	3.04641402e+02
59              	3.04752646e+02
60              	3.04863628e+02
61              	3.04962558e+02
62              	3.05051152e+02
63              	3.05151415e+02
64              	3.05254801e+02
65              	3.05363104e+02
66              	3.05467004e+02
67              	3.05562635e+02
68              	3.05657147e+02
69              	3.05753769e+02
70              	3.05853251e+02
71              	3.05948120e+02
72              	3.06043597e+02
73              	3.06140474e+02
74              	3.06243399e+02
75              	3.06343576e+02
76              	3.06434810e+02
77              	3.06516584e+02
78              	3.06606511e+02
79              	3.06693983e+02
80              	3.06780805e+02
81              	3.06869821e+02
82              	3.06955263e+02
83              	3.07041943e+02
84              	3.07128292e+02
85              	3.07219544e+02
86              	3.07308025e+02
87              	3.07394695e+02
88              	3.07481870e+02
89              	3.07568896e+02
90              	3.07659734e+02
91              	3.07748355e+02
92              	3.07835656e+02
93              	3.07921358e+02
94              	3.08007314e+02
95              	3.08099568e+02
96              	3.08184570e+02
97              	3.08268912e+02
98              	3.08352234e+02
99              	3.08434528e+02
100             	3.08517637e+02
101             	3.08600749e+02
102             	3.08686493e+02
103             	3.08766879e+02
104             	3.08846762e+02
105             	3.08916846e+02
106             	3.08994705e+02
107             	3.09072402e+02
108             	3.09149236e+02
109             	3.09224573e+02
110             	3.09299273e+02
111             	3.09374752e+02
112             	3.09452318e+02
113             	3.09529051e+02
114             	3.09599307e+02
115             	3.09672354e+02
116             	3.09738529e+02
117             	3.09804056e+02
118             	3.09874487e+02
119             	3.09941904e+02
120             	3.10012450e+02
121             	3.10082884e+02
122             	3.10154688e+02
123             	3.10225710e+02
124             	3.10294212e+02
125             	3.10365310e+02
126             	3.10435067e+02
127             	3.10499412e+02
128             	3.10570547e+02
129             	3.10638476e+02
130             	3.10710824e+02
131             	3.10785269e+02
132             	3.10855126e+02
133             	3.10926821e+02
134             	3.10993807e+02
135             	3.11057372e+02
136             	3.11118677e+02
137             	3.11179372e+02
138             	3.11237797e+02
139             	3.11298603e+02
140             	3.11359309e+02
141             	3.11419200e+02
142             	3.11476454e+02
143             	3.11530386e+02
144             	3.11590067e+02
145             	3.11648378e+02
146             	3.11706897e+02
147             	3.11763869e+02
148             	3.11819328e+02
149             	3.11873819e+02
150             	3.11928287e+02
151             	3.11983284e+02
152             	3.12039224e+02
153             	3.12097095e+02
154             	3.12151864e+02
155             	3.12207671e+02
156             	3.12265005e+02
157             	3.12320485e+02
158             	3.12374497e+02
159             	3.12427526e+02
160             	3.12478989e+02
161             	3.12529640e+02
162             	3.12579898e+02
163             	3.12632355e+02
164             	3.12685333e+02
165             	3.12737470e+02
166             	3.12788793e+02
167             	3.12837570e+02
168             	3.12884278e+02
169             	3.12929872e+02
170             	3.12975051e+02
171             	3.13020451e+02
172             	3.13065611e+02
173             	3.13111318e+02
174             	3.13157760e+02
175             	3.13204175e+02
176             	3.13250282e+02
177             	3.13295812e+02
178             	3.13340699e+02
179             	3.13384618e+02
180             	3.13427182e+02
181             	3.13468206e+02
182             	3.13508311e+02
183             	3.13548000e+02
184             	3.13587109e+02
185             	3.13626408e+02
186             	3.13665727e+02
187             	3.13704920e+02
188             	3.13744034e+02
189             	3.13781934e+02
190             	3.13819008e+02
191             	3.13855880e+02
192             	3.13892627e+02
193             	3.13928833e+02
194             	3.13964683e+02
195             	3.14000270e+02
196             	3.14035665e+02
197             	3.14071255e+02
198             	3.14106978e+02
199             	3.14142366e+02
200             	3.14177084e+02
201             	3.14211763e+02
202             	3.14246270e+02
203             	3.14280405e+02
204             	3.14314053e+02
205             	3.14347037e+02
206             	3.14379427e+02
207             	3.14411500e+02
208             	3.14443472e+02
209             	3.14475140e+02
210             	3.14506177e+02
211             	3.14536797e+02
212             	3.14567105e+02
213             	3.14597135e+02
214             	3.14627085e+02
215             	3.14657052e+02
216             	3.14687332e+02
217             	3.14717574e+02
218             	3.14747557e+02
219             	3.14777292e+02
220             	3.14806761e+02
221             	3.14835641e+02
222             	3.14863939e+02
223             	3.14891755e+02
224             	3.14919384e+02
225             	3.14946703e+02
226             	3.14973655e+02
227             	3.15000507e+02
228             	3.15027420e+02
229             	3.15053806e+02
230             	3.15079871e+02
231             	3.15105639e+02
232             	3.15130898e+02
233             	3.15155601e+02
234             	3.15180003e+02
235             	3.15204223e+02
236             	3.15228371e+02
237             	3.15252051e+02
238             	3.15275577e+02
239             	3.15299042e+02
240             	3.15322221e+02
241             	3.15345259e+02
242             	3.15368199e+02
243             	3.15390999e+02
244             	3.15413427e+02
245             	3.15435565e+02
246             	3.15457753e+02
247             	3.15479884e+02
248             	3.15501887e+02
249             	3.15523708e+02
250             	3.15545315e+02
251             	3.15566543e+02
252             	3.15587396e+02
253             	3.15607934e+02
254             	3.15628187e+02
255             	3.15648168e+02
256             	3.15667924e+02
257             	3.15687511e+02
258             	3.15707046e+02
259             	3.15726580e+02
260             	3.15746029e+02
261             	3.15765200e+02
262             	3.15784162e+02
263             	3.15803013e+02
264             	3.15821726e+02
265             	3.15840325e+02
266             	3.15858866e+02
267             	3.15877432e+02
268             	3.15896176e+02
269             	3.15914817e+02
270             	3.15933300e+02
271             	3.15951526e+02
272             	3.15969342e+02
273             	3.15986870e+02
274             	3.16004181e+02
275             	3.16021355e+02
276             	3.16038449e+02
277             	3.16055475e+02
278             	3.16072326e+02
279             	3.16088970e+02
280             	3.16105357e+02
281             	3.16121476e+02
282             	3.16137415e+02
283             	3.16153135e+02
284             	3.16168635e+02
285             	3.16183954e+02
286             	3.16199048e+02
287             	3.16213996e+02
288             	3.16228852e+02
289             	3.16243521e+02
290             	3.16258003e+02
291             	3.16272381e+02
292             	3.16286635e+02
293             	3.16300792e+02
294             	3.16314790e+02
295             	3.16328645e+02
296             	3.16342363e+02
297             	3.16355971e+02
298             	3.16369491e+02
299             	3.16382970e+02
300             	3.16396437e+02
301             	3.16409902e+02
302             	3.16423266e+02
303             	3.16436555e+02
304             	3.16449698e+02
305             	3.16462729e+02
306             	3.16475629e+02
307             	3.16488356e+02
308             	3.16501001e+02
309             	3.16513582e+02
310             	3.16526121e+02
311             	3.16538597e+02
312             	3.16551050e+02
313             	3.16563442e+02
314             	3.16575744e+02
315             	3.16587921e+02
316             	3.16599979e+02
317             	3.16611851e+02
318             	3.16623528e+02
319             	3.16635066e+02
320             	3.16646490e+02
321             	3.16657782e+02
322             	3.16668930e+02
323             	3.16680050e+02
324             	3.16691142e+02
325             	3.16702141e+02
326             	3.16713051e+02
327             	3.16723843e+02
328             	3.16734483e+02
329             	3.16744972e+02
330             	3.16755308e+02
331             	3.16765515e+02
332             	3.16775619e+02
333             	3.16785648e+02
334             	3.16795613e+02
335             	3.16805526e+02
336             	3.16815364e+02
337             	3.16825220e+02
338             	3.16834969e+02
339             	3.16844599e+02
340             	3.16854127e+02
341             	3.16863569e+02
342             	3.16872944e+02
343             	3.16882256e+02
344             	3.16891495e+02
345             	3.16900704e+02
346             	3.16909868e+02
347             	3.16918937e+02
348             	3.16927974e+02
349             	3.16936964e+02
350             	3.16945877e+02
351             	3.16954673e+02
352             	3.16963371e+02
353             	3.16971972e+02
354             	3.16980468e+02
355             	3.16988874e+02
356             	3.16997200e+02
357             	3.17005459e+02
358             	3.17013667e+02
359             	3.17021842e+02
360             	3.17029991e+02
361             	3.17038045e+02
362             	3.17046010e+02
363             	3.17053898e+02
364             	3.17061720e+02
365             	3.17069522e+02
366             	3.17077307e+02
367             	3.17085033e+02
368             	3.17092682e+02
369             	3.17100260e+02
370             	3.17107755e+02
371             	3.17115207e+02
372             	3.17122584e+02
373             	3.17129900e+02
374             	3.17137160e+02
375             	3.17144360e+02
376             	3.17151492e+02
377             	3.17158555e+02
378             	3.17165527e+02
379             	3.17172440e+02
380             	3.17179264e+02
381             	3.17186027e+02
382             	3.17192711e+02
383             	3.17199339e+02
384             	3.17205900e+02
385             	3.17212399e+02
386             	3.17218845e+02
387             	3.17225221e+02
388             	3.17231530e+02
389             	3.17237783e+02
390             	3.17243992e+02
391             	3.17250168e+02
392             	3.17256303e+02
393             	3.17262394e+02
394             	3.17268443e+02
395             	3.17274448e+02
396             	3.17280411e+02
397             	3.17286342e+02
398             	3.17292224e+02
399             	3.17298052e+02
400             	3.17303824e+02
401             	3.17309546e+02
402             	3.17315229e+02
403             	3.17320886e+02
404             	3.17326506e+02
405             	3.17332078e+02
406             	3.17337608e+02
407             	3.17343092e+02
408             	3.17348534e+02
409             	3.17353919e+02
410             	3.17359265e+02
411             	3.17364569e+02
412             	3.17369827e+02
413             	3.17375036e+02
414             	3.17380194e+02
415             	3.17385312e+02
416             	3.17390378e+02
417             	3.17395394e+02
418             	3.17400363e+02
419             	3.17405291e+02
420             	3.17410183e+02
421             	3.17415038e+02
422             	3.17419854e+02
423             	3.17424629e+02
424             	3.17429361e+02
425             	3.17434043e+02
426             	3.17438673e+02
427             	3.17443263e+02
428             	3.17447808e+02
429             	3.17452311e+02
430             	3.17456775e+02
431             	3.17461200e+02
432             	3.17465583e+02
433             	3.17469937e+02
434             	3.17474265e+02
435             	3.17478555e+02
436             	3.17482812e+02
437             	3.17487033e+02
438             	3.17491217e+02
439             	3.17495363e+02
440             	3.17499474e+02
441             	3.17503554e+02
442             	3.17507607e+02
443             	3.17511632e+02
444             	3.17515626e+02
445             	3.17519591e+02
446             	3.17523526e+02
447             	3.17527427e+02
448             	3.17531290e+02
449             	3.17535119e+02
450             	3.17538914e+02
451             	3.17542686e+02
452             	3.17546435e+02
453             	3.17550144e+02
454             	3.17553818e+02
455             	3.17557465e+02
456             	3.17561077e+02
457             	3.17564658e+02
458             	3.17568207e+02
459             	3.17571739e+02
460             	3.17575241e+02
461             	3.17578706e+02
462             	3.17582139e+02
463             	3.17585542e+02
464             	3.17588920e+02
465             	3.17592260e+02
466             	3.17595571e+02
467             	3.17598855e+02
468             	3.17602111e+02
469             	3.17605333e+02
470             	3.17608523e+02
471             	3.17611679e+02
472             	3.17614813e+02
473             	3.17617926e+02
474             	3.17621019e+02
475             	3.17624088e+02
476             	3.17627127e+02
477             	3.17630138e+02
478             	3.17633113e+02
479             	3.17636062e+02
480             	3.17638986e+02
481             	3.17641885e+02
482             	3.17644763e+02
483             	3.17647616e+02
484             	3.17650444e+02
485             	3.17653250e+02
486             	3.17656035e+02
487             	3.17658795e+02
488             	3.17661534e+02
489             	3.17664251e+02
490             	3.17666945e+02
491             	3.17669626e+02
492             	3.17672286e+02
493             	3.17674923e+02
494             	3.17677537e+02
495             	3.17680130e+02
496             	3.17682701e+02
497             	3.17685254e+02
498             	3.17687787e+02
499             	3.17690300e+02
500             	3.17692796e+02
501             	3.17695272e+02
502             	3.17697727e+02
503             	3.17700160e+02
504             	3.17702571e+02
505             	3.17704964e+02
506             	3.17707335e+02
507             	3.17709684e+02
508             	3.17712013e+02
509             	3.17714322e+02
510             	3.17716614e+02
511             	3.17718887e+02
512             	3.17721141e+02
513             	3.17723373e+02
514             	3.17725585e+02
515             	3.17727777e+02
516             	3.17729949e+02
517             	3.17732101e+02
518             	3.17734234e+02
519             	3.17736347e+02
520             	3.17738443e+02
521             	3.17740521e+02
522             	3.17742573e+02
523             	3.17744611e+02
524             	3.17746634e+02
525             	3.17748643e+02
526             	3.17750637e+02
527             	3.17752613e+02
528             	3.17754570e+02
529             	3.17756509e+02
530             	3.17758429e+02
531             	3.17760335e+02
532             	3.17762226e+02
533             	3.17764104e+02
534             	3.17765970e+02
535             	3.17767823e+02
536             	3.17769665e+02
537             	3.17771490e+02
538             	3.17773299e+02
539             	3.17775093e+02
540             	3.17776870e+02
541             	3.17778633e+02
542             	3.17780379e+02
543             	3.17782113e+02
544             	3.17783833e+02
545             	3.17785541e+02
546             	3.17787235e+02
547             	3.17788914e+02
548             	3.17790578e+02
549             	3.17792227e+02
550             	3.17793860e+02
551             	3.17795478e+02
552             	3.17797081e+02
553             	3.17798671e+02
554             	3.17800247e+02
555             	3.17801811e+02
556             	3.17803366e+02
557             	3.17804907e+02
558             	3.17806433e+02
559             	3.17807945e+02
560             	3.17809442e+02
561             	3.17810926e+02
562             	3.17812396e+02
563             	3.17813851e+02
564             	3.17815295e+02
565             	3.17816728e+02
566             	3.17818149e+02
567             	3.17819557e+02
568             	3.17820953e+02
569             	3.17822334e+02
570             	3.17823704e+02
571             	3.17825062e+02
572             	3.17826408e+02
573             	3.17827744e+02
574             	3.17829071e+02
575             	3.17830389e+02
576             	3.17831697e+02
577             	3.17832987e+02
578             	3.17834269e+02
579             	3.17835542e+02
580             	3.17836806e+02
581             	3.17838058e+02
582             	3.17839298e+02
583             	3.17840529e+02
584             	3.17841748e+02
585             	3.17842955e+02
586             	3.17844151e+02
587             	3.17845338e+02
588             	3.17846518e+02
589             	3.17847692e+02
590             	3.17848859e+02
591             	3.17850019e+02
592             	3.17851171e+02
593             	3.17852315e+02
594             	3.17853450e+02
595             	3.17854574e+02
596             	3.17855689e+02
597             	3.17856793e+02
598             	3.17857887e+02
599             	3.17858972e+02
600             	3.17860047e+02
601             	3.17861115e+02
602             	3.17862174e+02
603             	3.17863225e+02
604             	3.17864267e+02
605             	3.17865300e+02
606             	3.17866323e+02
607             	3.17867336e+02
608             	3.17868341e+02
609             	3.17869337e+02
610             	3.17870324e+02
611             	3.17871304e+02
612             	3.17872274e+02
613             	3.17873235e+02
614             	3.17874188e+02
615             	3.17875134e+02
616             	3.17876072e+02
617             	3.17877002e+02
618             	3.17877924e+02
619             	3.17878837e+02
620             	3.17879742e+02
621             	3.17880639e+02
