# Region        : cellZone pcb
# Cells         : 515
# Volume        : 9.61824636e-01
# Time          	volAverage(T)
1               	3.00010315e+02
2               	3.00029880e+02
3               	3.00057106e+02
4               	3.00090901e+02
5               	3.00130165e+02
6               	3.00174794e+02
7               	3.00224485e+02
8               	3.00278936e+02
9               	3.00338362e+02
10              	3.00402098e+02
11              	3.00469876e+02
12              	3.00540988e+02
13              	3.00615997e+02
14              	3.00693537e+02
15              	3.00774014e+02
16              	3.00856797e+02
17              	3.00942184e+02
18              	3.01030228e+02
19              	3.01118793e+02
20              	3.01209331e+02
21              	3.01301021e+02
22              	3.01393470e+02
23              	3.01487627e+02
24              	3.01583986e+02
25              	3.01682511e+02
26              	3.01783126e+02
27              	3.01884444e+02
28              	3.01987020e+02
29              	3.02091142e+02
30              	3.02195646e+02
31              	3.02301184e+02
32              	3.02405707e+02
33              	3.02509516e+02
34              	3.02613544e+02
35              	3.02718764e+02
36              	3.02823220e+02
37              	3.02926732e+02
38              	3.03030366e+02
39              	3.03133665e+02
40              	3.03237142e+02
41              	3.03339614e+02
42              	3.03441392e+02
43              	3.03541860e+02
44              	3.03641549e+02
45              	3.03742025e+02
46              	3.03842504e+02
47              	3.03943005e+02
48              	3.04043116e+02
49              	3.04143521e+02
50              	3.04242452e+02
51              	3.04341330e+02
52              	3.04437622e+02
53              	3.04532717e+02
54              	3.04627847e+02
55              	3.04721572e+02
56              	3.04814531e+02
57              	3.04908403e+02
58              	3.05004650e+02
59              	3.05097899e+02
60              	3.05191451e+02
61              	3.05284240e+02
62              	3.05375493e+02
63              	3.05465101e+02
64              	3.05553807e+02
65              	3.05642474e+02
66              	3.05728545e+02
67              	3.05812896e+02
68              	3.05895744e+02
69              	3.05977646e+02
70              	3.06058754e+02
71              	3.06137175e+02
72              	3.06214448e+02
73              	3.06291488e+02
74              	3.06366698e+02
75              	3.06439704e+02
76              	3.06514194e+02
77              	3.06587261e+02
78              	3.06661007e+02
79              	3.06733763e+02
80              	3.06805786e+02
81              	3.06877855e+02
82              	3.06948732e+02
83              	3.07018646e+02
84              	3.07087772e+02
85              	3.07154300e+02
86              	3.07217892e+02
87              	3.07279605e+02
88              	3.07340216e+02
89              	3.07400177e+02
90              	3.07459492e+02
91              	3.07517776e+02
92              	3.07575997e+02
93              	3.07633464e+02
94              	3.07690404e+02
95              	3.07746639e+02
96              	3.07801737e+02
97              	3.07855205e+02
98              	3.07907495e+02
99              	3.07959269e+02
100             	3.08009800e+02
101             	3.08059194e+02
102             	3.08108132e+02
103             	3.08157658e+02
104             	3.08206639e+02
105             	3.08253035e+02
106             	3.08298429e+02
107             	3.08342329e+02
108             	3.08385994e+02
109             	3.08428883e+02
110             	3.08471460e+02
111             	3.08513543e+02
112             	3.08554733e+02
113             	3.08594842e+02
114             	3.08635192e+02
115             	3.08674586e+02
116             	3.08712946e+02
117             	3.08750159e+02
118             	3.08786279e+02
119             	3.08821495e+02
120             	3.08854478e+02
121             	3.08886183e+02
122             	3.08917305e+02
123             	3.08947370e+02
124             	3.08977009e+02
125             	3.09006695e+02
126             	3.09036043e+02
127             	3.09065095e+02
128             	3.09093131e+02
129             	3.09120390e+02
130             	3.09147186e+02
131             	3.09173234e+02
132             	3.09198778e+02
133             	3.09223333e+02
134             	3.09246983e+02
135             	3.09270037e+02
136             	3.09292361e+02
137             	3.09313986e+02
138             	3.09334929e+02
139             	3.09355239e+02
140             	3.09375405e+02
141             	3.09394864e+02
142             	3.09414480e+02
143             	3.09433880e+02
144             	3.09453152e+02
145             	3.09472354e+02
146             	3.09491488e+02
147             	3.09510142e+02
148             	3.09528323e+02
149             	3.09545935e+02
150             	3.09562918e+02
151             	3.09579167e+02
152             	3.09594744e+02
153             	3.09609655e+02
154             	3.09623980e+02
155             	3.09637714e+02
156             	3.09651272e+02
157             	3.09664319e+02
158             	3.09677345e+02
159             	3.09690150e+02
160             	3.09702688e+02
161             	3.09715072e+02
162             	3.09727154e+02
163             	3.09739160e+02
164             	3.09750930e+02
165             	3.09762314e+02
166             	3.09773183e+02
167             	3.09783440e+02
168             	3.09793194e+02
169             	3.09802458e+02
170             	3.09811480e+02
171             	3.09820210e+02
172             	3.09828756e+02
173             	3.09836997e+02
174             	3.09845047e+02
175             	3.09853013e+02
176             	3.09860858e+02
177             	3.09868633e+02
178             	3.09876268e+02
179             	3.09883652e+02
180             	3.09890671e+02
181             	3.09897409e+02
182             	3.09903956e+02
183             	3.09910100e+02
184             	3.09916091e+02
185             	3.09921843e+02
186             	3.09927366e+02
187             	3.09932782e+02
188             	3.09938022e+02
189             	3.09943186e+02
190             	3.09948376e+02
191             	3.09953522e+02
192             	3.09958548e+02
193             	3.09963438e+02
194             	3.09968203e+02
195             	3.09972801e+02
196             	3.09977149e+02
197             	3.09981315e+02
198             	3.09985267e+02
199             	3.09989000e+02
200             	3.09992644e+02
201             	3.09996190e+02
202             	3.09999595e+02
203             	3.10002846e+02
204             	3.10006037e+02
205             	3.10009174e+02
206             	3.10012212e+02
207             	3.10015154e+02
208             	3.10018036e+02
209             	3.10020868e+02
210             	3.10023610e+02
211             	3.10026209e+02
212             	3.10028681e+02
213             	3.10031063e+02
214             	3.10033354e+02
215             	3.10035553e+02
216             	3.10037637e+02
217             	3.10039631e+02
218             	3.10041569e+02
219             	3.10043448e+02
220             	3.10045304e+02
221             	3.10047170e+02
222             	3.10049043e+02
223             	3.10050927e+02
224             	3.10052802e+02
225             	3.10054661e+02
226             	3.10056490e+02
227             	3.10058275e+02
228             	3.10059993e+02
229             	3.10061644e+02
230             	3.10063212e+02
231             	3.10064678e+02
232             	3.10066023e+02
233             	3.10067294e+02
234             	3.10068474e+02
235             	3.10069587e+02
236             	3.10070630e+02
237             	3.10071626e+02
238             	3.10072598e+02
239             	3.10073579e+02
240             	3.10074565e+02
241             	3.10075543e+02
242             	3.10076507e+02
243             	3.10077483e+02
244             	3.10078454e+02
245             	3.10079402e+02
246             	3.10080321e+02
247             	3.10081193e+02
248             	3.10082030e+02
249             	3.10082823e+02
250             	3.10083563e+02
251             	3.10084255e+02
252             	3.10084910e+02
253             	3.10085536e+02
254             	3.10086148e+02
255             	3.10086756e+02
256             	3.10087372e+02
257             	3.10088008e+02
258             	3.10088657e+02
259             	3.10089310e+02
260             	3.10089976e+02
261             	3.10090652e+02
262             	3.10091329e+02
263             	3.10091998e+02
264             	3.10092650e+02
265             	3.10093262e+02
266             	3.10093845e+02
267             	3.10094392e+02
268             	3.10094892e+02
269             	3.10095345e+02
270             	3.10095769e+02
271             	3.10096184e+02
272             	3.10096591e+02
273             	3.10096993e+02
274             	3.10097396e+02
275             	3.10097802e+02
276             	3.10098211e+02
277             	3.10098619e+02
278             	3.10099022e+02
279             	3.10099427e+02
280             	3.10099831e+02
281             	3.10100230e+02
282             	3.10100623e+02
283             	3.10101010e+02
284             	3.10101389e+02
285             	3.10101752e+02
286             	3.10102094e+02
287             	3.10102411e+02
288             	3.10102722e+02
289             	3.10103023e+02
290             	3.10103326e+02
291             	3.10103635e+02
292             	3.10103953e+02
293             	3.10104279e+02
294             	3.10104614e+02
295             	3.10104949e+02
296             	3.10105280e+02
297             	3.10105604e+02
298             	3.10105922e+02
299             	3.10106224e+02
300             	3.10106511e+02
301             	3.10106778e+02
302             	3.10107035e+02
303             	3.10107285e+02
304             	3.10107539e+02
305             	3.10107788e+02
306             	3.10108037e+02
307             	3.10108292e+02
308             	3.10108553e+02
309             	3.10108815e+02
310             	3.10109078e+02
311             	3.10109340e+02
312             	3.10109605e+02
313             	3.10109863e+02
314             	3.10110118e+02
315             	3.10110363e+02
316             	3.10110597e+02
317             	3.10110822e+02
318             	3.10111036e+02
319             	3.10111241e+02
320             	3.10111440e+02
321             	3.10111641e+02
322             	3.10111844e+02
323             	3.10112047e+02
324             	3.10112252e+02
325             	3.10112466e+02
326             	3.10112687e+02
327             	3.10112915e+02
328             	3.10113142e+02
329             	3.10113368e+02
330             	3.10113591e+02
331             	3.10113809e+02
332             	3.10114018e+02
333             	3.10114214e+02
334             	3.10114400e+02
335             	3.10114585e+02
336             	3.10114764e+02
337             	3.10114939e+02
338             	3.10115116e+02
339             	3.10115302e+02
340             	3.10115494e+02
341             	3.10115692e+02
342             	3.10115896e+02
343             	3.10116104e+02
344             	3.10116310e+02
345             	3.10116512e+02
346             	3.10116709e+02
347             	3.10116902e+02
348             	3.10117089e+02
349             	3.10117267e+02
350             	3.10117435e+02
351             	3.10117596e+02
352             	3.10117749e+02
353             	3.10117898e+02
354             	3.10118043e+02
355             	3.10118187e+02
356             	3.10118330e+02
357             	3.10118474e+02
358             	3.10118623e+02
359             	3.10118776e+02
360             	3.10118934e+02
361             	3.10119094e+02
362             	3.10119252e+02
363             	3.10119409e+02
364             	3.10119565e+02
365             	3.10119719e+02
366             	3.10119872e+02
367             	3.10120023e+02
368             	3.10120173e+02
369             	3.10120323e+02
370             	3.10120471e+02
371             	3.10120617e+02
372             	3.10120761e+02
373             	3.10120902e+02
374             	3.10121041e+02
375             	3.10121176e+02
376             	3.10121312e+02
377             	3.10121447e+02
378             	3.10121583e+02
379             	3.10121720e+02
380             	3.10121859e+02
381             	3.10121997e+02
382             	3.10122136e+02
383             	3.10122276e+02
384             	3.10122413e+02
385             	3.10122549e+02
386             	3.10122683e+02
387             	3.10122815e+02
388             	3.10122945e+02
389             	3.10123073e+02
390             	3.10123198e+02
391             	3.10123322e+02
392             	3.10123443e+02
393             	3.10123563e+02
394             	3.10123681e+02
395             	3.10123797e+02
396             	3.10123913e+02
397             	3.10124029e+02
398             	3.10124145e+02
399             	3.10124262e+02
400             	3.10124379e+02
401             	3.10124496e+02
402             	3.10124613e+02
403             	3.10124730e+02
404             	3.10124846e+02
405             	3.10124960e+02
406             	3.10125072e+02
407             	3.10125183e+02
408             	3.10125291e+02
409             	3.10125398e+02
410             	3.10125503e+02
411             	3.10125606e+02
412             	3.10125708e+02
413             	3.10125809e+02
414             	3.10125909e+02
415             	3.10126008e+02
416             	3.10126107e+02
417             	3.10126205e+02
418             	3.10126303e+02
419             	3.10126400e+02
420             	3.10126498e+02
421             	3.10126596e+02
422             	3.10126693e+02
423             	3.10126791e+02
424             	3.10126888e+02
425             	3.10126985e+02
426             	3.10127080e+02
427             	3.10127174e+02
428             	3.10127267e+02
429             	3.10127359e+02
430             	3.10127450e+02
431             	3.10127539e+02
432             	3.10127627e+02
433             	3.10127712e+02
434             	3.10127796e+02
435             	3.10127880e+02
436             	3.10127962e+02
437             	3.10128044e+02
438             	3.10128126e+02
439             	3.10128208e+02
440             	3.10128289e+02
441             	3.10128370e+02
442             	3.10128451e+02
443             	3.10128532e+02
444             	3.10128612e+02
445             	3.10128692e+02
446             	3.10128772e+02
447             	3.10128850e+02
448             	3.10128928e+02
449             	3.10129005e+02
450             	3.10129081e+02
451             	3.10129155e+02
452             	3.10129229e+02
453             	3.10129301e+02
454             	3.10129373e+02
455             	3.10129463e+02
456             	3.10129555e+02
457             	3.10129645e+02
458             	3.10129734e+02
459             	3.10129821e+02
460             	3.10129907e+02
461             	3.10129992e+02
462             	3.10130076e+02
463             	3.10130159e+02
464             	3.10130241e+02
465             	3.10130320e+02
466             	3.10130399e+02
467             	3.10130476e+02
468             	3.10130552e+02
469             	3.10130626e+02
470             	3.10130698e+02
471             	3.10130768e+02
472             	3.10130837e+02
473             	3.10130905e+02
474             	3.10130973e+02
475             	3.10131039e+02
476             	3.10131105e+02
477             	3.10131170e+02
478             	3.10131235e+02
479             	3.10131298e+02
480             	3.10131361e+02
481             	3.10131424e+02
482             	3.10131485e+02
483             	3.10131546e+02
484             	3.10131607e+02
485             	3.10131666e+02
486             	3.10131725e+02
487             	3.10131783e+02
488             	3.10131839e+02
489             	3.10131895e+02
490             	3.10131950e+02
491             	3.10132003e+02
492             	3.10132056e+02
493             	3.10132107e+02
494             	3.10132158e+02
495             	3.10132209e+02
496             	3.10132258e+02
497             	3.10132307e+02
498             	3.10132356e+02
499             	3.10132405e+02
500             	3.10132453e+02
501             	3.10132501e+02
502             	3.10132548e+02
503             	3.10132595e+02
504             	3.10132641e+02
505             	3.10132686e+02
506             	3.10132731e+02
507             	3.10132774e+02
508             	3.10132817e+02
509             	3.10132859e+02
510             	3.10132900e+02
511             	3.10132941e+02
512             	3.10132981e+02
513             	3.10133021e+02
514             	3.10133060e+02
515             	3.10133098e+02
516             	3.10133137e+02
517             	3.10133175e+02
518             	3.10133213e+02
519             	3.10133251e+02
520             	3.10133288e+02
521             	3.10133325e+02
522             	3.10133362e+02
523             	3.10133398e+02
524             	3.10133434e+02
525             	3.10133470e+02
526             	3.10133505e+02
527             	3.10133539e+02
528             	3.10133573e+02
529             	3.10133607e+02
530             	3.10133640e+02
531             	3.10133672e+02
532             	3.10133704e+02
533             	3.10133735e+02
534             	3.10133766e+02
535             	3.10133797e+02
536             	3.10133827e+02
537             	3.10133856e+02
538             	3.10133885e+02
539             	3.10133914e+02
540             	3.10133943e+02
541             	3.10133971e+02
542             	3.10133998e+02
543             	3.10134025e+02
544             	3.10134053e+02
545             	3.10134080e+02
546             	3.10134107e+02
547             	3.10134134e+02
548             	3.10134161e+02
549             	3.10134188e+02
550             	3.10134214e+02
551             	3.10134241e+02
552             	3.10134267e+02
553             	3.10134293e+02
554             	3.10134319e+02
555             	3.10134344e+02
556             	3.10134369e+02
557             	3.10134394e+02
558             	3.10134418e+02
559             	3.10134441e+02
560             	3.10134464e+02
561             	3.10134487e+02
562             	3.10134509e+02
563             	3.10134531e+02
564             	3.10134552e+02
565             	3.10134573e+02
566             	3.10134594e+02
567             	3.10134614e+02
568             	3.10134634e+02
569             	3.10134654e+02
570             	3.10134674e+02
571             	3.10134694e+02
572             	3.10134713e+02
573             	3.10134733e+02
574             	3.10134752e+02
575             	3.10134771e+02
576             	3.10134791e+02
577             	3.10134810e+02
578             	3.10134829e+02
579             	3.10134847e+02
580             	3.10134866e+02
581             	3.10134885e+02
582             	3.10134903e+02
583             	3.10134921e+02
584             	3.10134939e+02
585             	3.10134957e+02
586             	3.10134975e+02
587             	3.10134992e+02
588             	3.10135010e+02
589             	3.10135027e+02
590             	3.10135044e+02
591             	3.10135061e+02
592             	3.10135078e+02
593             	3.10135094e+02
594             	3.10135110e+02
595             	3.10135126e+02
596             	3.10135141e+02
597             	3.10135156e+02
598             	3.10135170e+02
599             	3.10135170e+02
600             	3.10135184e+02
601             	3.10135198e+02
602             	3.10135211e+02
603             	3.10135211e+02
604             	3.10135211e+02
605             	3.10135224e+02
606             	3.10135238e+02
607             	3.10135251e+02
608             	3.10135251e+02
609             	3.10135251e+02
610             	3.10135264e+02
611             	3.10135278e+02
612             	3.10135278e+02
613             	3.10135278e+02
614             	3.10135291e+02
615             	3.10135305e+02
616             	3.10135305e+02
617             	3.10135305e+02
618             	3.10135318e+02
619             	3.10135332e+02
620             	3.10135346e+02
621             	3.10135346e+02
