# Region        : cellZone component_3
# Cells         : 59
# Volume        : 1.03117574e-01
# Time          	volAverage(T)
1               	3.02140010e+02
2               	3.04244328e+02
3               	3.06207679e+02
4               	3.08078665e+02
5               	3.09892554e+02
6               	3.11661016e+02
7               	3.13386504e+02
8               	3.15081099e+02
9               	3.16746348e+02
10              	3.18379954e+02
11              	3.19988534e+02
12              	3.21506190e+02
13              	3.22963078e+02
14              	3.24385412e+02
15              	3.25806442e+02
16              	3.27221538e+02
17              	3.28630346e+02
18              	3.30007073e+02
19              	3.31328945e+02
20              	3.32623503e+02
21              	3.33941254e+02
22              	3.35295229e+02
23              	3.36654598e+02
24              	3.38012839e+02
25              	3.39354242e+02
26              	3.40665951e+02
27              	3.41945520e+02
28              	3.43184614e+02
29              	3.44393002e+02
30              	3.45585103e+02
31              	3.46734835e+02
32              	3.47847924e+02
33              	3.48956610e+02
34              	3.49980445e+02
35              	3.50922316e+02
36              	3.51795863e+02
37              	3.52695630e+02
38              	3.53576588e+02
39              	3.54420049e+02
40              	3.55267360e+02
41              	3.56119283e+02
42              	3.56938732e+02
43              	3.57707016e+02
44              	3.58409378e+02
45              	3.59074470e+02
46              	3.59740176e+02
47              	3.60412780e+02
48              	3.60955003e+02
49              	3.61399963e+02
50              	3.61818798e+02
51              	3.62262677e+02
52              	3.62747827e+02
53              	3.63334243e+02
54              	3.63889283e+02
55              	3.64365713e+02
56              	3.64798826e+02
57              	3.65223178e+02
58              	3.65617100e+02
59              	3.66051026e+02
60              	3.66469803e+02
61              	3.66879864e+02
62              	3.67326054e+02
63              	3.67828036e+02
64              	3.68345410e+02
65              	3.68843403e+02
66              	3.69326660e+02
67              	3.69859959e+02
68              	3.70379102e+02
69              	3.70879929e+02
70              	3.71369318e+02
71              	3.71860943e+02
72              	3.72289580e+02
73              	3.72697703e+02
74              	3.73071940e+02
75              	3.73383402e+02
76              	3.73684532e+02
77              	3.73969476e+02
78              	3.74287246e+02
79              	3.74627156e+02
80              	3.74965720e+02
81              	3.75313550e+02
82              	3.75641948e+02
83              	3.75973269e+02
84              	3.76294776e+02
85              	3.76609754e+02
86              	3.76910878e+02
87              	3.77198352e+02
88              	3.77481574e+02
89              	3.77764761e+02
90              	3.78036600e+02
91              	3.78318436e+02
92              	3.78602262e+02
93              	3.78909148e+02
94              	3.79228073e+02
95              	3.79552076e+02
96              	3.79875411e+02
97              	3.80191832e+02
98              	3.80500226e+02
99              	3.80802095e+02
100             	3.81090721e+02
101             	3.81356599e+02
102             	3.81621988e+02
103             	3.81881548e+02
104             	3.82129454e+02
105             	3.82361704e+02
106             	3.82582967e+02
107             	3.82796165e+02
108             	3.83005274e+02
109             	3.83213976e+02
110             	3.83426382e+02
111             	3.83640667e+02
112             	3.83848327e+02
113             	3.84057430e+02
114             	3.84268762e+02
115             	3.84478598e+02
116             	3.84678557e+02
117             	3.84869348e+02
118             	3.85063914e+02
119             	3.85266877e+02
120             	3.85466374e+02
121             	3.85661626e+02
122             	3.85851779e+02
123             	3.86034821e+02
124             	3.86216255e+02
125             	3.86404928e+02
126             	3.86595716e+02
127             	3.86791824e+02
128             	3.86961090e+02
129             	3.87129791e+02
130             	3.87297012e+02
131             	3.87464534e+02
132             	3.87637451e+02
133             	3.87802899e+02
134             	3.87962154e+02
135             	3.88104565e+02
136             	3.88247147e+02
137             	3.88397172e+02
138             	3.88545262e+02
139             	3.88681569e+02
140             	3.88811291e+02
141             	3.88941923e+02
142             	3.89089626e+02
143             	3.89192754e+02
144             	3.89300121e+02
145             	3.89413807e+02
146             	3.89529866e+02
147             	3.89644677e+02
148             	3.89756893e+02
149             	3.89870176e+02
150             	3.89982215e+02
151             	3.90093808e+02
152             	3.90213870e+02
153             	3.90335835e+02
154             	3.90458048e+02
155             	3.90565374e+02
156             	3.90676799e+02
157             	3.90789555e+02
158             	3.90898066e+02
159             	3.91005086e+02
160             	3.91109061e+02
161             	3.91205178e+02
162             	3.91296118e+02
163             	3.91385094e+02
164             	3.91479644e+02
165             	3.91579198e+02
166             	3.91681955e+02
167             	3.91790567e+02
168             	3.91887668e+02
169             	3.91988029e+02
170             	3.92086649e+02
171             	3.92176262e+02
172             	3.92255692e+02
173             	3.92331798e+02
174             	3.92400791e+02
175             	3.92478050e+02
176             	3.92553134e+02
177             	3.92620387e+02
178             	3.92683399e+02
179             	3.92743295e+02
180             	3.92805820e+02
181             	3.92867926e+02
182             	3.92928236e+02
183             	3.92988208e+02
184             	3.93052966e+02
185             	3.93105046e+02
186             	3.93158625e+02
187             	3.93218775e+02
188             	3.93284793e+02
189             	3.93349586e+02
190             	3.93420154e+02
191             	3.93492260e+02
192             	3.93556119e+02
193             	3.93625481e+02
194             	3.93699440e+02
195             	3.93769975e+02
196             	3.93837417e+02
197             	3.93899565e+02
198             	3.93960668e+02
199             	3.94022385e+02
200             	3.94083434e+02
201             	3.94146557e+02
202             	3.94212879e+02
203             	3.94272970e+02
204             	3.94336957e+02
205             	3.94395764e+02
206             	3.94453086e+02
207             	3.94508749e+02
208             	3.94562018e+02
209             	3.94611789e+02
210             	3.94655789e+02
211             	3.94704300e+02
212             	3.94752788e+02
213             	3.94797686e+02
214             	3.94838613e+02
215             	3.94878380e+02
216             	3.94917415e+02
217             	3.94956106e+02
218             	3.94996931e+02
219             	3.95036311e+02
220             	3.95074759e+02
221             	3.95115555e+02
222             	3.95160599e+02
223             	3.95201666e+02
224             	3.95241487e+02
225             	3.95281342e+02
226             	3.95321183e+02
227             	3.95362242e+02
228             	3.95399359e+02
229             	3.95433625e+02
230             	3.95468173e+02
231             	3.95504323e+02
232             	3.95540826e+02
233             	3.95576839e+02
234             	3.95612388e+02
235             	3.95647721e+02
236             	3.95680808e+02
237             	3.95712653e+02
238             	3.95743247e+02
239             	3.95772248e+02
240             	3.95800464e+02
241             	3.95828402e+02
242             	3.95856226e+02
243             	3.95884448e+02
244             	3.95911201e+02
245             	3.95937964e+02
246             	3.95964501e+02
247             	3.95990832e+02
248             	3.96016783e+02
249             	3.96042016e+02
250             	3.96068492e+02
251             	3.96092881e+02
252             	3.96114707e+02
253             	3.96133931e+02
254             	3.96151880e+02
255             	3.96169771e+02
256             	3.96186090e+02
257             	3.96203771e+02
258             	3.96218952e+02
259             	3.96234555e+02
260             	3.96251909e+02
261             	3.96269700e+02
262             	3.96287692e+02
263             	3.96307507e+02
264             	3.96329287e+02
265             	3.96351161e+02
266             	3.96371990e+02
267             	3.96393093e+02
268             	3.96414720e+02
269             	3.96436633e+02
270             	3.96458295e+02
271             	3.96479656e+02
272             	3.96501487e+02
273             	3.96523240e+02
274             	3.96545043e+02
275             	3.96566914e+02
276             	3.96588005e+02
277             	3.96608607e+02
278             	3.96628816e+02
279             	3.96648541e+02
280             	3.96667417e+02
281             	3.96685447e+02
282             	3.96703798e+02
283             	3.96721141e+02
284             	3.96737749e+02
285             	3.96754142e+02
286             	3.96769957e+02
287             	3.96784185e+02
288             	3.96797424e+02
289             	3.96809695e+02
290             	3.96821446e+02
291             	3.96833538e+02
292             	3.96845616e+02
293             	3.96857696e+02
294             	3.96869325e+02
295             	3.96879276e+02
296             	3.96889349e+02
297             	3.96899216e+02
298             	3.96909031e+02
299             	3.96918717e+02
300             	3.96927995e+02
301             	3.96936417e+02
302             	3.96944450e+02
303             	3.96953257e+02
304             	3.96962711e+02
305             	3.96971996e+02
306             	3.96981410e+02
307             	3.96990912e+02
308             	3.97001720e+02
309             	3.97012113e+02
310             	3.97022436e+02
311             	3.97032202e+02
312             	3.97042000e+02
313             	3.97051954e+02
314             	3.97061709e+02
315             	3.97070833e+02
316             	3.97079671e+02
317             	3.97088128e+02
318             	3.97096440e+02
319             	3.97105220e+02
320             	3.97114046e+02
321             	3.97122544e+02
322             	3.97130568e+02
323             	3.97138079e+02
324             	3.97145276e+02
325             	3.97152237e+02
326             	3.97159008e+02
327             	3.97165440e+02
328             	3.97171716e+02
329             	3.97178021e+02
330             	3.97184386e+02
331             	3.97190671e+02
332             	3.97196926e+02
333             	3.97203282e+02
334             	3.97209615e+02
335             	3.97216005e+02
336             	3.97222431e+02
337             	3.97228886e+02
338             	3.97235680e+02
339             	3.97242402e+02
340             	3.97248974e+02
341             	3.97255457e+02
342             	3.97261791e+02
343             	3.97266998e+02
344             	3.97273023e+02
345             	3.97279115e+02
346             	3.97285174e+02
347             	3.97291418e+02
348             	3.97297772e+02
349             	3.97304187e+02
350             	3.97310621e+02
351             	3.97317538e+02
352             	3.97324453e+02
353             	3.97330861e+02
354             	3.97337105e+02
355             	3.97343197e+02
356             	3.97349384e+02
357             	3.97355417e+02
358             	3.97361260e+02
359             	3.97366860e+02
360             	3.97372159e+02
361             	3.97377157e+02
362             	3.97381881e+02
363             	3.97386400e+02
364             	3.97390671e+02
365             	3.97394718e+02
366             	3.97398435e+02
367             	3.97401581e+02
368             	3.97404292e+02
369             	3.97407344e+02
370             	3.97410336e+02
371             	3.97413202e+02
372             	3.97415941e+02
373             	3.97418516e+02
374             	3.97421632e+02
375             	3.97424894e+02
376             	3.97427743e+02
377             	3.97430654e+02
378             	3.97433762e+02
379             	3.97436937e+02
380             	3.97440039e+02
381             	3.97443127e+02
382             	3.97445822e+02
383             	3.97448836e+02
384             	3.97451566e+02
385             	3.97454184e+02
386             	3.97457119e+02
387             	3.97460038e+02
388             	3.97462849e+02
389             	3.97465560e+02
390             	3.97468146e+02
391             	3.97470918e+02
392             	3.97473598e+02
393             	3.97475937e+02
394             	3.97478473e+02
395             	3.97481218e+02
396             	3.97484153e+02
397             	3.97486851e+02
398             	3.97489453e+02
399             	3.97492171e+02
400             	3.97494570e+02
401             	3.97496712e+02
402             	3.97498585e+02
403             	3.97500255e+02
404             	3.97502131e+02
405             	3.97504227e+02
406             	3.97506370e+02
407             	3.97508475e+02
408             	3.97510373e+02
409             	3.97512288e+02
410             	3.97514093e+02
411             	3.97515798e+02
412             	3.97517399e+02
413             	3.97518977e+02
414             	3.97520638e+02
415             	3.97522259e+02
416             	3.97523995e+02
417             	3.97525959e+02
418             	3.97527866e+02
419             	3.97530039e+02
420             	3.97531994e+02
421             	3.97533890e+02
422             	3.97535883e+02
423             	3.97537819e+02
424             	3.97539686e+02
425             	3.97541190e+02
426             	3.97542843e+02
427             	3.97544379e+02
428             	3.97545968e+02
429             	3.97547503e+02
430             	3.97548949e+02
431             	3.97550334e+02
432             	3.97551686e+02
433             	3.97553280e+02
434             	3.97554750e+02
435             	3.97556136e+02
436             	3.97557543e+02
437             	3.97559000e+02
438             	3.97560465e+02
439             	3.97561888e+02
440             	3.97563279e+02
441             	3.97564651e+02
442             	3.97565996e+02
443             	3.97567302e+02
444             	3.97568619e+02
445             	3.97569614e+02
446             	3.97570827e+02
447             	3.97572096e+02
448             	3.97573318e+02
449             	3.97574477e+02
450             	3.97575597e+02
451             	3.97576828e+02
452             	3.97578036e+02
453             	3.97579128e+02
454             	3.97580210e+02
455             	3.97581346e+02
456             	3.97582481e+02
457             	3.97583601e+02
458             	3.97584587e+02
459             	3.97585481e+02
460             	3.97586470e+02
461             	3.97587463e+02
462             	3.97588398e+02
463             	3.97589300e+02
464             	3.97590205e+02
465             	3.97591092e+02
466             	3.97591943e+02
467             	3.97592811e+02
468             	3.97593771e+02
469             	3.97594851e+02
470             	3.97595717e+02
471             	3.97596553e+02
472             	3.97597362e+02
473             	3.97598166e+02
474             	3.97598923e+02
475             	3.97599618e+02
476             	3.97600222e+02
477             	3.97600937e+02
478             	3.97601728e+02
479             	3.97602512e+02
480             	3.97603306e+02
481             	3.97604118e+02
482             	3.97604856e+02
483             	3.97605556e+02
484             	3.97606239e+02
485             	3.97606898e+02
486             	3.97607543e+02
487             	3.97608138e+02
488             	3.97608701e+02
489             	3.97609353e+02
490             	3.97610059e+02
491             	3.97610742e+02
492             	3.97611459e+02
493             	3.97612264e+02
494             	3.97613143e+02
495             	3.97613916e+02
496             	3.97614643e+02
497             	3.97615341e+02
498             	3.97616050e+02
499             	3.97616765e+02
500             	3.97617416e+02
501             	3.97617965e+02
502             	3.97618511e+02
503             	3.97619082e+02
504             	3.97619652e+02
505             	3.97620209e+02
506             	3.97620734e+02
507             	3.97621244e+02
508             	3.97621730e+02
509             	3.97622199e+02
510             	3.97622663e+02
511             	3.97623109e+02
512             	3.97623593e+02
513             	3.97624033e+02
514             	3.97624447e+02
515             	3.97624852e+02
516             	3.97625221e+02
517             	3.97625622e+02
518             	3.97626001e+02
519             	3.97626446e+02
520             	3.97626914e+02
521             	3.97627409e+02
522             	3.97627914e+02
523             	3.97628424e+02
524             	3.97628959e+02
525             	3.97629483e+02
526             	3.97629984e+02
527             	3.97630473e+02
528             	3.97630944e+02
529             	3.97631390e+02
530             	3.97631829e+02
531             	3.97632282e+02
532             	3.97632737e+02
533             	3.97633198e+02
534             	3.97633660e+02
535             	3.97634127e+02
536             	3.97634604e+02
537             	3.97635073e+02
538             	3.97635498e+02
539             	3.97635882e+02
540             	3.97636260e+02
541             	3.97636631e+02
542             	3.97636965e+02
543             	3.97637225e+02
544             	3.97637488e+02
545             	3.97637797e+02
546             	3.97638130e+02
547             	3.97638460e+02
548             	3.97638742e+02
549             	3.97639046e+02
550             	3.97639340e+02
551             	3.97639628e+02
552             	3.97639904e+02
553             	3.97640197e+02
554             	3.97640467e+02
555             	3.97640743e+02
556             	3.97640998e+02
557             	3.97641258e+02
558             	3.97641494e+02
559             	3.97641740e+02
560             	3.97642019e+02
561             	3.97642325e+02
562             	3.97642619e+02
563             	3.97642910e+02
564             	3.97643234e+02
565             	3.97643527e+02
566             	3.97643785e+02
567             	3.97644041e+02
568             	3.97644277e+02
569             	3.97644525e+02
570             	3.97644778e+02
571             	3.97645009e+02
572             	3.97645214e+02
573             	3.97645413e+02
574             	3.97645625e+02
575             	3.97645846e+02
576             	3.97646058e+02
577             	3.97646244e+02
578             	3.97646431e+02
579             	3.97646618e+02
580             	3.97646799e+02
581             	3.97646990e+02
582             	3.97647175e+02
583             	3.97647351e+02
584             	3.97647535e+02
585             	3.97647681e+02
586             	3.97647834e+02
587             	3.97648029e+02
588             	3.97648242e+02
589             	3.97648454e+02
590             	3.97648666e+02
591             	3.97648896e+02
592             	3.97649084e+02
593             	3.97649269e+02
594             	3.97649450e+02
595             	3.97649613e+02
596             	3.97649796e+02
597             	3.97649971e+02
598             	3.97650134e+02
599             	3.97650303e+02
600             	3.97650460e+02
601             	3.97650607e+02
602             	3.97650758e+02
603             	3.97650906e+02
604             	3.97651036e+02
605             	3.97651168e+02
606             	3.97651292e+02
607             	3.97651408e+02
608             	3.97651528e+02
609             	3.97651631e+02
610             	3.97651741e+02
611             	3.97651869e+02
612             	3.97651991e+02
613             	3.97652119e+02
614             	3.97652269e+02
615             	3.97652416e+02
616             	3.97652564e+02
617             	3.97652736e+02
618             	3.97652898e+02
619             	3.97653060e+02
620             	3.97653237e+02
621             	3.97653407e+02
