# Region        : cellZone fluid
# Cells         : 9395
# Volume        : 1.81136780e+01
# Time          	volAverage(T)
1               	3.00000037e+02
2               	3.00000127e+02
3               	3.00000980e+02
4               	3.00002044e+02
5               	3.00002687e+02
6               	3.00003487e+02
7               	3.00004495e+02
8               	3.00005321e+02
9               	3.00006629e+02
10              	3.00008080e+02
11              	3.00009767e+02
12              	3.00011742e+02
13              	3.00013107e+02
14              	3.00014847e+02
15              	3.00016833e+02
16              	3.00018818e+02
17              	3.00020508e+02
18              	3.00022960e+02
19              	3.00024880e+02
20              	3.00027565e+02
21              	3.00030844e+02
22              	3.00033341e+02
23              	3.00035505e+02
24              	3.00037641e+02
25              	3.00040023e+02
26              	3.00042594e+02
27              	3.00045737e+02
28              	3.00048743e+02
29              	3.00052512e+02
30              	3.00056454e+02
31              	3.00061244e+02
32              	3.00065423e+02
33              	3.00069616e+02
34              	3.00074701e+02
35              	3.00078654e+02
36              	3.00083677e+02
37              	3.00087729e+02
38              	3.00092024e+02
39              	3.00094731e+02
40              	3.00096152e+02
41              	3.00099454e+02
42              	3.00103757e+02
43              	3.00107600e+02
44              	3.00111503e+02
45              	3.00114980e+02
46              	3.00119372e+02
47              	3.00122088e+02
48              	3.00125976e+02
49              	3.00129742e+02
50              	3.00132742e+02
51              	3.00136203e+02
52              	3.00139415e+02
53              	3.00143162e+02
54              	3.00147307e+02
55              	3.00150522e+02
56              	3.00153868e+02
57              	3.00157649e+02
58              	3.00162286e+02
59              	3.00166303e+02
60              	3.00168783e+02
61              	3.00172749e+02
62              	3.00175253e+02
63              	3.00178725e+02
64              	3.00182199e+02
65              	3.00185372e+02
66              	3.00190670e+02
67              	3.00191253e+02
68              	3.00194051e+02
69              	3.00197215e+02
70              	3.00198992e+02
71              	3.00202648e+02
72              	3.00204316e+02
73              	3.00205736e+02
74              	3.00209282e+02
75              	3.00211048e+02
76              	3.00213330e+02
77              	3.00216785e+02
78              	3.00219192e+02
79              	3.00222810e+02
80              	3.00224619e+02
81              	3.00227001e+02
82              	3.00231949e+02
83              	3.00235150e+02
84              	3.00238414e+02
85              	3.00241447e+02
86              	3.00245135e+02
87              	3.00249900e+02
88              	3.00253395e+02
89              	3.00254967e+02
90              	3.00257082e+02
91              	3.00260110e+02
92              	3.00262882e+02
93              	3.00265518e+02
94              	3.00268386e+02
95              	3.00270912e+02
96              	3.00274138e+02
97              	3.00277728e+02
98              	3.00279885e+02
99              	3.00282416e+02
100             	3.00285111e+02
101             	3.00288270e+02
102             	3.00290442e+02
103             	3.00292454e+02
104             	3.00294644e+02
105             	3.00296294e+02
106             	3.00298523e+02
107             	3.00300245e+02
108             	3.00302629e+02
109             	3.00304196e+02
110             	3.00306666e+02
111             	3.00308769e+02
112             	3.00311789e+02
113             	3.00313583e+02
114             	3.00316163e+02
115             	3.00317949e+02
116             	3.00320031e+02
117             	3.00322003e+02
118             	3.00323747e+02
119             	3.00325291e+02
120             	3.00326481e+02
121             	3.00328165e+02
122             	3.00329509e+02
123             	3.00331277e+02
124             	3.00333549e+02
125             	3.00335546e+02
126             	3.00338435e+02
127             	3.00339727e+02
128             	3.00340874e+02
129             	3.00341773e+02
130             	3.00343042e+02
131             	3.00344138e+02
132             	3.00345256e+02
133             	3.00346071e+02
134             	3.00346719e+02
135             	3.00347288e+02
136             	3.00347759e+02
137             	3.00348222e+02
138             	3.00348570e+02
139             	3.00348791e+02
140             	3.00349035e+02
141             	3.00349530e+02
142             	3.00349832e+02
143             	3.00350228e+02
144             	3.00350652e+02
145             	3.00350902e+02
146             	3.00351197e+02
147             	3.00351682e+02
148             	3.00353126e+02
149             	3.00353346e+02
150             	3.00353660e+02
151             	3.00353808e+02
152             	3.00353995e+02
153             	3.00354154e+02
154             	3.00354348e+02
155             	3.00354475e+02
156             	3.00354617e+02
157             	3.00354758e+02
158             	3.00355196e+02
159             	3.00355203e+02
160             	3.00355304e+02
161             	3.00355650e+02
162             	3.00356295e+02
163             	3.00356732e+02
164             	3.00357019e+02
165             	3.00357310e+02
166             	3.00358149e+02
167             	3.00358585e+02
168             	3.00358967e+02
169             	3.00359742e+02
170             	3.00360719e+02
171             	3.00361734e+02
172             	3.00362629e+02
173             	3.00363450e+02
174             	3.00364277e+02
175             	3.00365389e+02
176             	3.00366482e+02
177             	3.00367583e+02
178             	3.00368625e+02
179             	3.00369840e+02
180             	3.00370930e+02
181             	3.00372234e+02
182             	3.00373229e+02
183             	3.00374532e+02
184             	3.00375909e+02
185             	3.00377754e+02
186             	3.00379113e+02
187             	3.00380722e+02
188             	3.00382213e+02
189             	3.00383590e+02
190             	3.00384684e+02
191             	3.00385415e+02
192             	3.00386337e+02
193             	3.00387393e+02
194             	3.00388500e+02
195             	3.00389461e+02
196             	3.00390887e+02
197             	3.00391717e+02
198             	3.00392674e+02
199             	3.00393947e+02
200             	3.00394468e+02
201             	3.00395058e+02
202             	3.00395784e+02
203             	3.00396481e+02
204             	3.00396940e+02
205             	3.00397388e+02
206             	3.00397817e+02
207             	3.00398069e+02
208             	3.00398345e+02
209             	3.00398559e+02
210             	3.00398723e+02
211             	3.00398858e+02
212             	3.00399137e+02
213             	3.00399327e+02
214             	3.00399567e+02
215             	3.00399689e+02
216             	3.00400061e+02
217             	3.00400165e+02
218             	3.00400461e+02
219             	3.00400659e+02
220             	3.00401100e+02
221             	3.00401280e+02
222             	3.00401592e+02
223             	3.00401819e+02
224             	3.00402269e+02
225             	3.00402468e+02
226             	3.00402709e+02
227             	3.00403009e+02
228             	3.00403698e+02
229             	3.00404212e+02
230             	3.00404699e+02
231             	3.00405284e+02
232             	3.00405899e+02
233             	3.00406646e+02
234             	3.00407402e+02
235             	3.00407922e+02
236             	3.00408773e+02
237             	3.00409397e+02
238             	3.00410282e+02
239             	3.00411069e+02
240             	3.00411673e+02
241             	3.00412173e+02
242             	3.00412672e+02
243             	3.00413030e+02
244             	3.00413430e+02
245             	3.00413795e+02
246             	3.00414320e+02
247             	3.00414754e+02
248             	3.00415245e+02
249             	3.00415590e+02
250             	3.00416369e+02
251             	3.00416564e+02
252             	3.00416778e+02
253             	3.00416925e+02
254             	3.00417191e+02
255             	3.00417418e+02
256             	3.00417720e+02
257             	3.00417921e+02
258             	3.00418299e+02
259             	3.00418358e+02
260             	3.00418379e+02
261             	3.00418894e+02
262             	3.00419421e+02
263             	3.00419700e+02
264             	3.00419876e+02
265             	3.00419999e+02
266             	3.00420103e+02
267             	3.00420175e+02
268             	3.00420611e+02
269             	3.00420767e+02
270             	3.00421535e+02
271             	3.00422050e+02
272             	3.00422578e+02
273             	3.00423192e+02
274             	3.00423768e+02
275             	3.00424594e+02
276             	3.00425826e+02
277             	3.00426743e+02
278             	3.00427193e+02
279             	3.00427022e+02
280             	3.00427700e+02
281             	3.00427987e+02
282             	3.00428146e+02
283             	3.00428376e+02
284             	3.00428381e+02
285             	3.00428683e+02
286             	3.00429007e+02
287             	3.00429105e+02
288             	3.00429017e+02
289             	3.00428832e+02
290             	3.00428676e+02
291             	3.00428569e+02
292             	3.00428365e+02
293             	3.00428361e+02
294             	3.00428319e+02
295             	3.00428400e+02
296             	3.00428558e+02
297             	3.00428892e+02
298             	3.00429680e+02
299             	3.00430101e+02
300             	3.00430130e+02
301             	3.00430398e+02
302             	3.00430975e+02
303             	3.00431594e+02
304             	3.00431930e+02
305             	3.00431897e+02
306             	3.00432536e+02
307             	3.00433103e+02
308             	3.00433433e+02
309             	3.00433797e+02
310             	3.00434093e+02
311             	3.00434449e+02
312             	3.00434611e+02
313             	3.00435104e+02
314             	3.00435378e+02
315             	3.00435783e+02
316             	3.00436092e+02
317             	3.00436237e+02
318             	3.00436191e+02
319             	3.00436147e+02
320             	3.00436087e+02
321             	3.00436265e+02
322             	3.00436410e+02
323             	3.00436653e+02
324             	3.00436858e+02
325             	3.00437155e+02
326             	3.00437430e+02
327             	3.00437681e+02
328             	3.00437778e+02
329             	3.00437926e+02
330             	3.00437839e+02
331             	3.00437902e+02
332             	3.00437831e+02
333             	3.00437553e+02
334             	3.00437315e+02
335             	3.00437273e+02
336             	3.00437073e+02
337             	3.00436894e+02
338             	3.00436652e+02
339             	3.00436626e+02
340             	3.00436491e+02
341             	3.00436328e+02
342             	3.00436306e+02
343             	3.00435897e+02
344             	3.00436196e+02
345             	3.00435816e+02
346             	3.00435619e+02
347             	3.00435630e+02
348             	3.00435780e+02
349             	3.00436214e+02
350             	3.00436292e+02
351             	3.00436355e+02
352             	3.00436972e+02
353             	3.00437557e+02
354             	3.00438077e+02
355             	3.00438447e+02
356             	3.00438698e+02
357             	3.00438790e+02
358             	3.00438827e+02
359             	3.00439067e+02
360             	3.00439202e+02
361             	3.00439243e+02
362             	3.00439322e+02
363             	3.00439643e+02
364             	3.00439770e+02
365             	3.00440128e+02
366             	3.00440457e+02
367             	3.00440615e+02
368             	3.00440683e+02
369             	3.00440684e+02
370             	3.00440656e+02
371             	3.00440562e+02
372             	3.00440581e+02
373             	3.00440620e+02
374             	3.00440647e+02
375             	3.00440657e+02
376             	3.00440679e+02
377             	3.00440462e+02
378             	3.00440147e+02
379             	3.00440064e+02
380             	3.00440142e+02
381             	3.00440113e+02
382             	3.00439971e+02
383             	3.00439908e+02
384             	3.00439990e+02
385             	3.00439979e+02
386             	3.00439989e+02
387             	3.00439853e+02
388             	3.00439901e+02
389             	3.00439872e+02
390             	3.00439896e+02
391             	3.00439958e+02
392             	3.00440089e+02
393             	3.00440171e+02
394             	3.00440440e+02
395             	3.00440606e+02
396             	3.00440871e+02
397             	3.00441079e+02
398             	3.00441294e+02
399             	3.00441380e+02
400             	3.00441592e+02
401             	3.00441641e+02
402             	3.00441462e+02
403             	3.00441540e+02
404             	3.00441591e+02
405             	3.00441529e+02
406             	3.00441479e+02
407             	3.00441335e+02
408             	3.00441234e+02
409             	3.00441176e+02
410             	3.00441133e+02
411             	3.00440919e+02
412             	3.00440851e+02
413             	3.00440700e+02
414             	3.00440803e+02
415             	3.00440764e+02
416             	3.00441007e+02
417             	3.00441296e+02
418             	3.00441119e+02
419             	3.00441030e+02
420             	3.00441134e+02
421             	3.00441065e+02
422             	3.00441077e+02
423             	3.00441574e+02
424             	3.00441952e+02
425             	3.00442120e+02
426             	3.00442679e+02
427             	3.00442766e+02
428             	3.00442866e+02
429             	3.00442872e+02
430             	3.00443019e+02
431             	3.00443047e+02
432             	3.00443106e+02
433             	3.00443213e+02
434             	3.00443323e+02
435             	3.00443291e+02
436             	3.00443494e+02
437             	3.00443335e+02
438             	3.00443346e+02
439             	3.00443460e+02
440             	3.00443714e+02
441             	3.00443900e+02
442             	3.00444200e+02
443             	3.00444077e+02
444             	3.00443759e+02
445             	3.00443917e+02
446             	3.00443787e+02
447             	3.00443705e+02
448             	3.00443471e+02
449             	3.00443453e+02
450             	3.00443365e+02
451             	3.00443371e+02
452             	3.00443519e+02
453             	3.00443427e+02
454             	3.00443598e+02
455             	3.00443510e+02
456             	3.00443575e+02
457             	3.00443740e+02
458             	3.00443973e+02
459             	3.00443989e+02
460             	3.00443540e+02
461             	3.00444234e+02
462             	3.00444645e+02
463             	3.00444640e+02
464             	3.00444425e+02
465             	3.00444537e+02
466             	3.00444719e+02
467             	3.00444792e+02
468             	3.00444433e+02
469             	3.00444415e+02
470             	3.00444582e+02
471             	3.00445013e+02
472             	3.00445354e+02
473             	3.00445373e+02
474             	3.00445337e+02
475             	3.00445514e+02
476             	3.00445288e+02
477             	3.00445460e+02
478             	3.00445478e+02
479             	3.00445451e+02
480             	3.00445391e+02
481             	3.00445342e+02
482             	3.00445309e+02
483             	3.00445238e+02
484             	3.00445043e+02
485             	3.00444955e+02
486             	3.00444985e+02
487             	3.00445206e+02
488             	3.00445398e+02
489             	3.00445304e+02
490             	3.00445210e+02
491             	3.00445133e+02
492             	3.00445161e+02
493             	3.00445115e+02
494             	3.00445104e+02
495             	3.00445055e+02
496             	3.00445163e+02
497             	3.00445038e+02
498             	3.00445160e+02
499             	3.00445366e+02
500             	3.00445507e+02
501             	3.00445482e+02
502             	3.00445466e+02
503             	3.00445477e+02
504             	3.00445597e+02
505             	3.00445567e+02
506             	3.00445528e+02
507             	3.00445470e+02
508             	3.00445470e+02
509             	3.00445347e+02
510             	3.00445455e+02
511             	3.00445525e+02
512             	3.00445559e+02
513             	3.00445716e+02
514             	3.00445822e+02
515             	3.00445823e+02
516             	3.00445913e+02
517             	3.00445968e+02
518             	3.00446038e+02
519             	3.00445985e+02
520             	3.00445804e+02
521             	3.00445573e+02
522             	3.00445688e+02
523             	3.00445737e+02
524             	3.00445717e+02
525             	3.00445458e+02
526             	3.00445452e+02
527             	3.00445487e+02
528             	3.00445664e+02
529             	3.00445377e+02
530             	3.00445177e+02
531             	3.00445027e+02
532             	3.00445016e+02
533             	3.00445099e+02
534             	3.00444803e+02
535             	3.00444916e+02
536             	3.00445141e+02
537             	3.00445299e+02
538             	3.00445394e+02
539             	3.00445403e+02
540             	3.00445467e+02
541             	3.00445478e+02
542             	3.00445366e+02
543             	3.00445345e+02
544             	3.00445338e+02
545             	3.00445301e+02
546             	3.00445311e+02
547             	3.00445467e+02
548             	3.00445605e+02
549             	3.00445848e+02
550             	3.00445820e+02
551             	3.00445775e+02
552             	3.00445821e+02
553             	3.00445782e+02
554             	3.00445698e+02
555             	3.00445875e+02
556             	3.00446008e+02
557             	3.00446047e+02
558             	3.00446072e+02
559             	3.00445973e+02
560             	3.00445907e+02
561             	3.00445839e+02
562             	3.00445794e+02
563             	3.00445668e+02
564             	3.00445753e+02
565             	3.00445626e+02
566             	3.00445582e+02
567             	3.00445553e+02
568             	3.00445567e+02
569             	3.00445520e+02
570             	3.00445635e+02
571             	3.00445626e+02
572             	3.00445663e+02
573             	3.00445701e+02
574             	3.00445728e+02
575             	3.00445650e+02
576             	3.00445687e+02
577             	3.00445600e+02
578             	3.00445542e+02
579             	3.00445473e+02
580             	3.00445443e+02
581             	3.00445338e+02
582             	3.00445369e+02
583             	3.00445273e+02
584             	3.00445268e+02
585             	3.00445264e+02
586             	3.00445223e+02
587             	3.00445109e+02
588             	3.00445187e+02
589             	3.00445181e+02
590             	3.00445233e+02
591             	3.00445261e+02
592             	3.00445315e+02
593             	3.00445162e+02
594             	3.00445194e+02
595             	3.00445090e+02
596             	3.00445081e+02
597             	3.00445015e+02
598             	3.00445101e+02
599             	3.00445191e+02
600             	3.00445295e+02
601             	3.00445198e+02
602             	3.00445175e+02
603             	3.00445119e+02
604             	3.00445236e+02
605             	3.00445245e+02
606             	3.00445268e+02
607             	3.00445259e+02
608             	3.00445409e+02
609             	3.00445481e+02
610             	3.00445590e+02
611             	3.00445665e+02
612             	3.00445720e+02
613             	3.00445669e+02
614             	3.00445750e+02
615             	3.00445640e+02
616             	3.00445725e+02
617             	3.00445709e+02
618             	3.00445834e+02
619             	3.00445814e+02
620             	3.00445816e+02
621             	3.00445734e+02
