# Region        : cellZone pcb
# Cells         : 465
# Volume        : 9.74378779e-01
# Time          	volAverage(T)
1               	3.00017470e+02
2               	3.00050682e+02
3               	3.00097000e+02
4               	3.00155691e+02
5               	3.00224048e+02
6               	3.00302187e+02
7               	3.00390476e+02
8               	3.00488403e+02
9               	3.00595074e+02
10              	3.00710712e+02
11              	3.00834169e+02
12              	3.00964498e+02
13              	3.01103537e+02
14              	3.01248792e+02
15              	3.01400122e+02
16              	3.01557758e+02
17              	3.01721935e+02
18              	3.01891097e+02
19              	3.02066096e+02
20              	3.02246633e+02
21              	3.02433134e+02
22              	3.02625875e+02
23              	3.02824325e+02
24              	3.03026629e+02
25              	3.03232265e+02
26              	3.03440622e+02
27              	3.03652090e+02
28              	3.03866250e+02
29              	3.04084426e+02
30              	3.04305798e+02
31              	3.04530327e+02
32              	3.04757000e+02
33              	3.04986885e+02
34              	3.05219510e+02
35              	3.05453656e+02
36              	3.05691389e+02
37              	3.05929608e+02
38              	3.06171215e+02
39              	3.06414395e+02
40              	3.06659505e+02
41              	3.06906769e+02
42              	3.07156200e+02
43              	3.07408179e+02
44              	3.07660659e+02
45              	3.07914426e+02
46              	3.08168510e+02
47              	3.08423057e+02
48              	3.08677451e+02
49              	3.08930748e+02
50              	3.09184380e+02
51              	3.09437405e+02
52              	3.09689181e+02
53              	3.09941474e+02
54              	3.10195265e+02
55              	3.10451468e+02
56              	3.10708803e+02
57              	3.10966129e+02
58              	3.11222219e+02
59              	3.11479142e+02
60              	3.11736287e+02
61              	3.11993396e+02
62              	3.12248355e+02
63              	3.12503660e+02
64              	3.12759652e+02
65              	3.13015184e+02
66              	3.13268170e+02
67              	3.13521237e+02
68              	3.13773998e+02
69              	3.14025830e+02
70              	3.14278572e+02
71              	3.14532795e+02
72              	3.14788877e+02
73              	3.15041575e+02
74              	3.15293166e+02
75              	3.15540991e+02
76              	3.15784665e+02
77              	3.16028856e+02
78              	3.16272351e+02
79              	3.16514766e+02
80              	3.16755428e+02
81              	3.16994304e+02
82              	3.17231576e+02
83              	3.17469695e+02
84              	3.17705098e+02
85              	3.17936735e+02
86              	3.18166903e+02
87              	3.18395526e+02
88              	3.18622636e+02
89              	3.18846825e+02
90              	3.19069025e+02
91              	3.19292089e+02
92              	3.19514287e+02
93              	3.19735064e+02
94              	3.19954772e+02
95              	3.20172445e+02
96              	3.20387721e+02
97              	3.20600792e+02
98              	3.20811637e+02
99              	3.21020577e+02
100             	3.21227457e+02
101             	3.21432177e+02
102             	3.21634998e+02
103             	3.21837590e+02
104             	3.22038102e+02
105             	3.22236328e+02
106             	3.22432147e+02
107             	3.22625824e+02
108             	3.22818218e+02
109             	3.23008970e+02
110             	3.23197878e+02
111             	3.23384975e+02
112             	3.23570291e+02
113             	3.23753630e+02
114             	3.23934735e+02
115             	3.24113883e+02
116             	3.24291106e+02
117             	3.24466708e+02
118             	3.24640982e+02
119             	3.24813620e+02
120             	3.24984379e+02
121             	3.25153471e+02
122             	3.25320748e+02
123             	3.25486205e+02
124             	3.25649922e+02
125             	3.25812036e+02
126             	3.25972481e+02
127             	3.26131621e+02
128             	3.26289069e+02
129             	3.26444926e+02
130             	3.26599174e+02
131             	3.26751794e+02
132             	3.26902838e+02
133             	3.27052406e+02
134             	3.27200117e+02
135             	3.27346281e+02
136             	3.27490792e+02
137             	3.27633561e+02
138             	3.27774597e+02
139             	3.27913909e+02
140             	3.28051515e+02
141             	3.28187418e+02
142             	3.28321538e+02
143             	3.28454007e+02
144             	3.28584895e+02
145             	3.28714178e+02
146             	3.28841883e+02
147             	3.28968097e+02
148             	3.29092867e+02
149             	3.29216233e+02
150             	3.29338313e+02
151             	3.29458929e+02
152             	3.29578158e+02
153             	3.29696037e+02
154             	3.29812430e+02
155             	3.29927321e+02
156             	3.30040664e+02
157             	3.30152296e+02
158             	3.30262302e+02
159             	3.30370744e+02
160             	3.30477917e+02
161             	3.30583886e+02
162             	3.30688617e+02
163             	3.30792166e+02
164             	3.30894529e+02
165             	3.30995666e+02
166             	3.31095539e+02
167             	3.31194082e+02
168             	3.31291402e+02
169             	3.31387547e+02
170             	3.31482617e+02
171             	3.31576660e+02
172             	3.31669605e+02
173             	3.31761353e+02
174             	3.31851682e+02
175             	3.31940820e+02
176             	3.32028750e+02
177             	3.32115399e+02
178             	3.32200742e+02
179             	3.32284850e+02
180             	3.32367786e+02
181             	3.32449581e+02
182             	3.32530249e+02
183             	3.32609831e+02
184             	3.32688445e+02
185             	3.32766090e+02
186             	3.32842824e+02
187             	3.32918647e+02
188             	3.32993577e+02
189             	3.33067517e+02
190             	3.33140455e+02
191             	3.33212400e+02
192             	3.33283277e+02
193             	3.33353197e+02
194             	3.33422128e+02
195             	3.33490170e+02
196             	3.33557303e+02
197             	3.33623559e+02
198             	3.33688976e+02
199             	3.33753545e+02
200             	3.33817227e+02
201             	3.33880202e+02
202             	3.33942305e+02
203             	3.34003564e+02
204             	3.34063963e+02
205             	3.34123545e+02
206             	3.34182415e+02
207             	3.34240543e+02
208             	3.34297833e+02
209             	3.34354396e+02
210             	3.34410237e+02
211             	3.34465227e+02
212             	3.34519325e+02
213             	3.34572590e+02
214             	3.34625086e+02
215             	3.34676871e+02
216             	3.34727996e+02
217             	3.34778550e+02
218             	3.34828536e+02
219             	3.34877838e+02
220             	3.34926484e+02
221             	3.34974524e+02
222             	3.35021954e+02
223             	3.35068786e+02
224             	3.35115004e+02
225             	3.35160631e+02
226             	3.35205512e+02
227             	3.35249844e+02
228             	3.35293595e+02
229             	3.35336709e+02
230             	3.35379201e+02
231             	3.35421085e+02
232             	3.35462371e+02
233             	3.35503074e+02
234             	3.35543208e+02
235             	3.35582776e+02
236             	3.35621809e+02
237             	3.35660308e+02
238             	3.35698277e+02
239             	3.35735738e+02
240             	3.35772732e+02
241             	3.35809278e+02
242             	3.35845370e+02
243             	3.35880987e+02
244             	3.35916123e+02
245             	3.35950776e+02
246             	3.35985008e+02
247             	3.36018744e+02
248             	3.36051972e+02
249             	3.36084757e+02
250             	3.36117103e+02
251             	3.36149009e+02
252             	3.36180500e+02
253             	3.36211581e+02
254             	3.36242238e+02
255             	3.36272477e+02
256             	3.36302291e+02
257             	3.36331725e+02
258             	3.36360775e+02
259             	3.36389434e+02
260             	3.36417739e+02
261             	3.36445651e+02
262             	3.36473203e+02
263             	3.36500443e+02
264             	3.36527311e+02
265             	3.36553819e+02
266             	3.36579975e+02
267             	3.36605798e+02
268             	3.36631307e+02
269             	3.36656495e+02
270             	3.36681337e+02
271             	3.36705838e+02
272             	3.36730025e+02
273             	3.36753898e+02
274             	3.36777452e+02
275             	3.36800703e+02
276             	3.36823632e+02
277             	3.36846258e+02
278             	3.36868592e+02
279             	3.36890637e+02
280             	3.36912393e+02
281             	3.36933877e+02
282             	3.36955099e+02
283             	3.36976056e+02
284             	3.36996757e+02
285             	3.37017204e+02
286             	3.37037400e+02
287             	3.37057338e+02
288             	3.37077027e+02
289             	3.37096452e+02
290             	3.37115623e+02
291             	3.37134553e+02
292             	3.37153265e+02
293             	3.37171751e+02
294             	3.37190017e+02
295             	3.37208064e+02
296             	3.37225884e+02
297             	3.37243467e+02
298             	3.37260824e+02
299             	3.37277956e+02
300             	3.37294871e+02
301             	3.37311585e+02
302             	3.37328097e+02
303             	3.37344412e+02
304             	3.37360529e+02
305             	3.37376453e+02
306             	3.37392188e+02
307             	3.37407736e+02
308             	3.37423101e+02
309             	3.37438303e+02
310             	3.37453322e+02
311             	3.37468163e+02
312             	3.37482829e+02
313             	3.37497322e+02
314             	3.37511648e+02
315             	3.37525798e+02
316             	3.37539775e+02
317             	3.37553583e+02
318             	3.37567233e+02
319             	3.37580722e+02
320             	3.37594053e+02
321             	3.37607240e+02
322             	3.37620280e+02
323             	3.37633164e+02
324             	3.37645896e+02
325             	3.37658487e+02
326             	3.37670938e+02
327             	3.37683250e+02
328             	3.37695426e+02
329             	3.37707469e+02
330             	3.37719380e+02
331             	3.37731161e+02
332             	3.37742812e+02
333             	3.37754332e+02
334             	3.37765720e+02
335             	3.37776984e+02
336             	3.37788125e+02
337             	3.37799144e+02
338             	3.37810040e+02
339             	3.37820814e+02
340             	3.37831470e+02
341             	3.37842014e+02
342             	3.37852446e+02
343             	3.37862772e+02
344             	3.37872990e+02
345             	3.37883102e+02
346             	3.37893108e+02
347             	3.37903010e+02
348             	3.37912809e+02
349             	3.37922507e+02
350             	3.37932104e+02
351             	3.37941600e+02
352             	3.37950998e+02
353             	3.37960300e+02
354             	3.37969505e+02
355             	3.37978616e+02
356             	3.37987635e+02
357             	3.37996561e+02
358             	3.38005398e+02
359             	3.38014151e+02
360             	3.38022819e+02
361             	3.38031402e+02
362             	3.38039899e+02
363             	3.38048310e+02
364             	3.38056638e+02
365             	3.38064883e+02
366             	3.38073046e+02
367             	3.38081130e+02
368             	3.38089136e+02
369             	3.38097066e+02
370             	3.38104921e+02
371             	3.38112704e+02
372             	3.38120415e+02
373             	3.38128053e+02
374             	3.38135620e+02
375             	3.38143116e+02
376             	3.38150542e+02
377             	3.38157900e+02
378             	3.38165189e+02
379             	3.38172410e+02
380             	3.38179565e+02
381             	3.38186653e+02
382             	3.38193679e+02
383             	3.38200643e+02
384             	3.38207543e+02
385             	3.38214380e+02
386             	3.38221155e+02
387             	3.38227865e+02
388             	3.38234516e+02
389             	3.38241110e+02
390             	3.38247645e+02
391             	3.38254122e+02
392             	3.38260543e+02
393             	3.38266908e+02
394             	3.38273221e+02
395             	3.38279482e+02
396             	3.38285688e+02
397             	3.38291841e+02
398             	3.38297940e+02
399             	3.38303987e+02
400             	3.38309983e+02
401             	3.38315929e+02
402             	3.38321824e+02
403             	3.38327671e+02
404             	3.38333468e+02
405             	3.38339214e+02
406             	3.38344912e+02
407             	3.38350564e+02
408             	3.38356170e+02
409             	3.38361729e+02
410             	3.38367243e+02
411             	3.38372712e+02
412             	3.38378136e+02
413             	3.38383520e+02
414             	3.38388863e+02
415             	3.38394162e+02
416             	3.38399419e+02
417             	3.38404634e+02
418             	3.38409808e+02
419             	3.38414941e+02
420             	3.38420033e+02
421             	3.38425085e+02
422             	3.38430098e+02
423             	3.38435070e+02
424             	3.38440004e+02
425             	3.38444900e+02
426             	3.38449759e+02
427             	3.38454581e+02
428             	3.38459366e+02
429             	3.38464117e+02
430             	3.38468833e+02
431             	3.38473514e+02
432             	3.38478160e+02
433             	3.38482773e+02
434             	3.38487351e+02
435             	3.38491893e+02
436             	3.38496400e+02
437             	3.38500876e+02
438             	3.38505321e+02
439             	3.38509733e+02
440             	3.38514112e+02
441             	3.38518458e+02
442             	3.38522776e+02
443             	3.38527064e+02
444             	3.38531319e+02
445             	3.38535543e+02
446             	3.38539738e+02
447             	3.38543903e+02
448             	3.38548040e+02
449             	3.38552148e+02
450             	3.38556228e+02
451             	3.38560280e+02
452             	3.38564305e+02
453             	3.38568300e+02
454             	3.38572266e+02
455             	3.38576207e+02
456             	3.38580120e+02
457             	3.38584007e+02
458             	3.38587867e+02
459             	3.38591699e+02
460             	3.38595501e+02
461             	3.38599278e+02
462             	3.38603031e+02
463             	3.38606759e+02
464             	3.38610463e+02
465             	3.38614142e+02
466             	3.38617798e+02
467             	3.38621431e+02
468             	3.38625041e+02
469             	3.38628628e+02
470             	3.38632193e+02
471             	3.38635733e+02
472             	3.38639252e+02
473             	3.38642747e+02
474             	3.38646219e+02
475             	3.38649669e+02
476             	3.38653095e+02
477             	3.38656499e+02
478             	3.38659881e+02
479             	3.38663241e+02
480             	3.38666579e+02
481             	3.38669896e+02
482             	3.38673191e+02
483             	3.38676466e+02
484             	3.38679720e+02
485             	3.38682957e+02
486             	3.38686174e+02
487             	3.38689371e+02
488             	3.38692549e+02
489             	3.38695708e+02
490             	3.38698848e+02
491             	3.38701970e+02
492             	3.38705072e+02
493             	3.38708153e+02
494             	3.38711211e+02
495             	3.38714252e+02
496             	3.38717275e+02
497             	3.38720279e+02
498             	3.38723264e+02
499             	3.38726232e+02
500             	3.38729187e+02
501             	3.38732126e+02
502             	3.38735047e+02
503             	3.38737950e+02
504             	3.38740837e+02
505             	3.38743704e+02
506             	3.38746556e+02
507             	3.38749393e+02
508             	3.38752214e+02
509             	3.38755019e+02
510             	3.38757808e+02
511             	3.38760581e+02
512             	3.38763337e+02
513             	3.38766077e+02
514             	3.38768802e+02
515             	3.38771510e+02
516             	3.38774203e+02
517             	3.38776881e+02
518             	3.38779543e+02
519             	3.38782188e+02
520             	3.38784818e+02
521             	3.38787434e+02
522             	3.38790036e+02
523             	3.38792624e+02
524             	3.38795198e+02
525             	3.38797757e+02
526             	3.38800303e+02
527             	3.38802837e+02
528             	3.38805358e+02
529             	3.38807866e+02
530             	3.38810361e+02
531             	3.38812842e+02
532             	3.38815310e+02
533             	3.38817765e+02
534             	3.38820205e+02
535             	3.38822632e+02
536             	3.38825044e+02
537             	3.38827444e+02
538             	3.38829833e+02
539             	3.38832212e+02
540             	3.38834578e+02
541             	3.38836930e+02
542             	3.38839271e+02
543             	3.38841597e+02
544             	3.38843907e+02
545             	3.38846208e+02
546             	3.38848497e+02
547             	3.38850775e+02
548             	3.38853039e+02
549             	3.38855290e+02
550             	3.38857530e+02
551             	3.38859760e+02
552             	3.38861977e+02
553             	3.38864183e+02
554             	3.38866380e+02
555             	3.38868564e+02
556             	3.38870738e+02
557             	3.38872901e+02
558             	3.38875055e+02
559             	3.38877197e+02
560             	3.38879330e+02
561             	3.38881452e+02
562             	3.38883563e+02
563             	3.38885664e+02
564             	3.38887756e+02
565             	3.38889838e+02
566             	3.38891910e+02
567             	3.38893969e+02
568             	3.38896016e+02
569             	3.38898051e+02
570             	3.38900077e+02
571             	3.38902097e+02
572             	3.38904106e+02
573             	3.38906104e+02
574             	3.38908091e+02
575             	3.38910069e+02
576             	3.38912038e+02
577             	3.38913999e+02
578             	3.38915950e+02
579             	3.38917890e+02
580             	3.38919821e+02
581             	3.38921745e+02
582             	3.38923661e+02
583             	3.38925567e+02
584             	3.38927465e+02
585             	3.38929354e+02
586             	3.38931234e+02
587             	3.38933106e+02
588             	3.38934969e+02
589             	3.38936822e+02
590             	3.38938667e+02
591             	3.38940502e+02
592             	3.38942328e+02
593             	3.38944144e+02
594             	3.38945952e+02
595             	3.38947750e+02
596             	3.38949542e+02
597             	3.38951325e+02
598             	3.38953099e+02
599             	3.38954865e+02
600             	3.38956624e+02
601             	3.38958377e+02
602             	3.38960122e+02
603             	3.38961860e+02
604             	3.38963590e+02
605             	3.38965314e+02
606             	3.38967030e+02
607             	3.38968739e+02
608             	3.38970438e+02
609             	3.38972129e+02
610             	3.38973812e+02
611             	3.38975488e+02
612             	3.38977156e+02
613             	3.38978816e+02
614             	3.38980468e+02
615             	3.38982114e+02
616             	3.38983752e+02
617             	3.38985390e+02
618             	3.38987019e+02
619             	3.38988639e+02
620             	3.38990252e+02
621             	3.38991858e+02
