# Region        : cellZone component_1
# Cells         : 186
# Volume        : 3.26197043e-01
# Time          	volAverage(T)
1               	3.00996876e+02
2               	3.01980938e+02
3               	3.02884615e+02
4               	3.03737803e+02
5               	3.04568221e+02
6               	3.05382811e+02
7               	3.06183571e+02
8               	3.06978281e+02
9               	3.07767874e+02
10              	3.08556812e+02
11              	3.09337801e+02
12              	3.10100132e+02
13              	3.10847780e+02
14              	3.11584967e+02
15              	3.12303217e+02
16              	3.13009351e+02
17              	3.13698983e+02
18              	3.14377271e+02
19              	3.15037994e+02
20              	3.15681701e+02
21              	3.16314854e+02
22              	3.16935347e+02
23              	3.17552894e+02
24              	3.18162527e+02
25              	3.18754266e+02
26              	3.19330691e+02
27              	3.19889133e+02
28              	3.20435774e+02
29              	3.20971123e+02
30              	3.21492800e+02
31              	3.22006217e+02
32              	3.22521244e+02
33              	3.23031070e+02
34              	3.23526611e+02
35              	3.24002259e+02
36              	3.24460749e+02
37              	3.24910624e+02
38              	3.25370926e+02
39              	3.25822206e+02
40              	3.26255892e+02
41              	3.26675577e+02
42              	3.27087283e+02
43              	3.27491449e+02
44              	3.27893354e+02
45              	3.28311767e+02
46              	3.28739425e+02
47              	3.29158680e+02
48              	3.29551049e+02
49              	3.29914557e+02
50              	3.30232610e+02
51              	3.30553166e+02
52              	3.30892281e+02
53              	3.31218490e+02
54              	3.31530530e+02
55              	3.31822958e+02
56              	3.32113904e+02
57              	3.32399195e+02
58              	3.32694095e+02
59              	3.33003086e+02
60              	3.33323155e+02
61              	3.33635674e+02
62              	3.33956357e+02
63              	3.34288324e+02
64              	3.34613674e+02
65              	3.34922475e+02
66              	3.35215687e+02
67              	3.35497777e+02
68              	3.35772507e+02
69              	3.36045924e+02
70              	3.36320586e+02
71              	3.36595478e+02
72              	3.36866722e+02
73              	3.37138187e+02
74              	3.37401678e+02
75              	3.37650039e+02
76              	3.37880006e+02
77              	3.38096803e+02
78              	3.38290276e+02
79              	3.38478377e+02
80              	3.38663993e+02
81              	3.38859241e+02
82              	3.39071127e+02
83              	3.39287084e+02
84              	3.39490574e+02
85              	3.39687050e+02
86              	3.39870666e+02
87              	3.40036921e+02
88              	3.40175479e+02
89              	3.40290733e+02
90              	3.40403703e+02
91              	3.40519696e+02
92              	3.40644184e+02
93              	3.40771333e+02
94              	3.40912754e+02
95              	3.41069370e+02
96              	3.41231781e+02
97              	3.41402409e+02
98              	3.41578572e+02
99              	3.41750020e+02
100             	3.41908991e+02
101             	3.42044695e+02
102             	3.42184167e+02
103             	3.42320395e+02
104             	3.42468468e+02
105             	3.42632817e+02
106             	3.42790507e+02
107             	3.42943708e+02
108             	3.43083571e+02
109             	3.43218223e+02
110             	3.43336789e+02
111             	3.43437062e+02
112             	3.43507755e+02
113             	3.43580698e+02
114             	3.43671373e+02
115             	3.43781235e+02
116             	3.43903313e+02
117             	3.44037631e+02
118             	3.44186861e+02
119             	3.44343537e+02
120             	3.44499867e+02
121             	3.44636460e+02
122             	3.44750430e+02
123             	3.44839957e+02
124             	3.44915252e+02
125             	3.44995938e+02
126             	3.45071253e+02
127             	3.45152414e+02
128             	3.45237591e+02
129             	3.45334876e+02
130             	3.45437921e+02
131             	3.45550180e+02
132             	3.45652985e+02
133             	3.45750193e+02
134             	3.45834269e+02
135             	3.45904687e+02
136             	3.45969337e+02
137             	3.46035709e+02
138             	3.46108020e+02
139             	3.46189271e+02
140             	3.46280527e+02
141             	3.46385614e+02
142             	3.46498027e+02
143             	3.46604262e+02
144             	3.46708453e+02
145             	3.46810666e+02
146             	3.46908937e+02
147             	3.47001881e+02
148             	3.47093040e+02
149             	3.47182268e+02
150             	3.47276440e+02
151             	3.47372119e+02
152             	3.47473857e+02
153             	3.47575008e+02
154             	3.47676647e+02
155             	3.47776624e+02
156             	3.47869361e+02
157             	3.47947122e+02
158             	3.48004179e+02
159             	3.48056400e+02
160             	3.48108842e+02
161             	3.48160636e+02
162             	3.48212606e+02
163             	3.48259854e+02
164             	3.48314832e+02
165             	3.48370137e+02
166             	3.48439868e+02
167             	3.48518236e+02
168             	3.48602465e+02
169             	3.48689253e+02
170             	3.48778002e+02
171             	3.48864258e+02
172             	3.48951414e+02
173             	3.49034307e+02
174             	3.49114835e+02
175             	3.49197492e+02
176             	3.49283761e+02
177             	3.49374054e+02
178             	3.49462040e+02
179             	3.49550538e+02
180             	3.49638745e+02
181             	3.49724475e+02
182             	3.49805313e+02
183             	3.49881673e+02
184             	3.49952616e+02
185             	3.50020241e+02
186             	3.50086443e+02
187             	3.50151949e+02
188             	3.50215980e+02
189             	3.50276454e+02
190             	3.50336037e+02
191             	3.50394190e+02
192             	3.50452382e+02
193             	3.50511601e+02
194             	3.50570434e+02
195             	3.50632878e+02
196             	3.50695612e+02
197             	3.50759815e+02
198             	3.50825291e+02
199             	3.50890827e+02
200             	3.50955568e+02
201             	3.51020259e+02
202             	3.51085893e+02
203             	3.51151413e+02
204             	3.51218189e+02
205             	3.51285257e+02
206             	3.51353382e+02
207             	3.51422534e+02
208             	3.51488221e+02
209             	3.51547788e+02
210             	3.51607259e+02
211             	3.51665662e+02
212             	3.51720200e+02
213             	3.51771207e+02
214             	3.51819274e+02
215             	3.51865259e+02
216             	3.51908833e+02
217             	3.51951129e+02
218             	3.51993738e+02
219             	3.52037994e+02
220             	3.52084373e+02
221             	3.52132400e+02
222             	3.52179216e+02
223             	3.52228554e+02
224             	3.52279503e+02
225             	3.52330469e+02
226             	3.52381107e+02
227             	3.52431681e+02
228             	3.52480976e+02
229             	3.52529828e+02
230             	3.52577747e+02
231             	3.52624920e+02
232             	3.52671288e+02
233             	3.52715911e+02
234             	3.52759481e+02
235             	3.52803935e+02
236             	3.52848173e+02
237             	3.52890684e+02
238             	3.52934359e+02
239             	3.52978147e+02
240             	3.53022622e+02
241             	3.53062969e+02
242             	3.53103177e+02
243             	3.53144133e+02
244             	3.53184482e+02
245             	3.53223267e+02
246             	3.53260865e+02
247             	3.53297904e+02
248             	3.53336015e+02
249             	3.53376165e+02
250             	3.53409811e+02
251             	3.53444162e+02
252             	3.53482598e+02
253             	3.53518934e+02
254             	3.53555182e+02
255             	3.53588444e+02
256             	3.53618835e+02
257             	3.53652191e+02
258             	3.53685276e+02
259             	3.53716319e+02
260             	3.53746829e+02
261             	3.53780568e+02
262             	3.53815768e+02
263             	3.53850353e+02
264             	3.53883324e+02
265             	3.53914930e+02
266             	3.53945584e+02
267             	3.53974082e+02
268             	3.54001337e+02
269             	3.54026480e+02
270             	3.54051089e+02
271             	3.54075335e+02
272             	3.54099673e+02
273             	3.54123543e+02
274             	3.54148556e+02
275             	3.54174231e+02
276             	3.54196652e+02
277             	3.54219882e+02
278             	3.54244501e+02
279             	3.54270943e+02
280             	3.54298337e+02
281             	3.54319347e+02
282             	3.54338548e+02
283             	3.54360375e+02
284             	3.54381808e+02
285             	3.54402061e+02
286             	3.54421777e+02
287             	3.54440408e+02
288             	3.54457369e+02
289             	3.54474980e+02
290             	3.54492405e+02
291             	3.54512244e+02
292             	3.54533196e+02
293             	3.54551230e+02
294             	3.54572366e+02
295             	3.54591801e+02
296             	3.54613163e+02
297             	3.54625249e+02
298             	3.54641606e+02
299             	3.54659548e+02
300             	3.54675148e+02
301             	3.54689505e+02
302             	3.54702557e+02
303             	3.54714786e+02
304             	3.54726670e+02
305             	3.54739491e+02
306             	3.54754224e+02
307             	3.54768499e+02
308             	3.54778450e+02
309             	3.54793292e+02
310             	3.54810907e+02
311             	3.54828312e+02
312             	3.54844584e+02
313             	3.54860554e+02
314             	3.54876606e+02
315             	3.54893603e+02
316             	3.54907112e+02
317             	3.54920534e+02
318             	3.54932855e+02
319             	3.54943297e+02
320             	3.54953507e+02
321             	3.54964593e+02
322             	3.54978168e+02
323             	3.54986461e+02
324             	3.54997445e+02
325             	3.55012087e+02
326             	3.55029327e+02
327             	3.55042346e+02
328             	3.55056746e+02
329             	3.55070241e+02
330             	3.55083028e+02
331             	3.55094627e+02
332             	3.55104178e+02
333             	3.55111719e+02
334             	3.55119435e+02
335             	3.55125315e+02
336             	3.55131270e+02
337             	3.55141453e+02
338             	3.55153432e+02
339             	3.55167656e+02
340             	3.55179008e+02
341             	3.55192644e+02
342             	3.55208489e+02
343             	3.55224562e+02
344             	3.55238946e+02
345             	3.55251855e+02
346             	3.55264990e+02
347             	3.55278704e+02
348             	3.55291756e+02
349             	3.55303384e+02
350             	3.55313568e+02
351             	3.55324542e+02
352             	3.55335830e+02
353             	3.55345577e+02
354             	3.55355890e+02
355             	3.55365818e+02
356             	3.55376242e+02
357             	3.55386963e+02
358             	3.55395757e+02
359             	3.55406036e+02
360             	3.55416401e+02
361             	3.55423581e+02
362             	3.55429962e+02
363             	3.55438047e+02
364             	3.55447316e+02
365             	3.55456514e+02
366             	3.55464817e+02
367             	3.55473053e+02
368             	3.55481936e+02
369             	3.55489135e+02
370             	3.55494836e+02
371             	3.55501086e+02
372             	3.55507465e+02
373             	3.55514582e+02
374             	3.55522367e+02
375             	3.55530087e+02
376             	3.55539777e+02
377             	3.55550677e+02
378             	3.55559002e+02
379             	3.55567249e+02
380             	3.55576427e+02
381             	3.55586085e+02
382             	3.55595790e+02
383             	3.55604756e+02
384             	3.55608686e+02
385             	3.55613575e+02
386             	3.55619686e+02
387             	3.55625751e+02
388             	3.55631436e+02
389             	3.55637019e+02
390             	3.55643580e+02
391             	3.55648172e+02
392             	3.55654443e+02
393             	3.55662905e+02
394             	3.55671235e+02
395             	3.55678668e+02
396             	3.55686734e+02
397             	3.55695099e+02
398             	3.55702008e+02
399             	3.55707492e+02
400             	3.55715442e+02
401             	3.55720508e+02
402             	3.55724470e+02
403             	3.55728205e+02
404             	3.55731824e+02
405             	3.55736602e+02
406             	3.55741067e+02
407             	3.55746009e+02
408             	3.55750709e+02
409             	3.55754497e+02
410             	3.55757936e+02
411             	3.55762915e+02
412             	3.55768511e+02
413             	3.55773465e+02
414             	3.55779896e+02
415             	3.55786726e+02
416             	3.55793791e+02
417             	3.55801300e+02
418             	3.55808835e+02
419             	3.55815980e+02
420             	3.55821088e+02
421             	3.55821774e+02
422             	3.55823846e+02
423             	3.55825679e+02
424             	3.55826877e+02
425             	3.55827872e+02
426             	3.55826868e+02
427             	3.55826624e+02
428             	3.55826637e+02
429             	3.55826764e+02
430             	3.55827272e+02
431             	3.55829745e+02
432             	3.55833729e+02
433             	3.55838912e+02
434             	3.55842817e+02
435             	3.55847718e+02
436             	3.55853618e+02
437             	3.55859274e+02
438             	3.55864053e+02
439             	3.55866828e+02
440             	3.55870172e+02
441             	3.55874188e+02
442             	3.55878051e+02
443             	3.55881809e+02
444             	3.55884401e+02
445             	3.55886751e+02
446             	3.55889269e+02
447             	3.55893900e+02
448             	3.55900105e+02
449             	3.55904703e+02
450             	3.55907380e+02
451             	3.55910655e+02
452             	3.55915351e+02
453             	3.55920255e+02
454             	3.55924834e+02
455             	3.55928471e+02
456             	3.55930939e+02
457             	3.55931770e+02
458             	3.55933219e+02
459             	3.55933425e+02
460             	3.55933523e+02
461             	3.55933797e+02
462             	3.55934448e+02
463             	3.55935834e+02
464             	3.55937493e+02
465             	3.55940634e+02
466             	3.55943565e+02
467             	3.55946121e+02
468             	3.55948454e+02
469             	3.55952347e+02
470             	3.55955528e+02
471             	3.55957864e+02
472             	3.55960061e+02
473             	3.55962737e+02
474             	3.55965479e+02
475             	3.55966766e+02
476             	3.55968013e+02
477             	3.55970241e+02
478             	3.55972319e+02
479             	3.55974023e+02
480             	3.55975661e+02
481             	3.55977104e+02
482             	3.55980026e+02
483             	3.55982942e+02
484             	3.55985385e+02
485             	3.55988485e+02
486             	3.55990703e+02
487             	3.55993054e+02
488             	3.55996459e+02
489             	3.55998896e+02
490             	3.56001329e+02
491             	3.56003790e+02
492             	3.56005836e+02
493             	3.56007753e+02
494             	3.56009898e+02
495             	3.56012347e+02
496             	3.56014112e+02
497             	3.56015664e+02
498             	3.56017334e+02
499             	3.56019085e+02
500             	3.56020465e+02
501             	3.56022140e+02
502             	3.56024114e+02
503             	3.56026334e+02
504             	3.56029216e+02
505             	3.56031382e+02
506             	3.56033226e+02
507             	3.56035990e+02
508             	3.56038507e+02
509             	3.56040839e+02
510             	3.56043107e+02
511             	3.56045658e+02
512             	3.56048857e+02
513             	3.56052333e+02
514             	3.56054701e+02
515             	3.56056863e+02
516             	3.56059810e+02
517             	3.56062577e+02
518             	3.56064824e+02
519             	3.56066627e+02
520             	3.56068324e+02
521             	3.56070229e+02
522             	3.56073057e+02
523             	3.56075612e+02
524             	3.56076225e+02
525             	3.56076726e+02
526             	3.56077932e+02
527             	3.56078755e+02
528             	3.56080336e+02
529             	3.56081406e+02
530             	3.56083044e+02
531             	3.56084228e+02
532             	3.56084782e+02
533             	3.56086408e+02
534             	3.56086732e+02
535             	3.56087200e+02
536             	3.56088285e+02
537             	3.56089498e+02
538             	3.56091262e+02
539             	3.56093608e+02
540             	3.56096690e+02
541             	3.56099109e+02
542             	3.56099505e+02
543             	3.56100638e+02
544             	3.56101990e+02
545             	3.56103256e+02
546             	3.56103609e+02
547             	3.56103133e+02
548             	3.56102702e+02
549             	3.56102391e+02
550             	3.56103334e+02
551             	3.56104693e+02
552             	3.56105650e+02
553             	3.56106628e+02
554             	3.56108931e+02
555             	3.56112044e+02
556             	3.56115398e+02
557             	3.56118271e+02
558             	3.56120249e+02
559             	3.56121220e+02
560             	3.56122379e+02
561             	3.56123328e+02
562             	3.56124009e+02
563             	3.56124497e+02
564             	3.56124850e+02
565             	3.56125189e+02
566             	3.56125678e+02
567             	3.56125616e+02
568             	3.56126018e+02
569             	3.56126736e+02
570             	3.56128277e+02
571             	3.56128589e+02
572             	3.56129204e+02
573             	3.56129350e+02
574             	3.56129594e+02
575             	3.56129334e+02
576             	3.56129500e+02
577             	3.56130030e+02
578             	3.56131008e+02
579             	3.56132028e+02
580             	3.56132487e+02
581             	3.56132693e+02
582             	3.56133496e+02
583             	3.56135484e+02
584             	3.56136203e+02
585             	3.56136740e+02
586             	3.56138415e+02
587             	3.56140203e+02
588             	3.56142806e+02
589             	3.56144423e+02
590             	3.56143607e+02
591             	3.56144007e+02
592             	3.56144995e+02
593             	3.56145513e+02
594             	3.56145729e+02
595             	3.56145620e+02
596             	3.56146191e+02
597             	3.56147966e+02
598             	3.56147720e+02
599             	3.56147512e+02
600             	3.56148172e+02
601             	3.56150537e+02
602             	3.56153869e+02
603             	3.56156478e+02
604             	3.56156280e+02
605             	3.56157626e+02
606             	3.56158033e+02
607             	3.56158407e+02
608             	3.56158027e+02
609             	3.56156782e+02
610             	3.56154741e+02
611             	3.56152475e+02
612             	3.56151339e+02
613             	3.56149829e+02
614             	3.56150892e+02
615             	3.56151019e+02
616             	3.56152615e+02
617             	3.56156460e+02
618             	3.56161779e+02
619             	3.56166636e+02
620             	3.56169011e+02
621             	3.56169351e+02
