# Region        : cellZone component_0
# Cells         : 137
# Volume        : 2.60297980e-01
# Time          	volAverage(T)
1               	3.01252751e+02
2               	3.02476398e+02
3               	3.03579777e+02
4               	3.04616128e+02
5               	3.05625306e+02
6               	3.06618220e+02
7               	3.07595577e+02
8               	3.08566852e+02
9               	3.09535951e+02
10              	3.10502659e+02
11              	3.11452518e+02
12              	3.12378133e+02
13              	3.13291139e+02
14              	3.14189614e+02
15              	3.15071216e+02
16              	3.15954044e+02
17              	3.16828668e+02
18              	3.17688037e+02
19              	3.18533966e+02
20              	3.19369934e+02
21              	3.20198687e+02
22              	3.21019844e+02
23              	3.21829180e+02
24              	3.22624655e+02
25              	3.23405417e+02
26              	3.24179172e+02
27              	3.24954399e+02
28              	3.25702244e+02
29              	3.26404790e+02
30              	3.27082831e+02
31              	3.27752531e+02
32              	3.28401052e+02
33              	3.29032386e+02
34              	3.29662851e+02
35              	3.30286612e+02
36              	3.30904909e+02
37              	3.31527381e+02
38              	3.32149044e+02
39              	3.32763664e+02
40              	3.33370738e+02
41              	3.33971642e+02
42              	3.34564296e+02
43              	3.35146814e+02
44              	3.35725389e+02
45              	3.36312205e+02
46              	3.36908249e+02
47              	3.37506122e+02
48              	3.38089573e+02
49              	3.38633808e+02
50              	3.39181150e+02
51              	3.39716483e+02
52              	3.40244260e+02
53              	3.40765019e+02
54              	3.41282618e+02
55              	3.41799452e+02
56              	3.42310498e+02
57              	3.42812989e+02
58              	3.43304864e+02
59              	3.43784152e+02
60              	3.44249744e+02
61              	3.44701842e+02
62              	3.45153399e+02
63              	3.45600140e+02
64              	3.46030927e+02
65              	3.46450572e+02
66              	3.46843682e+02
67              	3.47231502e+02
68              	3.47616977e+02
69              	3.47999126e+02
70              	3.48374531e+02
71              	3.48742419e+02
72              	3.49102339e+02
73              	3.49459006e+02
74              	3.49813361e+02
75              	3.50163967e+02
76              	3.50513250e+02
77              	3.50861715e+02
78              	3.51204609e+02
79              	3.51546197e+02
80              	3.51882816e+02
81              	3.52207628e+02
82              	3.52515635e+02
83              	3.52812964e+02
84              	3.53099911e+02
85              	3.53375291e+02
86              	3.53645118e+02
87              	3.53910354e+02
88              	3.54173195e+02
89              	3.54434345e+02
90              	3.54692353e+02
91              	3.54948330e+02
92              	3.55201829e+02
93              	3.55449886e+02
94              	3.55692601e+02
95              	3.55929310e+02
96              	3.56159072e+02
97              	3.56381263e+02
98              	3.56596271e+02
99              	3.56806201e+02
100             	3.57011349e+02
101             	3.57212482e+02
102             	3.57407859e+02
103             	3.57595789e+02
104             	3.57780351e+02
105             	3.57960817e+02
106             	3.58133006e+02
107             	3.58300646e+02
108             	3.58463595e+02
109             	3.58621431e+02
110             	3.58775702e+02
111             	3.58927931e+02
112             	3.59079811e+02
113             	3.59227243e+02
114             	3.59371650e+02
115             	3.59516699e+02
116             	3.59657535e+02
117             	3.59795288e+02
118             	3.59930074e+02
119             	3.60061175e+02
120             	3.60188144e+02
121             	3.60310783e+02
122             	3.60429603e+02
123             	3.60545902e+02
124             	3.60659720e+02
125             	3.60770546e+02
126             	3.60876088e+02
127             	3.60979775e+02
128             	3.61081320e+02
129             	3.61179770e+02
130             	3.61274427e+02
131             	3.61365888e+02
132             	3.61454525e+02
133             	3.61540048e+02
134             	3.61625571e+02
135             	3.61707410e+02
136             	3.61789177e+02
137             	3.61869607e+02
138             	3.61948549e+02
139             	3.62025124e+02
140             	3.62098204e+02
141             	3.62167799e+02
142             	3.62234625e+02
143             	3.62297617e+02
144             	3.62358015e+02
145             	3.62415756e+02
146             	3.62471192e+02
147             	3.62524929e+02
148             	3.62578495e+02
149             	3.62631841e+02
150             	3.62683145e+02
151             	3.62734965e+02
152             	3.62784547e+02
153             	3.62831634e+02
154             	3.62876566e+02
155             	3.62920175e+02
156             	3.62961753e+02
157             	3.63001495e+02
158             	3.63039685e+02
159             	3.63075971e+02
160             	3.63111108e+02
161             	3.63144917e+02
162             	3.63177355e+02
163             	3.63208352e+02
164             	3.63237941e+02
165             	3.63266222e+02
166             	3.63293247e+02
167             	3.63318933e+02
168             	3.63343542e+02
169             	3.63367642e+02
170             	3.63391411e+02
171             	3.63415136e+02
172             	3.63438385e+02
173             	3.63460295e+02
174             	3.63480922e+02
175             	3.63500391e+02
176             	3.63518436e+02
177             	3.63534347e+02
178             	3.63548568e+02
179             	3.63561398e+02
180             	3.63572936e+02
181             	3.63583684e+02
182             	3.63594888e+02
183             	3.63606497e+02
184             	3.63618206e+02
185             	3.63628893e+02
186             	3.63638680e+02
187             	3.63648074e+02
188             	3.63656528e+02
189             	3.63664082e+02
190             	3.63670325e+02
191             	3.63675556e+02
192             	3.63679980e+02
193             	3.63683807e+02
194             	3.63687324e+02
195             	3.63690358e+02
196             	3.63693055e+02
197             	3.63695715e+02
198             	3.63698099e+02
199             	3.63700069e+02
200             	3.63701420e+02
201             	3.63702897e+02
202             	3.63703627e+02
203             	3.63703630e+02
204             	3.63703140e+02
205             	3.63702289e+02
206             	3.63701200e+02
207             	3.63699437e+02
208             	3.63696880e+02
209             	3.63693766e+02
210             	3.63689860e+02
211             	3.63685300e+02
212             	3.63680102e+02
213             	3.63674521e+02
214             	3.63668592e+02
215             	3.63662541e+02
216             	3.63656466e+02
217             	3.63650764e+02
218             	3.63645266e+02
219             	3.63639790e+02
220             	3.63634388e+02
221             	3.63628744e+02
222             	3.63622589e+02
223             	3.63616020e+02
224             	3.63608986e+02
225             	3.63601496e+02
226             	3.63593696e+02
227             	3.63585435e+02
228             	3.63576880e+02
229             	3.63568331e+02
230             	3.63559797e+02
231             	3.63551152e+02
232             	3.63542441e+02
233             	3.63534224e+02
234             	3.63525592e+02
235             	3.63516944e+02
236             	3.63508105e+02
237             	3.63498968e+02
238             	3.63489581e+02
239             	3.63479701e+02
240             	3.63469639e+02
241             	3.63459274e+02
242             	3.63449009e+02
243             	3.63438608e+02
244             	3.63428159e+02
245             	3.63417743e+02
246             	3.63407440e+02
247             	3.63397275e+02
248             	3.63387397e+02
249             	3.63377478e+02
250             	3.63367537e+02
251             	3.63357563e+02
252             	3.63347596e+02
253             	3.63337554e+02
254             	3.63327381e+02
255             	3.63317065e+02
256             	3.63306570e+02
257             	3.63295980e+02
258             	3.63285302e+02
259             	3.63274613e+02
260             	3.63263966e+02
261             	3.63253381e+02
262             	3.63242846e+02
263             	3.63232362e+02
264             	3.63221948e+02
265             	3.63211581e+02
266             	3.63201261e+02
267             	3.63191003e+02
268             	3.63180805e+02
269             	3.63170601e+02
270             	3.63160375e+02
271             	3.63150153e+02
272             	3.63139949e+02
273             	3.63129743e+02
274             	3.63119541e+02
275             	3.63109421e+02
276             	3.63099350e+02
277             	3.63089331e+02
278             	3.63079384e+02
279             	3.63069497e+02
280             	3.63059669e+02
281             	3.63049860e+02
282             	3.63040042e+02
283             	3.63030258e+02
284             	3.63020479e+02
285             	3.63010729e+02
286             	3.63001033e+02
287             	3.62991398e+02
288             	3.62981841e+02
289             	3.62972411e+02
290             	3.62963098e+02
291             	3.62953878e+02
292             	3.62944722e+02
293             	3.62935640e+02
294             	3.62926611e+02
295             	3.62917636e+02
296             	3.62908725e+02
297             	3.62899904e+02
298             	3.62891153e+02
299             	3.62882481e+02
300             	3.62873895e+02
301             	3.62865380e+02
302             	3.62856913e+02
303             	3.62848501e+02
304             	3.62840151e+02
305             	3.62831799e+02
306             	3.62823528e+02
307             	3.62815334e+02
308             	3.62807204e+02
309             	3.62799156e+02
310             	3.62791182e+02
311             	3.62783295e+02
312             	3.62775495e+02
313             	3.62767782e+02
314             	3.62760158e+02
315             	3.62752649e+02
316             	3.62745249e+02
317             	3.62737940e+02
318             	3.62730723e+02
319             	3.62723586e+02
320             	3.62716514e+02
321             	3.62709515e+02
322             	3.62702584e+02
323             	3.62695717e+02
324             	3.62688907e+02
325             	3.62682117e+02
326             	3.62675409e+02
327             	3.62668768e+02
328             	3.62662195e+02
329             	3.62655700e+02
330             	3.62649291e+02
331             	3.62642969e+02
332             	3.62636728e+02
333             	3.62630576e+02
334             	3.62624533e+02
335             	3.62618563e+02
336             	3.62612671e+02
337             	3.62606850e+02
338             	3.62601103e+02
339             	3.62595432e+02
340             	3.62589825e+02
341             	3.62584288e+02
342             	3.62578813e+02
343             	3.62573379e+02
344             	3.62568013e+02
345             	3.62562706e+02
346             	3.62557460e+02
347             	3.62552279e+02
348             	3.62547166e+02
349             	3.62542125e+02
350             	3.62537160e+02
351             	3.62532278e+02
352             	3.62527465e+02
353             	3.62522723e+02
354             	3.62518051e+02
355             	3.62513441e+02
356             	3.62508890e+02
357             	3.62504406e+02
358             	3.62499992e+02
359             	3.62495636e+02
360             	3.62491344e+02
361             	3.62487125e+02
362             	3.62482969e+02
363             	3.62478875e+02
364             	3.62474839e+02
365             	3.62470864e+02
366             	3.62466947e+02
367             	3.62463090e+02
368             	3.62459291e+02
369             	3.62455552e+02
370             	3.62451874e+02
371             	3.62448251e+02
372             	3.62444692e+02
373             	3.62441194e+02
374             	3.62437754e+02
375             	3.62434372e+02
376             	3.62431048e+02
377             	3.62427779e+02
378             	3.62424562e+02
379             	3.62421395e+02
380             	3.62418279e+02
381             	3.62415213e+02
382             	3.62412197e+02
383             	3.62409231e+02
384             	3.62406320e+02
385             	3.62403464e+02
386             	3.62400657e+02
387             	3.62397914e+02
388             	3.62395222e+02
389             	3.62392572e+02
390             	3.62389970e+02
391             	3.62387409e+02
392             	3.62384880e+02
393             	3.62382394e+02
394             	3.62379949e+02
395             	3.62377548e+02
396             	3.62375189e+02
397             	3.62372874e+02
398             	3.62370605e+02
399             	3.62368382e+02
400             	3.62366204e+02
401             	3.62364070e+02
402             	3.62361978e+02
403             	3.62359927e+02
404             	3.62357919e+02
405             	3.62355959e+02
406             	3.62354043e+02
407             	3.62352168e+02
408             	3.62350335e+02
409             	3.62348544e+02
410             	3.62346795e+02
411             	3.62345083e+02
412             	3.62343410e+02
413             	3.62341774e+02
414             	3.62340171e+02
415             	3.62338601e+02
416             	3.62337064e+02
417             	3.62335560e+02
418             	3.62334086e+02
419             	3.62332644e+02
420             	3.62331236e+02
421             	3.62329851e+02
422             	3.62328506e+02
423             	3.62327197e+02
424             	3.62325920e+02
425             	3.62324679e+02
426             	3.62323472e+02
427             	3.62322295e+02
428             	3.62321146e+02
429             	3.62320034e+02
430             	3.62318951e+02
431             	3.62317901e+02
432             	3.62316879e+02
433             	3.62315885e+02
434             	3.62314917e+02
435             	3.62313983e+02
436             	3.62313087e+02
437             	3.62312216e+02
438             	3.62311373e+02
439             	3.62310558e+02
440             	3.62309768e+02
441             	3.62308999e+02
442             	3.62308236e+02
443             	3.62307495e+02
444             	3.62306776e+02
445             	3.62306079e+02
446             	3.62305402e+02
447             	3.62304748e+02
448             	3.62304119e+02
449             	3.62303519e+02
450             	3.62302946e+02
451             	3.62302398e+02
452             	3.62301874e+02
453             	3.62301389e+02
454             	3.62300932e+02
455             	3.62300499e+02
456             	3.62300087e+02
457             	3.62299695e+02
458             	3.62299313e+02
459             	3.62298949e+02
460             	3.62298593e+02
461             	3.62298244e+02
462             	3.62297911e+02
463             	3.62297589e+02
464             	3.62297283e+02
465             	3.62296995e+02
466             	3.62296729e+02
467             	3.62296486e+02
468             	3.62296268e+02
469             	3.62296070e+02
470             	3.62295893e+02
471             	3.62295733e+02
472             	3.62295588e+02
473             	3.62295460e+02
474             	3.62295351e+02
475             	3.62295259e+02
476             	3.62295181e+02
477             	3.62295121e+02
478             	3.62295076e+02
479             	3.62295048e+02
480             	3.62295028e+02
481             	3.62295025e+02
482             	3.62295033e+02
483             	3.62295050e+02
484             	3.62295081e+02
485             	3.62295112e+02
486             	3.62295156e+02
487             	3.62295216e+02
488             	3.62295293e+02
489             	3.62295395e+02
490             	3.62295511e+02
491             	3.62295644e+02
492             	3.62295795e+02
493             	3.62295952e+02
494             	3.62296121e+02
495             	3.62296301e+02
496             	3.62296488e+02
497             	3.62296693e+02
498             	3.62296912e+02
499             	3.62297136e+02
500             	3.62297366e+02
501             	3.62297598e+02
502             	3.62297842e+02
503             	3.62298095e+02
504             	3.62298355e+02
505             	3.62298619e+02
506             	3.62298893e+02
507             	3.62299175e+02
508             	3.62299465e+02
509             	3.62299763e+02
510             	3.62300071e+02
511             	3.62300391e+02
512             	3.62300720e+02
513             	3.62301059e+02
514             	3.62301409e+02
515             	3.62301767e+02
516             	3.62302133e+02
517             	3.62302508e+02
518             	3.62302889e+02
519             	3.62303278e+02
520             	3.62303684e+02
521             	3.62304095e+02
522             	3.62304512e+02
523             	3.62304937e+02
524             	3.62305370e+02
525             	3.62305806e+02
526             	3.62306248e+02
527             	3.62306695e+02
528             	3.62307147e+02
529             	3.62307601e+02
530             	3.62308063e+02
531             	3.62308529e+02
532             	3.62309002e+02
533             	3.62309466e+02
534             	3.62309940e+02
535             	3.62310421e+02
536             	3.62310913e+02
537             	3.62311412e+02
538             	3.62311923e+02
539             	3.62312445e+02
540             	3.62312975e+02
541             	3.62313517e+02
542             	3.62314064e+02
543             	3.62314614e+02
544             	3.62315167e+02
545             	3.62315723e+02
546             	3.62316280e+02
547             	3.62316837e+02
548             	3.62317395e+02
549             	3.62317955e+02
550             	3.62318512e+02
551             	3.62319073e+02
552             	3.62319638e+02
553             	3.62320207e+02
554             	3.62320772e+02
555             	3.62321347e+02
556             	3.62321926e+02
557             	3.62322511e+02
558             	3.62323103e+02
559             	3.62323701e+02
560             	3.62324306e+02
561             	3.62324917e+02
562             	3.62325543e+02
563             	3.62326171e+02
564             	3.62326804e+02
565             	3.62327440e+02
566             	3.62328077e+02
567             	3.62328712e+02
568             	3.62329353e+02
569             	3.62329994e+02
570             	3.62330639e+02
571             	3.62331268e+02
572             	3.62331894e+02
573             	3.62332523e+02
574             	3.62333148e+02
575             	3.62333774e+02
576             	3.62334403e+02
577             	3.62335040e+02
578             	3.62335685e+02
579             	3.62336342e+02
580             	3.62337002e+02
581             	3.62337668e+02
582             	3.62338338e+02
583             	3.62339008e+02
584             	3.62339679e+02
585             	3.62340350e+02
586             	3.62341021e+02
587             	3.62341689e+02
588             	3.62342355e+02
589             	3.62343021e+02
590             	3.62343688e+02
591             	3.62344358e+02
592             	3.62345032e+02
593             	3.62345698e+02
594             	3.62346372e+02
595             	3.62347049e+02
596             	3.62347722e+02
597             	3.62348399e+02
598             	3.62349080e+02
599             	3.62349769e+02
600             	3.62350466e+02
601             	3.62351166e+02
602             	3.62351870e+02
603             	3.62352579e+02
604             	3.62353289e+02
605             	3.62354000e+02
606             	3.62354708e+02
607             	3.62355413e+02
608             	3.62356117e+02
609             	3.62356822e+02
610             	3.62357526e+02
611             	3.62358230e+02
612             	3.62358939e+02
613             	3.62359650e+02
614             	3.62360368e+02
615             	3.62361086e+02
616             	3.62361802e+02
617             	3.62362510e+02
618             	3.62363217e+02
619             	3.62363923e+02
620             	3.62364624e+02
621             	3.62365324e+02
