# Region        : cellZone component_3
# Cells         : 113
# Volume        : 2.22377797e-01
# Time          	volAverage(T)
1               	3.01009829e+02
2               	3.02003785e+02
3               	3.02849527e+02
4               	3.03602549e+02
5               	3.04332455e+02
6               	3.05056298e+02
7               	3.05770548e+02
8               	3.06472100e+02
9               	3.07167922e+02
10              	3.07849952e+02
11              	3.08514442e+02
12              	3.09154387e+02
13              	3.09777021e+02
14              	3.10387455e+02
15              	3.10974684e+02
16              	3.11529989e+02
17              	3.12076137e+02
18              	3.12635834e+02
19              	3.13167123e+02
20              	3.13703634e+02
21              	3.14225273e+02
22              	3.14702965e+02
23              	3.15192210e+02
24              	3.15663539e+02
25              	3.16129265e+02
26              	3.16579523e+02
27              	3.17002693e+02
28              	3.17409213e+02
29              	3.17799482e+02
30              	3.18181087e+02
31              	3.18553869e+02
32              	3.18915692e+02
33              	3.19268508e+02
34              	3.19618667e+02
35              	3.19964110e+02
36              	3.20306609e+02
37              	3.20658794e+02
38              	3.20998113e+02
39              	3.21303789e+02
40              	3.21605956e+02
41              	3.21862999e+02
42              	3.22121744e+02
43              	3.22375426e+02
44              	3.22624079e+02
45              	3.22853089e+02
46              	3.23057699e+02
47              	3.23238765e+02
48              	3.23399595e+02
49              	3.23548255e+02
50              	3.23692595e+02
51              	3.23839514e+02
52              	3.23989818e+02
53              	3.24145816e+02
54              	3.24313425e+02
55              	3.24489816e+02
56              	3.24667922e+02
57              	3.24846020e+02
58              	3.25023249e+02
59              	3.25199957e+02
60              	3.25371795e+02
61              	3.25540304e+02
62              	3.25704557e+02
63              	3.25859656e+02
64              	3.26008600e+02
65              	3.26150456e+02
66              	3.26279547e+02
67              	3.26402792e+02
68              	3.26510644e+02
69              	3.26609706e+02
70              	3.26696129e+02
71              	3.26771275e+02
72              	3.26835315e+02
73              	3.26891988e+02
74              	3.26951444e+02
75              	3.27013213e+02
76              	3.27079153e+02
77              	3.27156232e+02
78              	3.27243713e+02
79              	3.27322452e+02
80              	3.27406398e+02
81              	3.27491433e+02
82              	3.27572373e+02
83              	3.27644890e+02
84              	3.27708447e+02
85              	3.27760736e+02
86              	3.27801467e+02
87              	3.27829669e+02
88              	3.27848502e+02
89              	3.27859322e+02
90              	3.27864633e+02
91              	3.27866976e+02
92              	3.27866983e+02
93              	3.27867665e+02
94              	3.27874127e+02
95              	3.27877133e+02
96              	3.27882344e+02
97              	3.27893113e+02
98              	3.27910492e+02
99              	3.27930672e+02
100             	3.27951341e+02
101             	3.27966715e+02
102             	3.27982153e+02
103             	3.27991196e+02
104             	3.27998921e+02
105             	3.28004375e+02
106             	3.28006844e+02
107             	3.28004885e+02
108             	3.27999935e+02
109             	3.27992352e+02
110             	3.27982268e+02
111             	3.27970447e+02
112             	3.27958010e+02
113             	3.27947489e+02
114             	3.27935502e+02
115             	3.27923591e+02
116             	3.27914385e+02
117             	3.27904251e+02
118             	3.27897001e+02
119             	3.27892457e+02
120             	3.27889558e+02
121             	3.27887513e+02
122             	3.27886070e+02
123             	3.27885610e+02
124             	3.27886751e+02
125             	3.27887393e+02
126             	3.27885912e+02
127             	3.27885039e+02
128             	3.27882267e+02
129             	3.27877614e+02
130             	3.27870671e+02
131             	3.27861765e+02
132             	3.27851771e+02
133             	3.27839804e+02
134             	3.27826279e+02
135             	3.27813052e+02
136             	3.27800362e+02
137             	3.27787435e+02
138             	3.27775669e+02
139             	3.27765627e+02
140             	3.27756678e+02
141             	3.27748054e+02
142             	3.27739637e+02
143             	3.27729561e+02
144             	3.27719240e+02
145             	3.27708029e+02
146             	3.27695273e+02
147             	3.27680826e+02
148             	3.27665317e+02
149             	3.27649193e+02
150             	3.27633257e+02
151             	3.27617894e+02
152             	3.27602789e+02
153             	3.27588450e+02
154             	3.27574938e+02
155             	3.27563020e+02
156             	3.27550902e+02
157             	3.27539180e+02
158             	3.27528252e+02
159             	3.27517658e+02
160             	3.27507193e+02
161             	3.27496960e+02
162             	3.27487039e+02
163             	3.27477135e+02
164             	3.27467419e+02
165             	3.27456724e+02
166             	3.27446389e+02
167             	3.27435946e+02
168             	3.27424601e+02
169             	3.27412509e+02
170             	3.27399662e+02
171             	3.27386017e+02
172             	3.27371754e+02
173             	3.27356835e+02
174             	3.27341596e+02
175             	3.27326258e+02
176             	3.27311294e+02
177             	3.27296738e+02
178             	3.27282905e+02
179             	3.27269374e+02
180             	3.27256409e+02
181             	3.27244335e+02
182             	3.27232974e+02
183             	3.27222263e+02
184             	3.27211670e+02
185             	3.27200698e+02
186             	3.27189469e+02
187             	3.27178303e+02
188             	3.27166981e+02
189             	3.27155301e+02
190             	3.27143471e+02
191             	3.27131206e+02
192             	3.27119048e+02
193             	3.27107151e+02
194             	3.27095396e+02
195             	3.27083480e+02
196             	3.27071574e+02
197             	3.27060142e+02
198             	3.27049087e+02
199             	3.27038312e+02
200             	3.27027666e+02
201             	3.27017124e+02
202             	3.27006525e+02
203             	3.26996357e+02
204             	3.26986827e+02
205             	3.26977213e+02
206             	3.26968055e+02
207             	3.26959586e+02
208             	3.26951435e+02
209             	3.26943588e+02
210             	3.26935991e+02
211             	3.26928279e+02
212             	3.26920383e+02
213             	3.26912433e+02
214             	3.26904393e+02
215             	3.26896020e+02
216             	3.26887206e+02
217             	3.26878156e+02
218             	3.26868878e+02
219             	3.26859436e+02
220             	3.26849970e+02
221             	3.26840522e+02
222             	3.26831237e+02
223             	3.26822052e+02
224             	3.26812987e+02
225             	3.26804008e+02
226             	3.26795112e+02
227             	3.26786425e+02
228             	3.26777875e+02
229             	3.26769543e+02
230             	3.26761385e+02
231             	3.26753473e+02
232             	3.26745757e+02
233             	3.26738245e+02
234             	3.26731000e+02
235             	3.26724166e+02
236             	3.26717665e+02
237             	3.26711448e+02
238             	3.26705570e+02
239             	3.26699959e+02
240             	3.26694551e+02
241             	3.26689152e+02
242             	3.26683772e+02
243             	3.26678294e+02
244             	3.26672833e+02
245             	3.26667286e+02
246             	3.26661543e+02
247             	3.26655700e+02
248             	3.26649941e+02
249             	3.26644224e+02
250             	3.26638545e+02
251             	3.26633009e+02
252             	3.26627579e+02
253             	3.26622307e+02
254             	3.26617111e+02
255             	3.26612094e+02
256             	3.26607236e+02
257             	3.26602451e+02
258             	3.26597826e+02
259             	3.26593283e+02
260             	3.26588907e+02
261             	3.26584813e+02
262             	3.26580869e+02
263             	3.26577115e+02
264             	3.26573600e+02
265             	3.26570292e+02
266             	3.26567051e+02
267             	3.26563811e+02
268             	3.26560706e+02
269             	3.26557671e+02
270             	3.26554616e+02
271             	3.26551525e+02
272             	3.26548423e+02
273             	3.26545326e+02
274             	3.26542253e+02
275             	3.26539211e+02
276             	3.26536229e+02
277             	3.26533372e+02
278             	3.26530626e+02
279             	3.26527986e+02
280             	3.26525377e+02
281             	3.26522804e+02
282             	3.26520289e+02
283             	3.26517733e+02
284             	3.26515215e+02
285             	3.26512775e+02
286             	3.26510438e+02
287             	3.26508298e+02
288             	3.26506304e+02
289             	3.26504455e+02
290             	3.26502806e+02
291             	3.26501360e+02
292             	3.26499980e+02
293             	3.26498597e+02
294             	3.26497260e+02
295             	3.26495992e+02
296             	3.26494665e+02
297             	3.26493241e+02
298             	3.26491802e+02
299             	3.26490416e+02
300             	3.26489004e+02
301             	3.26487605e+02
302             	3.26486277e+02
303             	3.26485019e+02
304             	3.26483848e+02
305             	3.26482754e+02
306             	3.26481685e+02
307             	3.26480588e+02
308             	3.26479463e+02
309             	3.26478324e+02
310             	3.26477155e+02
311             	3.26475924e+02
312             	3.26474687e+02
313             	3.26473560e+02
314             	3.26472496e+02
315             	3.26471505e+02
316             	3.26470584e+02
317             	3.26469827e+02
318             	3.26469228e+02
319             	3.26468724e+02
320             	3.26468258e+02
321             	3.26467758e+02
322             	3.26467300e+02
323             	3.26466843e+02
324             	3.26466359e+02
325             	3.26465833e+02
326             	3.26465237e+02
327             	3.26464618e+02
328             	3.26464023e+02
329             	3.26463473e+02
330             	3.26462940e+02
331             	3.26462449e+02
332             	3.26462023e+02
333             	3.26461611e+02
334             	3.26461180e+02
335             	3.26460763e+02
336             	3.26460331e+02
337             	3.26459864e+02
338             	3.26459332e+02
339             	3.26458735e+02
340             	3.26458134e+02
341             	3.26457554e+02
342             	3.26456984e+02
343             	3.26456452e+02
344             	3.26455964e+02
345             	3.26455555e+02
346             	3.26455228e+02
347             	3.26454972e+02
348             	3.26454710e+02
349             	3.26454497e+02
350             	3.26454292e+02
351             	3.26454117e+02
352             	3.26453908e+02
353             	3.26453658e+02
354             	3.26453383e+02
355             	3.26453124e+02
356             	3.26452868e+02
357             	3.26452622e+02
358             	3.26452383e+02
359             	3.26452170e+02
360             	3.26451970e+02
361             	3.26451793e+02
362             	3.26451645e+02
363             	3.26451498e+02
364             	3.26451303e+02
365             	3.26451087e+02
366             	3.26450852e+02
367             	3.26450574e+02
368             	3.26450253e+02
369             	3.26449902e+02
370             	3.26449552e+02
371             	3.26449224e+02
372             	3.26448923e+02
373             	3.26448635e+02
374             	3.26448380e+02
375             	3.26448159e+02
376             	3.26447951e+02
377             	3.26447744e+02
378             	3.26447557e+02
379             	3.26447384e+02
380             	3.26447201e+02
381             	3.26447001e+02
382             	3.26446793e+02
383             	3.26446587e+02
384             	3.26446415e+02
385             	3.26446232e+02
386             	3.26446067e+02
387             	3.26445918e+02
388             	3.26445788e+02
389             	3.26445681e+02
390             	3.26445589e+02
391             	3.26445492e+02
392             	3.26445364e+02
393             	3.26445223e+02
394             	3.26445052e+02
395             	3.26444861e+02
396             	3.26444649e+02
397             	3.26444418e+02
398             	3.26444178e+02
399             	3.26443949e+02
400             	3.26443727e+02
401             	3.26443508e+02
402             	3.26443306e+02
403             	3.26443129e+02
404             	3.26442970e+02
405             	3.26442819e+02
406             	3.26442679e+02
407             	3.26442530e+02
408             	3.26442384e+02
409             	3.26442234e+02
410             	3.26442085e+02
411             	3.26441921e+02
412             	3.26441762e+02
413             	3.26441613e+02
414             	3.26441488e+02
415             	3.26441347e+02
416             	3.26441221e+02
417             	3.26441114e+02
418             	3.26441024e+02
419             	3.26440941e+02
420             	3.26440862e+02
421             	3.26440779e+02
422             	3.26440668e+02
423             	3.26440546e+02
424             	3.26440413e+02
425             	3.26440263e+02
426             	3.26440094e+02
427             	3.26439913e+02
428             	3.26439724e+02
429             	3.26439534e+02
430             	3.26439345e+02
431             	3.26439163e+02
432             	3.26438986e+02
433             	3.26438818e+02
434             	3.26438656e+02
435             	3.26438498e+02
436             	3.26438340e+02
437             	3.26438184e+02
438             	3.26438032e+02
439             	3.26437880e+02
440             	3.26437730e+02
441             	3.26437589e+02
442             	3.26437449e+02
443             	3.26437317e+02
444             	3.26437194e+02
445             	3.26437079e+02
446             	3.26436969e+02
447             	3.26436861e+02
448             	3.26436762e+02
449             	3.26436659e+02
450             	3.26436563e+02
451             	3.26436463e+02
452             	3.26436352e+02
453             	3.26436246e+02
454             	3.26436109e+02
455             	3.26435974e+02
456             	3.26435828e+02
457             	3.26435666e+02
458             	3.26435495e+02
459             	3.26435313e+02
460             	3.26435126e+02
461             	3.26434950e+02
462             	3.26434781e+02
463             	3.26434621e+02
464             	3.26434453e+02
465             	3.26434302e+02
466             	3.26434173e+02
467             	3.26434063e+02
468             	3.26433957e+02
469             	3.26433853e+02
470             	3.26433749e+02
471             	3.26433644e+02
472             	3.26433549e+02
473             	3.26433441e+02
474             	3.26433331e+02
475             	3.26433217e+02
476             	3.26433098e+02
477             	3.26432975e+02
478             	3.26432851e+02
479             	3.26432727e+02
480             	3.26432602e+02
481             	3.26432476e+02
482             	3.26432351e+02
483             	3.26432225e+02
484             	3.26432098e+02
485             	3.26431978e+02
486             	3.26431854e+02
487             	3.26431731e+02
488             	3.26431608e+02
489             	3.26431492e+02
490             	3.26431380e+02
491             	3.26431280e+02
492             	3.26431179e+02
493             	3.26431082e+02
494             	3.26430990e+02
495             	3.26430903e+02
496             	3.26430818e+02
497             	3.26430733e+02
498             	3.26430645e+02
499             	3.26430557e+02
500             	3.26430463e+02
501             	3.26430369e+02
502             	3.26430256e+02
503             	3.26430143e+02
504             	3.26430024e+02
505             	3.26429898e+02
506             	3.26429761e+02
507             	3.26429619e+02
508             	3.26429476e+02
509             	3.26429344e+02
510             	3.26429207e+02
511             	3.26429069e+02
512             	3.26428942e+02
513             	3.26428825e+02
514             	3.26428711e+02
515             	3.26428602e+02
516             	3.26428497e+02
517             	3.26428399e+02
518             	3.26428302e+02
519             	3.26428207e+02
520             	3.26428118e+02
521             	3.26428032e+02
522             	3.26427949e+02
523             	3.26427869e+02
524             	3.26427790e+02
525             	3.26427688e+02
526             	3.26427595e+02
527             	3.26427500e+02
528             	3.26427397e+02
529             	3.26427294e+02
530             	3.26427179e+02
531             	3.26427076e+02
532             	3.26426972e+02
533             	3.26426871e+02
534             	3.26426780e+02
535             	3.26426697e+02
536             	3.26426625e+02
537             	3.26426556e+02
538             	3.26426482e+02
539             	3.26426416e+02
540             	3.26426354e+02
541             	3.26426289e+02
542             	3.26426202e+02
543             	3.26426117e+02
544             	3.26426031e+02
545             	3.26425934e+02
546             	3.26425822e+02
547             	3.26425724e+02
548             	3.26425615e+02
549             	3.26425504e+02
550             	3.26425419e+02
551             	3.26425344e+02
552             	3.26425275e+02
553             	3.26425221e+02
554             	3.26425181e+02
555             	3.26425146e+02
556             	3.26425104e+02
557             	3.26425048e+02
558             	3.26424979e+02
559             	3.26424908e+02
560             	3.26424828e+02
561             	3.26424724e+02
562             	3.26424603e+02
563             	3.26424492e+02
564             	3.26424372e+02
565             	3.26424268e+02
566             	3.26424162e+02
567             	3.26424077e+02
568             	3.26424018e+02
569             	3.26423973e+02
570             	3.26423928e+02
571             	3.26423887e+02
572             	3.26423840e+02
573             	3.26423797e+02
574             	3.26423725e+02
575             	3.26423650e+02
576             	3.26423571e+02
577             	3.26423484e+02
578             	3.26423384e+02
579             	3.26423274e+02
580             	3.26423160e+02
581             	3.26423073e+02
582             	3.26422980e+02
583             	3.26422886e+02
584             	3.26422808e+02
585             	3.26422749e+02
586             	3.26422693e+02
587             	3.26422639e+02
588             	3.26422588e+02
589             	3.26422540e+02
590             	3.26422487e+02
591             	3.26422440e+02
592             	3.26422381e+02
593             	3.26422320e+02
594             	3.26422253e+02
595             	3.26422180e+02
596             	3.26422101e+02
597             	3.26422013e+02
598             	3.26421920e+02
599             	3.26421828e+02
600             	3.26421743e+02
601             	3.26421682e+02
602             	3.26421614e+02
603             	3.26421548e+02
604             	3.26421503e+02
605             	3.26421469e+02
606             	3.26421447e+02
607             	3.26421425e+02
608             	3.26421396e+02
609             	3.26421369e+02
610             	3.26421315e+02
611             	3.26421261e+02
612             	3.26421196e+02
613             	3.26421118e+02
614             	3.26421034e+02
615             	3.26420955e+02
616             	3.26420867e+02
617             	3.26420802e+02
618             	3.26420744e+02
619             	3.26420692e+02
620             	3.26420657e+02
621             	3.26420631e+02
