# Region        : cellZone fluid
# Cells         : 9104
# Volume        : 1.80517171e+01
# Time          	volAverage(T)
1               	3.00000059e+02
2               	3.00000109e+02
3               	3.00000485e+02
4               	3.00001016e+02
5               	3.00001418e+02
6               	3.00001788e+02
7               	3.00002250e+02
8               	3.00002825e+02
9               	3.00003721e+02
10              	3.00004690e+02
11              	3.00005699e+02
12              	3.00006680e+02
13              	3.00007627e+02
14              	3.00008742e+02
15              	3.00009933e+02
16              	3.00011159e+02
17              	3.00012171e+02
18              	3.00013309e+02
19              	3.00014806e+02
20              	3.00016065e+02
21              	3.00017282e+02
22              	3.00018892e+02
23              	3.00020683e+02
24              	3.00022415e+02
25              	3.00023870e+02
26              	3.00025315e+02
27              	3.00027144e+02
28              	3.00029054e+02
29              	3.00031075e+02
30              	3.00032664e+02
31              	3.00034687e+02
32              	3.00037141e+02
33              	3.00039530e+02
34              	3.00041844e+02
35              	3.00043880e+02
36              	3.00046116e+02
37              	3.00048730e+02
38              	3.00050881e+02
39              	3.00053281e+02
40              	3.00056129e+02
41              	3.00059342e+02
42              	3.00062521e+02
43              	3.00064924e+02
44              	3.00068002e+02
45              	3.00070522e+02
46              	3.00073699e+02
47              	3.00076841e+02
48              	3.00079578e+02
49              	3.00082786e+02
50              	3.00085804e+02
51              	3.00088231e+02
52              	3.00090678e+02
53              	3.00092953e+02
54              	3.00096188e+02
55              	3.00098342e+02
56              	3.00100893e+02
57              	3.00104308e+02
58              	3.00108392e+02
59              	3.00110342e+02
60              	3.00113712e+02
61              	3.00116642e+02
62              	3.00121488e+02
63              	3.00124047e+02
64              	3.00125909e+02
65              	3.00128300e+02
66              	3.00131707e+02
67              	3.00135175e+02
68              	3.00136660e+02
69              	3.00138238e+02
70              	3.00142150e+02
71              	3.00145040e+02
72              	3.00147026e+02
73              	3.00148469e+02
74              	3.00150488e+02
75              	3.00152192e+02
76              	3.00154854e+02
77              	3.00157215e+02
78              	3.00159185e+02
79              	3.00162627e+02
80              	3.00165399e+02
81              	3.00168453e+02
82              	3.00170567e+02
83              	3.00173306e+02
84              	3.00175744e+02
85              	3.00179269e+02
86              	3.00180403e+02
87              	3.00182362e+02
88              	3.00183696e+02
89              	3.00185533e+02
90              	3.00187602e+02
91              	3.00189527e+02
92              	3.00192142e+02
93              	3.00194961e+02
94              	3.00197752e+02
95              	3.00200605e+02
96              	3.00203156e+02
97              	3.00205134e+02
98              	3.00207166e+02
99              	3.00208899e+02
100             	3.00210652e+02
101             	3.00212684e+02
102             	3.00214412e+02
103             	3.00215923e+02
104             	3.00217842e+02
105             	3.00219468e+02
106             	3.00221334e+02
107             	3.00223072e+02
108             	3.00224777e+02
109             	3.00226600e+02
110             	3.00228492e+02
111             	3.00230369e+02
112             	3.00232601e+02
113             	3.00234943e+02
114             	3.00237205e+02
115             	3.00239481e+02
116             	3.00241772e+02
117             	3.00243306e+02
118             	3.00245264e+02
119             	3.00247745e+02
120             	3.00249853e+02
121             	3.00251819e+02
122             	3.00253473e+02
123             	3.00255762e+02
124             	3.00257865e+02
125             	3.00259647e+02
126             	3.00261750e+02
127             	3.00263666e+02
128             	3.00265752e+02
129             	3.00267650e+02
130             	3.00269545e+02
131             	3.00271668e+02
132             	3.00273762e+02
133             	3.00275859e+02
134             	3.00277294e+02
135             	3.00279040e+02
136             	3.00280876e+02
137             	3.00282426e+02
138             	3.00283693e+02
139             	3.00284830e+02
140             	3.00285979e+02
141             	3.00286653e+02
142             	3.00288037e+02
143             	3.00288601e+02
144             	3.00289591e+02
145             	3.00290530e+02
146             	3.00291811e+02
147             	3.00293216e+02
148             	3.00294333e+02
149             	3.00295527e+02
150             	3.00296599e+02
151             	3.00297922e+02
152             	3.00299215e+02
153             	3.00300378e+02
154             	3.00301612e+02
155             	3.00302690e+02
156             	3.00303624e+02
157             	3.00304644e+02
158             	3.00305890e+02
159             	3.00307149e+02
160             	3.00308263e+02
161             	3.00309404e+02
162             	3.00310185e+02
163             	3.00311360e+02
164             	3.00312389e+02
165             	3.00313258e+02
166             	3.00313997e+02
167             	3.00314447e+02
168             	3.00314760e+02
169             	3.00315203e+02
170             	3.00315681e+02
171             	3.00316905e+02
172             	3.00317272e+02
173             	3.00317813e+02
174             	3.00318173e+02
175             	3.00318759e+02
176             	3.00319425e+02
177             	3.00320124e+02
178             	3.00320810e+02
179             	3.00321952e+02
180             	3.00322760e+02
181             	3.00323612e+02
182             	3.00324616e+02
183             	3.00325451e+02
184             	3.00326228e+02
185             	3.00327015e+02
186             	3.00327606e+02
187             	3.00328120e+02
188             	3.00328628e+02
189             	3.00329173e+02
190             	3.00329721e+02
191             	3.00330256e+02
192             	3.00330553e+02
193             	3.00330928e+02
194             	3.00331273e+02
195             	3.00331729e+02
196             	3.00332101e+02
197             	3.00332607e+02
198             	3.00333150e+02
199             	3.00333757e+02
200             	3.00334380e+02
201             	3.00334954e+02
202             	3.00335577e+02
203             	3.00336204e+02
204             	3.00336851e+02
205             	3.00337608e+02
206             	3.00338318e+02
207             	3.00338988e+02
208             	3.00339630e+02
209             	3.00340248e+02
210             	3.00340801e+02
211             	3.00341215e+02
212             	3.00342013e+02
213             	3.00342616e+02
214             	3.00343117e+02
215             	3.00343551e+02
216             	3.00344123e+02
217             	3.00344452e+02
218             	3.00344520e+02
219             	3.00344709e+02
220             	3.00344948e+02
221             	3.00345216e+02
222             	3.00345603e+02
223             	3.00346015e+02
224             	3.00346351e+02
225             	3.00346911e+02
226             	3.00347393e+02
227             	3.00347858e+02
228             	3.00348233e+02
229             	3.00348782e+02
230             	3.00349228e+02
231             	3.00349592e+02
232             	3.00349830e+02
233             	3.00350228e+02
234             	3.00350358e+02
235             	3.00350553e+02
236             	3.00350884e+02
237             	3.00351244e+02
238             	3.00351500e+02
239             	3.00351851e+02
240             	3.00352270e+02
241             	3.00352735e+02
242             	3.00353214e+02
243             	3.00353665e+02
244             	3.00353988e+02
245             	3.00354489e+02
246             	3.00354888e+02
247             	3.00355265e+02
248             	3.00355633e+02
249             	3.00355975e+02
250             	3.00356302e+02
251             	3.00356601e+02
252             	3.00356885e+02
253             	3.00357169e+02
254             	3.00357435e+02
255             	3.00357728e+02
256             	3.00358004e+02
257             	3.00358266e+02
258             	3.00358521e+02
259             	3.00358783e+02
260             	3.00359060e+02
261             	3.00359311e+02
262             	3.00359555e+02
263             	3.00359742e+02
264             	3.00359923e+02
265             	3.00360089e+02
266             	3.00360291e+02
267             	3.00360446e+02
268             	3.00360649e+02
269             	3.00360809e+02
270             	3.00361007e+02
271             	3.00361282e+02
272             	3.00361517e+02
273             	3.00361762e+02
274             	3.00362042e+02
275             	3.00362349e+02
276             	3.00362522e+02
277             	3.00362866e+02
278             	3.00363051e+02
279             	3.00363290e+02
280             	3.00363540e+02
281             	3.00363742e+02
282             	3.00363928e+02
283             	3.00364115e+02
284             	3.00364294e+02
285             	3.00364462e+02
286             	3.00364585e+02
287             	3.00364707e+02
288             	3.00364825e+02
289             	3.00364950e+02
290             	3.00365104e+02
291             	3.00365263e+02
292             	3.00365450e+02
293             	3.00365613e+02
294             	3.00365828e+02
295             	3.00366032e+02
296             	3.00366271e+02
297             	3.00366409e+02
298             	3.00366616e+02
299             	3.00366793e+02
300             	3.00367018e+02
301             	3.00367278e+02
302             	3.00367477e+02
303             	3.00367740e+02
304             	3.00367922e+02
305             	3.00368215e+02
306             	3.00368344e+02
307             	3.00368617e+02
308             	3.00368826e+02
309             	3.00369001e+02
310             	3.00369105e+02
311             	3.00369189e+02
312             	3.00369263e+02
313             	3.00369319e+02
314             	3.00369361e+02
315             	3.00369410e+02
316             	3.00369455e+02
317             	3.00369512e+02
318             	3.00369592e+02
319             	3.00369665e+02
320             	3.00369811e+02
321             	3.00369894e+02
322             	3.00370014e+02
323             	3.00370164e+02
324             	3.00370389e+02
325             	3.00370571e+02
326             	3.00370762e+02
327             	3.00370967e+02
328             	3.00371095e+02
329             	3.00371288e+02
330             	3.00371387e+02
331             	3.00371587e+02
332             	3.00371676e+02
333             	3.00371803e+02
334             	3.00371901e+02
335             	3.00371984e+02
336             	3.00372152e+02
337             	3.00372212e+02
338             	3.00372342e+02
339             	3.00372406e+02
340             	3.00372507e+02
341             	3.00372623e+02
342             	3.00372749e+02
343             	3.00372887e+02
344             	3.00373035e+02
345             	3.00373148e+02
346             	3.00373317e+02
347             	3.00373487e+02
348             	3.00373591e+02
349             	3.00373787e+02
350             	3.00373946e+02
351             	3.00374078e+02
352             	3.00374185e+02
353             	3.00374272e+02
354             	3.00374342e+02
355             	3.00374413e+02
356             	3.00374470e+02
357             	3.00374524e+02
358             	3.00374596e+02
359             	3.00374683e+02
360             	3.00374783e+02
361             	3.00374839e+02
362             	3.00374929e+02
363             	3.00375067e+02
364             	3.00375135e+02
365             	3.00375264e+02
366             	3.00375417e+02
367             	3.00375541e+02
368             	3.00375652e+02
369             	3.00375754e+02
370             	3.00375851e+02
371             	3.00375914e+02
372             	3.00375991e+02
373             	3.00376068e+02
374             	3.00376142e+02
375             	3.00376238e+02
376             	3.00376255e+02
377             	3.00376325e+02
378             	3.00376364e+02
379             	3.00376412e+02
380             	3.00376480e+02
381             	3.00376526e+02
382             	3.00376573e+02
383             	3.00376631e+02
384             	3.00376699e+02
385             	3.00376772e+02
386             	3.00376869e+02
387             	3.00376977e+02
388             	3.00377095e+02
389             	3.00377176e+02
390             	3.00377284e+02
391             	3.00377376e+02
392             	3.00377486e+02
393             	3.00377568e+02
394             	3.00377628e+02
395             	3.00377676e+02
396             	3.00377726e+02
397             	3.00377770e+02
398             	3.00377816e+02
399             	3.00377865e+02
400             	3.00377903e+02
401             	3.00377950e+02
402             	3.00377996e+02
403             	3.00378056e+02
404             	3.00378138e+02
405             	3.00378181e+02
406             	3.00378240e+02
407             	3.00378313e+02
408             	3.00378392e+02
409             	3.00378478e+02
410             	3.00378573e+02
411             	3.00378677e+02
412             	3.00378782e+02
413             	3.00378820e+02
414             	3.00378934e+02
415             	3.00379016e+02
416             	3.00379072e+02
417             	3.00379117e+02
418             	3.00379143e+02
419             	3.00379155e+02
420             	3.00379167e+02
421             	3.00379219e+02
422             	3.00379243e+02
423             	3.00379282e+02
424             	3.00379340e+02
425             	3.00379409e+02
426             	3.00379482e+02
427             	3.00379530e+02
428             	3.00379575e+02
429             	3.00379628e+02
430             	3.00379660e+02
431             	3.00379693e+02
432             	3.00379719e+02
433             	3.00379768e+02
434             	3.00379782e+02
435             	3.00379842e+02
436             	3.00379874e+02
437             	3.00379925e+02
438             	3.00379994e+02
439             	3.00380073e+02
440             	3.00380130e+02
441             	3.00380221e+02
442             	3.00380264e+02
443             	3.00380344e+02
444             	3.00380399e+02
445             	3.00380433e+02
446             	3.00380461e+02
447             	3.00380490e+02
448             	3.00380539e+02
449             	3.00380560e+02
450             	3.00380587e+02
451             	3.00380629e+02
452             	3.00380669e+02
453             	3.00380704e+02
454             	3.00380748e+02
455             	3.00380794e+02
456             	3.00380837e+02
457             	3.00380882e+02
458             	3.00380932e+02
459             	3.00380971e+02
460             	3.00381021e+02
461             	3.00381067e+02
462             	3.00381112e+02
463             	3.00381157e+02
464             	3.00381198e+02
465             	3.00381234e+02
466             	3.00381275e+02
467             	3.00381307e+02
468             	3.00381339e+02
469             	3.00381372e+02
470             	3.00381404e+02
471             	3.00381432e+02
472             	3.00381459e+02
473             	3.00381485e+02
474             	3.00381520e+02
475             	3.00381553e+02
476             	3.00381587e+02
477             	3.00381624e+02
478             	3.00381665e+02
479             	3.00381709e+02
480             	3.00381739e+02
481             	3.00381764e+02
482             	3.00381801e+02
483             	3.00381832e+02
484             	3.00381862e+02
485             	3.00381890e+02
486             	3.00381915e+02
487             	3.00381946e+02
488             	3.00381976e+02
489             	3.00382003e+02
490             	3.00382033e+02
491             	3.00382068e+02
492             	3.00382108e+02
493             	3.00382148e+02
494             	3.00382192e+02
495             	3.00382241e+02
496             	3.00382285e+02
497             	3.00382328e+02
498             	3.00382364e+02
499             	3.00382404e+02
500             	3.00382442e+02
501             	3.00382481e+02
502             	3.00382508e+02
503             	3.00382530e+02
504             	3.00382555e+02
505             	3.00382576e+02
506             	3.00382595e+02
507             	3.00382620e+02
508             	3.00382644e+02
509             	3.00382662e+02
510             	3.00382685e+02
511             	3.00382707e+02
512             	3.00382726e+02
513             	3.00382743e+02
514             	3.00382759e+02
515             	3.00382776e+02
516             	3.00382796e+02
517             	3.00382817e+02
518             	3.00382839e+02
519             	3.00382864e+02
520             	3.00382891e+02
521             	3.00382917e+02
522             	3.00382947e+02
523             	3.00382980e+02
524             	3.00383004e+02
525             	3.00383038e+02
526             	3.00383069e+02
527             	3.00383100e+02
528             	3.00383131e+02
529             	3.00383160e+02
530             	3.00383192e+02
531             	3.00383221e+02
532             	3.00383248e+02
533             	3.00383273e+02
534             	3.00383299e+02
535             	3.00383324e+02
536             	3.00383353e+02
537             	3.00383374e+02
538             	3.00383396e+02
539             	3.00383419e+02
540             	3.00383443e+02
541             	3.00383468e+02
542             	3.00383490e+02
543             	3.00383513e+02
544             	3.00383538e+02
545             	3.00383565e+02
546             	3.00383593e+02
547             	3.00383622e+02
548             	3.00383645e+02
549             	3.00383674e+02
550             	3.00383701e+02
551             	3.00383725e+02
552             	3.00383749e+02
553             	3.00383770e+02
554             	3.00383788e+02
555             	3.00383803e+02
556             	3.00383818e+02
557             	3.00383831e+02
558             	3.00383844e+02
559             	3.00383857e+02
560             	3.00383870e+02
561             	3.00383881e+02
562             	3.00383893e+02
563             	3.00383905e+02
564             	3.00383918e+02
565             	3.00383932e+02
566             	3.00383946e+02
567             	3.00383960e+02
568             	3.00383973e+02
569             	3.00383987e+02
570             	3.00384002e+02
571             	3.00384019e+02
572             	3.00384036e+02
573             	3.00384054e+02
574             	3.00384073e+02
575             	3.00384082e+02
576             	3.00384102e+02
577             	3.00384120e+02
578             	3.00384137e+02
579             	3.00384163e+02
580             	3.00384179e+02
581             	3.00384197e+02
582             	3.00384219e+02
583             	3.00384245e+02
584             	3.00384263e+02
585             	3.00384285e+02
586             	3.00384308e+02
587             	3.00384332e+02
588             	3.00384352e+02
589             	3.00384367e+02
590             	3.00384392e+02
591             	3.00384415e+02
592             	3.00384439e+02
593             	3.00384461e+02
594             	3.00384483e+02
595             	3.00384505e+02
596             	3.00384528e+02
597             	3.00384553e+02
598             	3.00384576e+02
599             	3.00384600e+02
600             	3.00384624e+02
601             	3.00384647e+02
602             	3.00384669e+02
603             	3.00384688e+02
604             	3.00384708e+02
605             	3.00384726e+02
606             	3.00384743e+02
607             	3.00384760e+02
608             	3.00384774e+02
609             	3.00384788e+02
610             	3.00384799e+02
611             	3.00384815e+02
612             	3.00384829e+02
613             	3.00384843e+02
614             	3.00384856e+02
615             	3.00384869e+02
616             	3.00384882e+02
617             	3.00384896e+02
618             	3.00384909e+02
619             	3.00384923e+02
620             	3.00384938e+02
621             	3.00384952e+02
