# Region        : cellZone component_1
# Cells         : 122
# Volume        : 2.50261582e-01
# Time          	volAverage(T)
1               	3.00500708e+02
2               	3.00990537e+02
3               	3.01429558e+02
4               	3.01829966e+02
5               	3.02206341e+02
6               	3.02565944e+02
7               	3.02912224e+02
8               	3.03246338e+02
9               	3.03570872e+02
10              	3.03882413e+02
11              	3.04190904e+02
12              	3.04497538e+02
13              	3.04800689e+02
14              	3.05100844e+02
15              	3.05394946e+02
16              	3.05678540e+02
17              	3.05957933e+02
18              	3.06228601e+02
19              	3.06492180e+02
20              	3.06748083e+02
21              	3.06995611e+02
22              	3.07234489e+02
23              	3.07464686e+02
24              	3.07686543e+02
25              	3.07899920e+02
26              	3.08108784e+02
27              	3.08305272e+02
28              	3.08495308e+02
29              	3.08676868e+02
30              	3.08852961e+02
31              	3.09026025e+02
32              	3.09196386e+02
33              	3.09362094e+02
34              	3.09522917e+02
35              	3.09676879e+02
36              	3.09830304e+02
37              	3.09976119e+02
38              	3.10115694e+02
39              	3.10249979e+02
40              	3.10376108e+02
41              	3.10496058e+02
42              	3.10612164e+02
43              	3.10724811e+02
44              	3.10833128e+02
45              	3.10936418e+02
46              	3.11037572e+02
47              	3.11146299e+02
48              	3.11258267e+02
49              	3.11356123e+02
50              	3.11439743e+02
51              	3.11509909e+02
52              	3.11573310e+02
53              	3.11635317e+02
54              	3.11694527e+02
55              	3.11748116e+02
56              	3.11796360e+02
57              	3.11840452e+02
58              	3.11884849e+02
59              	3.11930276e+02
60              	3.11976170e+02
61              	3.12029225e+02
62              	3.12088391e+02
63              	3.12144098e+02
64              	3.12191111e+02
65              	3.12221093e+02
66              	3.12242279e+02
67              	3.12260307e+02
68              	3.12275326e+02
69              	3.12287617e+02
70              	3.12297714e+02
71              	3.12306918e+02
72              	3.12315431e+02
73              	3.12324612e+02
74              	3.12334855e+02
75              	3.12345879e+02
76              	3.12363548e+02
77              	3.12390009e+02
78              	3.12423765e+02
79              	3.12461395e+02
80              	3.12497393e+02
81              	3.12525921e+02
82              	3.12552551e+02
83              	3.12573652e+02
84              	3.12586906e+02
85              	3.12591902e+02
86              	3.12594803e+02
87              	3.12596272e+02
88              	3.12597748e+02
89              	3.12603202e+02
90              	3.12616994e+02
91              	3.12640664e+02
92              	3.12671502e+02
93              	3.12702893e+02
94              	3.12729489e+02
95              	3.12747942e+02
96              	3.12760990e+02
97              	3.12767389e+02
98              	3.12768992e+02
99              	3.12767972e+02
100             	3.12763511e+02
101             	3.12760954e+02
102             	3.12762871e+02
103             	3.12770630e+02
104             	3.12782265e+02
105             	3.12792986e+02
106             	3.12810040e+02
107             	3.12831809e+02
108             	3.12854800e+02
109             	3.12881620e+02
110             	3.12906170e+02
111             	3.12925289e+02
112             	3.12938445e+02
113             	3.12948791e+02
114             	3.12953251e+02
115             	3.12954653e+02
116             	3.12955297e+02
117             	3.12955868e+02
118             	3.12956532e+02
119             	3.12961227e+02
120             	3.12971973e+02
121             	3.12988169e+02
122             	3.13007862e+02
123             	3.13032280e+02
124             	3.13055716e+02
125             	3.13076823e+02
126             	3.13093695e+02
127             	3.13107799e+02
128             	3.13116266e+02
129             	3.13118703e+02
130             	3.13117108e+02
131             	3.13114477e+02
132             	3.13113149e+02
133             	3.13113953e+02
134             	3.13118560e+02
135             	3.13128374e+02
136             	3.13144400e+02
137             	3.13163561e+02
138             	3.13184948e+02
139             	3.13204886e+02
140             	3.13223127e+02
141             	3.13239817e+02
142             	3.13253087e+02
143             	3.13263018e+02
144             	3.13271153e+02
145             	3.13277790e+02
146             	3.13284421e+02
147             	3.13291681e+02
148             	3.13299821e+02
149             	3.13308287e+02
150             	3.13316842e+02
151             	3.13326970e+02
152             	3.13339962e+02
153             	3.13354979e+02
154             	3.13370897e+02
155             	3.13386890e+02
156             	3.13401308e+02
157             	3.13413365e+02
158             	3.13422235e+02
159             	3.13429129e+02
160             	3.13432988e+02
161             	3.13435046e+02
162             	3.13436585e+02
163             	3.13439132e+02
164             	3.13441960e+02
165             	3.13447686e+02
166             	3.13456799e+02
167             	3.13468834e+02
168             	3.13481124e+02
169             	3.13493297e+02
170             	3.13506425e+02
171             	3.13518939e+02
172             	3.13531201e+02
173             	3.13542764e+02
174             	3.13550712e+02
175             	3.13555632e+02
176             	3.13559000e+02
177             	3.13562122e+02
178             	3.13566226e+02
179             	3.13569818e+02
180             	3.13573085e+02
181             	3.13576927e+02
182             	3.13583878e+02
183             	3.13593484e+02
184             	3.13604568e+02
185             	3.13615598e+02
186             	3.13626499e+02
187             	3.13637174e+02
188             	3.13644414e+02
189             	3.13649297e+02
190             	3.13652305e+02
191             	3.13653920e+02
192             	3.13653627e+02
193             	3.13653585e+02
194             	3.13654375e+02
195             	3.13657067e+02
196             	3.13661843e+02
197             	3.13668284e+02
198             	3.13675259e+02
199             	3.13682198e+02
200             	3.13688119e+02
201             	3.13693255e+02
202             	3.13697439e+02
203             	3.13700644e+02
204             	3.13702864e+02
205             	3.13703633e+02
206             	3.13703647e+02
207             	3.13703570e+02
208             	3.13703648e+02
209             	3.13704775e+02
210             	3.13706386e+02
211             	3.13709617e+02
212             	3.13714151e+02
213             	3.13719408e+02
214             	3.13724586e+02
215             	3.13729216e+02
216             	3.13733380e+02
217             	3.13736804e+02
218             	3.13739430e+02
219             	3.13740280e+02
220             	3.13740097e+02
221             	3.13739386e+02
222             	3.13738361e+02
223             	3.13738172e+02
224             	3.13739359e+02
225             	3.13741448e+02
226             	3.13744737e+02
227             	3.13748810e+02
228             	3.13753621e+02
229             	3.13758059e+02
230             	3.13762132e+02
231             	3.13765442e+02
232             	3.13767694e+02
233             	3.13768880e+02
234             	3.13769458e+02
235             	3.13769789e+02
236             	3.13770231e+02
237             	3.13770894e+02
238             	3.13772030e+02
239             	3.13773632e+02
240             	3.13775221e+02
241             	3.13776746e+02
242             	3.13778156e+02
243             	3.13779467e+02
244             	3.13780741e+02
245             	3.13781914e+02
246             	3.13783014e+02
247             	3.13784280e+02
248             	3.13785651e+02
249             	3.13787180e+02
250             	3.13788896e+02
251             	3.13790738e+02
252             	3.13792654e+02
253             	3.13794548e+02
254             	3.13796455e+02
255             	3.13798229e+02
256             	3.13799879e+02
257             	3.13801362e+02
258             	3.13802625e+02
259             	3.13803667e+02
260             	3.13804487e+02
261             	3.13805103e+02
262             	3.13805604e+02
263             	3.13806111e+02
264             	3.13806717e+02
265             	3.13807438e+02
266             	3.13808281e+02
267             	3.13809288e+02
268             	3.13810389e+02
269             	3.13811542e+02
270             	3.13812850e+02
271             	3.13814260e+02
272             	3.13815771e+02
273             	3.13817252e+02
274             	3.13818635e+02
275             	3.13819879e+02
276             	3.13820971e+02
277             	3.13821893e+02
278             	3.13822757e+02
279             	3.13823414e+02
280             	3.13823978e+02
281             	3.13824475e+02
282             	3.13825005e+02
283             	3.13825627e+02
284             	3.13826375e+02
285             	3.13827223e+02
286             	3.13828183e+02
287             	3.13829218e+02
288             	3.13830422e+02
289             	3.13831736e+02
290             	3.13833077e+02
291             	3.13834353e+02
292             	3.13835561e+02
293             	3.13836580e+02
294             	3.13837385e+02
295             	3.13837935e+02
296             	3.13838370e+02
297             	3.13838731e+02
298             	3.13839106e+02
299             	3.13839548e+02
300             	3.13840090e+02
301             	3.13840727e+02
302             	3.13841445e+02
303             	3.13842204e+02
304             	3.13843098e+02
305             	3.13844080e+02
306             	3.13845120e+02
307             	3.13846153e+02
308             	3.13847145e+02
309             	3.13848061e+02
310             	3.13848920e+02
311             	3.13849661e+02
312             	3.13850330e+02
313             	3.13850896e+02
314             	3.13851396e+02
315             	3.13851760e+02
316             	3.13852067e+02
317             	3.13852371e+02
318             	3.13852709e+02
319             	3.13853070e+02
320             	3.13853454e+02
321             	3.13853902e+02
322             	3.13854395e+02
323             	3.13854937e+02
324             	3.13855541e+02
325             	3.13856202e+02
326             	3.13856878e+02
327             	3.13857533e+02
328             	3.13858134e+02
329             	3.13858624e+02
330             	3.13859031e+02
331             	3.13859377e+02
332             	3.13859719e+02
333             	3.13860083e+02
334             	3.13860402e+02
335             	3.13860719e+02
336             	3.13861036e+02
337             	3.13861372e+02
338             	3.13861714e+02
339             	3.13862039e+02
340             	3.13862475e+02
341             	3.13862972e+02
342             	3.13863572e+02
343             	3.13864232e+02
344             	3.13864874e+02
345             	3.13865500e+02
346             	3.13866076e+02
347             	3.13866569e+02
348             	3.13866958e+02
349             	3.13867219e+02
350             	3.13867442e+02
351             	3.13867571e+02
352             	3.13867687e+02
353             	3.13867806e+02
354             	3.13867939e+02
355             	3.13868100e+02
356             	3.13868340e+02
357             	3.13868698e+02
358             	3.13869126e+02
359             	3.13869575e+02
360             	3.13870043e+02
361             	3.13870520e+02
362             	3.13870986e+02
363             	3.13871432e+02
364             	3.13871764e+02
365             	3.13872003e+02
366             	3.13872215e+02
367             	3.13872367e+02
368             	3.13872517e+02
369             	3.13872668e+02
370             	3.13872829e+02
371             	3.13873030e+02
372             	3.13873253e+02
373             	3.13873509e+02
374             	3.13873810e+02
375             	3.13874183e+02
376             	3.13874601e+02
377             	3.13875042e+02
378             	3.13875448e+02
379             	3.13875826e+02
380             	3.13876185e+02
381             	3.13876459e+02
382             	3.13876682e+02
383             	3.13876817e+02
384             	3.13876923e+02
385             	3.13877013e+02
386             	3.13877086e+02
387             	3.13877140e+02
388             	3.13877228e+02
389             	3.13877359e+02
390             	3.13877524e+02
391             	3.13877722e+02
392             	3.13877935e+02
393             	3.13878171e+02
394             	3.13878413e+02
395             	3.13878671e+02
396             	3.13878937e+02
397             	3.13879203e+02
398             	3.13879462e+02
399             	3.13879707e+02
400             	3.13879939e+02
401             	3.13880157e+02
402             	3.13880363e+02
403             	3.13880553e+02
404             	3.13880744e+02
405             	3.13880892e+02
406             	3.13881017e+02
407             	3.13881116e+02
408             	3.13881200e+02
409             	3.13881283e+02
410             	3.13881369e+02
411             	3.13881464e+02
412             	3.13881575e+02
413             	3.13881688e+02
414             	3.13881836e+02
415             	3.13882005e+02
416             	3.13882204e+02
417             	3.13882422e+02
418             	3.13882645e+02
419             	3.13882864e+02
420             	3.13883072e+02
421             	3.13883268e+02
422             	3.13883445e+02
423             	3.13883593e+02
424             	3.13883721e+02
425             	3.13883815e+02
426             	3.13883895e+02
427             	3.13883973e+02
428             	3.13884049e+02
429             	3.13884133e+02
430             	3.13884221e+02
431             	3.13884320e+02
432             	3.13884426e+02
433             	3.13884549e+02
434             	3.13884679e+02
435             	3.13884816e+02
436             	3.13884948e+02
437             	3.13885070e+02
438             	3.13885200e+02
439             	3.13885333e+02
440             	3.13885469e+02
441             	3.13885607e+02
442             	3.13885739e+02
443             	3.13885867e+02
444             	3.13885981e+02
445             	3.13886090e+02
446             	3.13886188e+02
447             	3.13886271e+02
448             	3.13886347e+02
449             	3.13886417e+02
450             	3.13886476e+02
451             	3.13886526e+02
452             	3.13886580e+02
453             	3.13886614e+02
454             	3.13886639e+02
455             	3.13886656e+02
456             	3.13886676e+02
457             	3.13886697e+02
458             	3.13886728e+02
459             	3.13886769e+02
460             	3.13886824e+02
461             	3.13886891e+02
462             	3.13886971e+02
463             	3.13887062e+02
464             	3.13887161e+02
465             	3.13887269e+02
466             	3.13887378e+02
467             	3.13887487e+02
468             	3.13887600e+02
469             	3.13887711e+02
470             	3.13887820e+02
471             	3.13887922e+02
472             	3.13888022e+02
473             	3.13888117e+02
474             	3.13888207e+02
475             	3.13888290e+02
476             	3.13888366e+02
477             	3.13888436e+02
478             	3.13888496e+02
479             	3.13888554e+02
480             	3.13888605e+02
481             	3.13888656e+02
482             	3.13888709e+02
483             	3.13888749e+02
484             	3.13888784e+02
485             	3.13888807e+02
486             	3.13888825e+02
487             	3.13888841e+02
488             	3.13888864e+02
489             	3.13888891e+02
490             	3.13888935e+02
491             	3.13888992e+02
492             	3.13889052e+02
493             	3.13889131e+02
494             	3.13889226e+02
495             	3.13889333e+02
496             	3.13889443e+02
497             	3.13889557e+02
498             	3.13889663e+02
499             	3.13889763e+02
500             	3.13889851e+02
501             	3.13889923e+02
502             	3.13889981e+02
503             	3.13890030e+02
504             	3.13890071e+02
505             	3.13890098e+02
506             	3.13890117e+02
507             	3.13890130e+02
508             	3.13890139e+02
509             	3.13890153e+02
510             	3.13890168e+02
511             	3.13890190e+02
512             	3.13890240e+02
513             	3.13890313e+02
514             	3.13890402e+02
515             	3.13890499e+02
516             	3.13890589e+02
517             	3.13890670e+02
518             	3.13890741e+02
519             	3.13890793e+02
520             	3.13890829e+02
521             	3.13890841e+02
522             	3.13890843e+02
523             	3.13890842e+02
524             	3.13890843e+02
525             	3.13890855e+02
526             	3.13890876e+02
527             	3.13890892e+02
528             	3.13890910e+02
529             	3.13890933e+02
530             	3.13890964e+02
531             	3.13890991e+02
532             	3.13891013e+02
533             	3.13891022e+02
534             	3.13891032e+02
535             	3.13891036e+02
536             	3.13891051e+02
537             	3.13891081e+02
538             	3.13891112e+02
539             	3.13891144e+02
540             	3.13891193e+02
541             	3.13891251e+02
542             	3.13891310e+02
543             	3.13891362e+02
544             	3.13891406e+02
545             	3.13891431e+02
546             	3.13891443e+02
547             	3.13891444e+02
548             	3.13891430e+02
549             	3.13891396e+02
550             	3.13891357e+02
551             	3.13891323e+02
552             	3.13891301e+02
553             	3.13891299e+02
554             	3.13891310e+02
555             	3.13891350e+02
556             	3.13891410e+02
557             	3.13891483e+02
558             	3.13891556e+02
559             	3.13891622e+02
560             	3.13891683e+02
561             	3.13891736e+02
562             	3.13891780e+02
563             	3.13891816e+02
564             	3.13891851e+02
565             	3.13891883e+02
566             	3.13891914e+02
567             	3.13891947e+02
568             	3.13891986e+02
569             	3.13892025e+02
570             	3.13892066e+02
571             	3.13892104e+02
572             	3.13892135e+02
573             	3.13892158e+02
574             	3.13892166e+02
575             	3.13892164e+02
576             	3.13892150e+02
577             	3.13892131e+02
578             	3.13892130e+02
579             	3.13892125e+02
580             	3.13892135e+02
581             	3.13892148e+02
582             	3.13892174e+02
583             	3.13892208e+02
584             	3.13892259e+02
585             	3.13892323e+02
586             	3.13892388e+02
587             	3.13892448e+02
588             	3.13892502e+02
589             	3.13892557e+02
590             	3.13892609e+02
591             	3.13892651e+02
592             	3.13892689e+02
593             	3.13892718e+02
594             	3.13892745e+02
595             	3.13892770e+02
596             	3.13892798e+02
597             	3.13892826e+02
598             	3.13892859e+02
599             	3.13892898e+02
600             	3.13892939e+02
601             	3.13892985e+02
602             	3.13893030e+02
603             	3.13893073e+02
604             	3.13893115e+02
605             	3.13893151e+02
606             	3.13893180e+02
607             	3.13893205e+02
608             	3.13893233e+02
609             	3.13893257e+02
610             	3.13893273e+02
611             	3.13893291e+02
612             	3.13893301e+02
613             	3.13893309e+02
614             	3.13893299e+02
615             	3.13893281e+02
616             	3.13893251e+02
617             	3.13893204e+02
618             	3.13893140e+02
619             	3.13893065e+02
620             	3.13892995e+02
621             	3.13892924e+02
