# Region        : cellZone component_4
# Cells         : 35
# Volume        : 5.22707918e-02
# Time          	volAverage(T)
1               	3.03097673e+02
2               	3.06142241e+02
3               	3.08749776e+02
4               	3.11153739e+02
5               	3.13519860e+02
6               	3.15888325e+02
7               	3.18248220e+02
8               	3.20597366e+02
9               	3.22937041e+02
10              	3.25296705e+02
11              	3.27590665e+02
12              	3.29781427e+02
13              	3.31886192e+02
14              	3.33917325e+02
15              	3.35894521e+02
16              	3.37797424e+02
17              	3.39684259e+02
18              	3.41528736e+02
19              	3.43299192e+02
20              	3.45068645e+02
21              	3.46795432e+02
22              	3.48339806e+02
23              	3.49858868e+02
24              	3.51288819e+02
25              	3.52588409e+02
26              	3.53870150e+02
27              	3.54927466e+02
28              	3.55798276e+02
29              	3.56444318e+02
30              	3.57042204e+02
31              	3.57639021e+02
32              	3.58271335e+02
33              	3.59061185e+02
34              	3.59827884e+02
35              	3.60597632e+02
36              	3.61369702e+02
37              	3.62099183e+02
38              	3.62901369e+02
39              	3.63781852e+02
40              	3.64490985e+02
41              	3.65140611e+02
42              	3.65723851e+02
43              	3.66322188e+02
44              	3.66902213e+02
45              	3.67297226e+02
46              	3.67535808e+02
47              	3.67766812e+02
48              	3.68109803e+02
49              	3.68611520e+02
50              	3.69263800e+02
51              	3.69951795e+02
52              	3.70629663e+02
53              	3.71321241e+02
54              	3.72004360e+02
55              	3.72651918e+02
56              	3.73279136e+02
57              	3.73960853e+02
58              	3.74555853e+02
59              	3.75106525e+02
60              	3.75611860e+02
61              	3.76195192e+02
62              	3.76773048e+02
63              	3.77391666e+02
64              	3.78014967e+02
65              	3.78604096e+02
66              	3.79105152e+02
67              	3.79514584e+02
68              	3.79896322e+02
69              	3.80211391e+02
70              	3.80622007e+02
71              	3.81091447e+02
72              	3.81602760e+02
73              	3.82087956e+02
74              	3.82579851e+02
75              	3.82959702e+02
76              	3.83424435e+02
77              	3.83814000e+02
78              	3.84129665e+02
79              	3.84411099e+02
80              	3.84677877e+02
81              	3.84929281e+02
82              	3.85214721e+02
83              	3.85599766e+02
84              	3.86043104e+02
85              	3.86476358e+02
86              	3.86875226e+02
87              	3.87247006e+02
88              	3.87472203e+02
89              	3.87824806e+02
90              	3.88119377e+02
91              	3.88388589e+02
92              	3.88604958e+02
93              	3.88771060e+02
94              	3.88942624e+02
95              	3.89141789e+02
96              	3.89377506e+02
97              	3.89691254e+02
98              	3.90035025e+02
99              	3.90334994e+02
100             	3.90677561e+02
101             	3.90926175e+02
102             	3.91174400e+02
103             	3.91492224e+02
104             	3.91886725e+02
105             	3.92262169e+02
106             	3.92579596e+02
107             	3.92838394e+02
108             	3.93116433e+02
109             	3.93425726e+02
110             	3.93744058e+02
111             	3.94096912e+02
112             	3.94423202e+02
113             	3.94718612e+02
114             	3.94996461e+02
115             	3.95259871e+02
116             	3.95596348e+02
117             	3.95958549e+02
118             	3.96320364e+02
119             	3.96588880e+02
120             	3.96802640e+02
121             	3.96965919e+02
122             	3.97138138e+02
123             	3.97353212e+02
124             	3.97589611e+02
125             	3.97786665e+02
126             	3.97979940e+02
127             	3.98204518e+02
128             	3.98369542e+02
129             	3.98592546e+02
130             	3.98848470e+02
131             	3.99101633e+02
132             	3.99291202e+02
133             	3.99413394e+02
134             	3.99503823e+02
135             	3.99580729e+02
136             	3.99663984e+02
137             	3.99760419e+02
138             	3.99872726e+02
139             	4.00007239e+02
140             	4.00095400e+02
141             	4.00260969e+02
142             	4.00419374e+02
143             	4.00588140e+02
144             	4.00750225e+02
145             	4.00972405e+02
146             	4.01167288e+02
147             	4.01335823e+02
148             	4.01455381e+02
149             	4.01587881e+02
150             	4.01730189e+02
151             	4.01886030e+02
152             	4.02049326e+02
153             	4.02237240e+02
154             	4.02402802e+02
155             	4.02567791e+02
156             	4.02740240e+02
157             	4.02948098e+02
158             	4.03185608e+02
159             	4.03440894e+02
160             	4.03732316e+02
161             	4.03994608e+02
162             	4.04219834e+02
163             	4.04419132e+02
164             	4.04611695e+02
165             	4.04809958e+02
166             	4.05001096e+02
167             	4.05226516e+02
168             	4.05442568e+02
169             	4.05647177e+02
170             	4.05851856e+02
171             	4.06092606e+02
172             	4.06343175e+02
173             	4.06620589e+02
174             	4.06845512e+02
175             	4.07029627e+02
176             	4.07239705e+02
177             	4.07405712e+02
178             	4.07522921e+02
179             	4.07624803e+02
180             	4.07729170e+02
181             	4.07856821e+02
182             	4.08011479e+02
183             	4.08184376e+02
184             	4.08363508e+02
185             	4.08545801e+02
186             	4.08733324e+02
187             	4.08936148e+02
188             	4.09168579e+02
189             	4.09416671e+02
190             	4.09664164e+02
191             	4.09907365e+02
192             	4.10115219e+02
193             	4.10326054e+02
194             	4.10520265e+02
195             	4.10701467e+02
196             	4.10871196e+02
197             	4.11051397e+02
198             	4.11248311e+02
199             	4.11463335e+02
200             	4.11689725e+02
201             	4.11818254e+02
202             	4.11989166e+02
203             	4.12186646e+02
204             	4.12383145e+02
205             	4.12572793e+02
206             	4.12770606e+02
207             	4.12935226e+02
208             	4.13097512e+02
209             	4.13263115e+02
210             	4.13418961e+02
211             	4.13547905e+02
212             	4.13666805e+02
213             	4.13792509e+02
214             	4.13934747e+02
215             	4.14090328e+02
216             	4.14267947e+02
217             	4.14355652e+02
218             	4.14497919e+02
219             	4.14679036e+02
220             	4.14786422e+02
221             	4.14937439e+02
222             	4.15119974e+02
223             	4.15275910e+02
224             	4.15419335e+02
225             	4.15549843e+02
226             	4.15657412e+02
227             	4.15758805e+02
228             	4.15858086e+02
229             	4.15954970e+02
230             	4.16054250e+02
231             	4.16163747e+02
232             	4.16282324e+02
233             	4.16409036e+02
234             	4.16547514e+02
235             	4.16606227e+02
236             	4.16723388e+02
237             	4.16863700e+02
238             	4.17022167e+02
239             	4.17179037e+02
240             	4.17311945e+02
241             	4.17426259e+02
242             	4.17523450e+02
243             	4.17611045e+02
244             	4.17701824e+02
245             	4.17798312e+02
246             	4.17892140e+02
247             	4.17991877e+02
248             	4.18097424e+02
249             	4.18215035e+02
250             	4.18331929e+02
251             	4.18448349e+02
252             	4.18565246e+02
253             	4.18677677e+02
254             	4.18781988e+02
255             	4.18875972e+02
256             	4.18962558e+02
257             	4.19051223e+02
258             	4.19142358e+02
259             	4.19219109e+02
260             	4.19289298e+02
261             	4.19376121e+02
262             	4.19469157e+02
263             	4.19568209e+02
264             	4.19662918e+02
265             	4.19759436e+02
266             	4.19852476e+02
267             	4.19929937e+02
268             	4.19998749e+02
269             	4.20071061e+02
270             	4.20141717e+02
271             	4.20190569e+02
272             	4.20251945e+02
273             	4.20302604e+02
274             	4.20361565e+02
275             	4.20422675e+02
276             	4.20481149e+02
277             	4.20538030e+02
278             	4.20597443e+02
279             	4.20663803e+02
280             	4.20730072e+02
281             	4.20793359e+02
282             	4.20856707e+02
283             	4.20915928e+02
284             	4.20976675e+02
285             	4.21030948e+02
286             	4.21081074e+02
287             	4.21134965e+02
288             	4.21191367e+02
289             	4.21249207e+02
290             	4.21307336e+02
291             	4.21362353e+02
292             	4.21409211e+02
293             	4.21458591e+02
294             	4.21505132e+02
295             	4.21545771e+02
296             	4.21585158e+02
297             	4.21625640e+02
298             	4.21664896e+02
299             	4.21706070e+02
300             	4.21746782e+02
301             	4.21786127e+02
302             	4.21828832e+02
303             	4.21870899e+02
304             	4.21914848e+02
305             	4.21953486e+02
306             	4.21997276e+02
307             	4.22036256e+02
308             	4.22071579e+02
309             	4.22104274e+02
310             	4.22136194e+02
311             	4.22167026e+02
312             	4.22194944e+02
313             	4.22220647e+02
314             	4.22249008e+02
315             	4.22275649e+02
316             	4.22302492e+02
317             	4.22328650e+02
318             	4.22349554e+02
319             	4.22372470e+02
320             	4.22395767e+02
321             	4.22418328e+02
322             	4.22439573e+02
323             	4.22463469e+02
324             	4.22486943e+02
325             	4.22510325e+02
326             	4.22532183e+02
327             	4.22552873e+02
328             	4.22577056e+02
329             	4.22603317e+02
330             	4.22625061e+02
331             	4.22644330e+02
332             	4.22663578e+02
333             	4.22682460e+02
334             	4.22699329e+02
335             	4.22718853e+02
336             	4.22734146e+02
337             	4.22751004e+02
338             	4.22765539e+02
339             	4.22778421e+02
340             	4.22792092e+02
341             	4.22804958e+02
342             	4.22819204e+02
343             	4.22832463e+02
344             	4.22849491e+02
345             	4.22868864e+02
346             	4.22886309e+02
347             	4.22903127e+02
348             	4.22919116e+02
349             	4.22932044e+02
350             	4.22948653e+02
351             	4.22966248e+02
352             	4.22982052e+02
353             	4.22996031e+02
354             	4.23009398e+02
355             	4.23020080e+02
356             	4.23031818e+02
357             	4.23046297e+02
358             	4.23059622e+02
359             	4.23070936e+02
360             	4.23081578e+02
361             	4.23092292e+02
362             	4.23106134e+02
363             	4.23121003e+02
364             	4.23135768e+02
365             	4.23148534e+02
366             	4.23159513e+02
367             	4.23167573e+02
368             	4.23178997e+02
369             	4.23191483e+02
370             	4.23201636e+02
371             	4.23209872e+02
372             	4.23216870e+02
373             	4.23223578e+02
374             	4.23230291e+02
375             	4.23237342e+02
376             	4.23244577e+02
377             	4.23256462e+02
378             	4.23268723e+02
379             	4.23278639e+02
380             	4.23287207e+02
381             	4.23294307e+02
382             	4.23300158e+02
383             	4.23309265e+02
384             	4.23319367e+02
385             	4.23327026e+02
386             	4.23331962e+02
387             	4.23338080e+02
388             	4.23343975e+02
389             	4.23349261e+02
390             	4.23354556e+02
391             	4.23360016e+02
392             	4.23370268e+02
393             	4.23382066e+02
394             	4.23391787e+02
395             	4.23399772e+02
396             	4.23406807e+02
397             	4.23412581e+02
398             	4.23421693e+02
399             	4.23431908e+02
400             	4.23440072e+02
401             	4.23446829e+02
402             	4.23452283e+02
403             	4.23456571e+02
404             	4.23464916e+02
405             	4.23474844e+02
406             	4.23482105e+02
407             	4.23487528e+02
408             	4.23492012e+02
409             	4.23495547e+02
410             	4.23502850e+02
411             	4.23510918e+02
412             	4.23516674e+02
413             	4.23521594e+02
414             	4.23525722e+02
415             	4.23528810e+02
416             	4.23535750e+02
417             	4.23543890e+02
418             	4.23550763e+02
419             	4.23555375e+02
420             	4.23558621e+02
421             	4.23560943e+02
422             	4.23566839e+02
423             	4.23573325e+02
424             	4.23577752e+02
425             	4.23580496e+02
426             	4.23582111e+02
427             	4.23582759e+02
428             	4.23587047e+02
429             	4.23592982e+02
430             	4.23597704e+02
431             	4.23601302e+02
432             	4.23604171e+02
433             	4.23606043e+02
434             	4.23611612e+02
435             	4.23617981e+02
436             	4.23622624e+02
437             	4.23625823e+02
438             	4.23628076e+02
439             	4.23629239e+02
440             	4.23634130e+02
441             	4.23639983e+02
442             	4.23644216e+02
443             	4.23647057e+02
444             	4.23648987e+02
445             	4.23650005e+02
446             	4.23654938e+02
447             	4.23661031e+02
448             	4.23665647e+02
449             	4.23669048e+02
450             	4.23671602e+02
451             	4.23673208e+02
452             	4.23678541e+02
453             	4.23684710e+02
454             	4.23689075e+02
455             	4.23691857e+02
456             	4.23693387e+02
457             	4.23693707e+02
458             	4.23697462e+02
459             	4.23701920e+02
460             	4.23705394e+02
461             	4.23707766e+02
462             	4.23709130e+02
463             	4.23709481e+02
464             	4.23709525e+02
465             	4.23709891e+02
466             	4.23710356e+02
467             	4.23715105e+02
468             	4.23720982e+02
469             	4.23725179e+02
470             	4.23728009e+02
471             	4.23729944e+02
472             	4.23730972e+02
473             	4.23735865e+02
474             	4.23741832e+02
475             	4.23746287e+02
476             	4.23749544e+02
477             	4.23751992e+02
478             	4.23753573e+02
479             	4.23759077e+02
480             	4.23765637e+02
481             	4.23770633e+02
482             	4.23774254e+02
483             	4.23776879e+02
484             	4.23778503e+02
485             	4.23784023e+02
486             	4.23790493e+02
487             	4.23795320e+02
488             	4.23798463e+02
489             	4.23800498e+02
490             	4.23801467e+02
491             	4.23806189e+02
492             	4.23811766e+02
493             	4.23815554e+02
494             	4.23817842e+02
495             	4.23819101e+02
496             	4.23819432e+02
497             	4.23823561e+02
498             	4.23828688e+02
499             	4.23832194e+02
500             	4.23834315e+02
501             	4.23835478e+02
502             	4.23835635e+02
503             	4.23839605e+02
504             	4.23844458e+02
505             	4.23847495e+02
506             	4.23848983e+02
507             	4.23849341e+02
508             	4.23848583e+02
509             	4.23851542e+02
510             	4.23855445e+02
511             	4.23857806e+02
512             	4.23858663e+02
513             	4.23858581e+02
514             	4.23857623e+02
515             	4.23860616e+02
516             	4.23864681e+02
517             	4.23867095e+02
518             	4.23868137e+02
519             	4.23868262e+02
520             	4.23867475e+02
521             	4.23870599e+02
522             	4.23874746e+02
523             	4.23877286e+02
524             	4.23878528e+02
525             	4.23878885e+02
526             	4.23878349e+02
527             	4.23881811e+02
528             	4.23886237e+02
529             	4.23888979e+02
530             	4.23890312e+02
531             	4.23890671e+02
532             	4.23890048e+02
533             	4.23893259e+02
534             	4.23897430e+02
535             	4.23899892e+02
536             	4.23900938e+02
537             	4.23900984e+02
538             	4.23900065e+02
539             	4.23903037e+02
540             	4.23907006e+02
541             	4.23909263e+02
542             	4.23910100e+02
543             	4.23909962e+02
544             	4.23908837e+02
545             	4.23911524e+02
546             	4.23915137e+02
547             	4.23916936e+02
548             	4.23917264e+02
549             	4.23916517e+02
550             	4.23914670e+02
551             	4.23916520e+02
552             	4.23919283e+02
553             	4.23920223e+02
554             	4.23919714e+02
555             	4.23918259e+02
556             	4.23915835e+02
557             	4.23917254e+02
558             	4.23919752e+02
559             	4.23920669e+02
560             	4.23920388e+02
561             	4.23919310e+02
562             	4.23917385e+02
563             	4.23919384e+02
564             	4.23922491e+02
565             	4.23924034e+02
566             	4.23924334e+02
567             	4.23923721e+02
568             	4.23922185e+02
569             	4.23924498e+02
570             	4.23927804e+02
571             	4.23929380e+02
572             	4.23929524e+02
573             	4.23928687e+02
574             	4.23926873e+02
575             	4.23928766e+02
576             	4.23931543e+02
577             	4.23932553e+02
578             	4.23932180e+02
579             	4.23930821e+02
580             	4.23928477e+02
581             	4.23929913e+02
582             	4.23932311e+02
583             	4.23933017e+02
584             	4.23932451e+02
585             	4.23930992e+02
586             	4.23928629e+02
587             	4.23930165e+02
588             	4.23932807e+02
589             	4.23933844e+02
590             	4.23933690e+02
591             	4.23932712e+02
592             	4.23930875e+02
593             	4.23932969e+02
594             	4.23936136e+02
595             	4.23937682e+02
596             	4.23937943e+02
597             	4.23937349e+02
598             	4.23935878e+02
599             	4.23938279e+02
600             	4.23941701e+02
601             	4.23943443e+02
602             	4.23943849e+02
603             	4.23943307e+02
604             	4.23941788e+02
605             	4.23944087e+02
606             	4.23947336e+02
607             	4.23948823e+02
608             	4.23948902e+02
609             	4.23947957e+02
610             	4.23946015e+02
611             	4.23947854e+02
612             	4.23950655e+02
613             	4.23951737e+02
614             	4.23951475e+02
615             	4.23950252e+02
616             	4.23948083e+02
617             	4.23949758e+02
618             	4.23952457e+02
619             	4.23953511e+02
620             	4.23953294e+02
621             	4.23952206e+02
