# Region        : cellZone component_2
# Cells         : 60
# Volume        : 9.90093620e-02
# Time          	volAverage(T)
1               	3.02916237e+02
2               	3.05746159e+02
3               	3.07756034e+02
4               	3.09392637e+02
5               	3.11160247e+02
6               	3.13096154e+02
7               	3.15001342e+02
8               	3.16848865e+02
9               	3.18691979e+02
10              	3.20552781e+02
11              	3.22380028e+02
12              	3.24133052e+02
13              	3.25784242e+02
14              	3.27336590e+02
15              	3.28746972e+02
16              	3.30105806e+02
17              	3.31292420e+02
18              	3.32388830e+02
19              	3.33541012e+02
20              	3.34737462e+02
21              	3.35940772e+02
22              	3.37077642e+02
23              	3.38172740e+02
24              	3.39201000e+02
25              	3.40197398e+02
26              	3.41164533e+02
27              	3.42128287e+02
28              	3.43095279e+02
29              	3.44039711e+02
30              	3.44949559e+02
31              	3.45893660e+02
32              	3.46802796e+02
33              	3.47641666e+02
34              	3.48404361e+02
35              	3.49078137e+02
36              	3.49699455e+02
37              	3.50281432e+02
38              	3.50811141e+02
39              	3.51273163e+02
40              	3.51666416e+02
41              	3.52020775e+02
42              	3.52364906e+02
43              	3.52734180e+02
44              	3.53107925e+02
45              	3.53468586e+02
46              	3.53819329e+02
47              	3.54125530e+02
48              	3.54407148e+02
49              	3.54646635e+02
50              	3.54875678e+02
51              	3.55072877e+02
52              	3.55273892e+02
53              	3.55475997e+02
54              	3.55658326e+02
55              	3.55869346e+02
56              	3.56115788e+02
57              	3.56406915e+02
58              	3.56719029e+02
59              	3.57033333e+02
60              	3.57353890e+02
61              	3.57641617e+02
62              	3.57883277e+02
63              	3.58132760e+02
64              	3.58399075e+02
65              	3.58656134e+02
66              	3.58891708e+02
67              	3.59073114e+02
68              	3.59248194e+02
69              	3.59402963e+02
70              	3.59594414e+02
71              	3.59802742e+02
72              	3.60022357e+02
73              	3.60247709e+02
74              	3.60472342e+02
75              	3.60683171e+02
76              	3.60890457e+02
77              	3.61091949e+02
78              	3.61290552e+02
79              	3.61485049e+02
80              	3.61622654e+02
81              	3.61780806e+02
82              	3.61924912e+02
83              	3.62051824e+02
84              	3.62166886e+02
85              	3.62270214e+02
86              	3.62362556e+02
87              	3.62448205e+02
88              	3.62523779e+02
89              	3.62598182e+02
90              	3.62670688e+02
91              	3.62741922e+02
92              	3.62830956e+02
93              	3.62881434e+02
94              	3.62939436e+02
95              	3.62994569e+02
96              	3.63076096e+02
97              	3.63172676e+02
98              	3.63273140e+02
99              	3.63376843e+02
100             	3.63483498e+02
101             	3.63591515e+02
102             	3.63690450e+02
103             	3.63790380e+02
104             	3.63879207e+02
105             	3.63962828e+02
106             	3.64030515e+02
107             	3.64084796e+02
108             	3.64126639e+02
109             	3.64154266e+02
110             	3.64172944e+02
111             	3.64190761e+02
112             	3.64207686e+02
113             	3.64223972e+02
114             	3.64236597e+02
115             	3.64246117e+02
116             	3.64259434e+02
117             	3.64290862e+02
118             	3.64297269e+02
119             	3.64303779e+02
120             	3.64324109e+02
121             	3.64345342e+02
122             	3.64349404e+02
123             	3.64326081e+02
124             	3.64322634e+02
125             	3.64290583e+02
126             	3.64271569e+02
127             	3.64263972e+02
128             	3.64262458e+02
129             	3.64253426e+02
130             	3.64256137e+02
131             	3.64259725e+02
132             	3.64258391e+02
133             	3.64254474e+02
134             	3.64252963e+02
135             	3.64256670e+02
136             	3.64258554e+02
137             	3.64249860e+02
138             	3.64242107e+02
139             	3.64234755e+02
140             	3.64223244e+02
141             	3.64176537e+02
142             	3.64150440e+02
143             	3.64107839e+02
144             	3.64082906e+02
145             	3.64076132e+02
146             	3.64059138e+02
147             	3.64040773e+02
148             	3.64038152e+02
149             	3.64022575e+02
150             	3.64000118e+02
151             	3.63983028e+02
152             	3.63970859e+02
153             	3.63964705e+02
154             	3.63960478e+02
155             	3.63944000e+02
156             	3.63902234e+02
157             	3.63884836e+02
158             	3.63876168e+02
159             	3.63869108e+02
160             	3.63857873e+02
161             	3.63844850e+02
162             	3.63830076e+02
163             	3.63817996e+02
164             	3.63803849e+02
165             	3.63781700e+02
166             	3.63758426e+02
167             	3.63739545e+02
168             	3.63718738e+02
169             	3.63702814e+02
170             	3.63662432e+02
171             	3.63626521e+02
172             	3.63602141e+02
173             	3.63585708e+02
174             	3.63572877e+02
175             	3.63560124e+02
176             	3.63544781e+02
177             	3.63532162e+02
178             	3.63522361e+02
179             	3.63502812e+02
180             	3.63476478e+02
181             	3.63446619e+02
182             	3.63424427e+02
183             	3.63394728e+02
184             	3.63359155e+02
185             	3.63320625e+02
186             	3.63284757e+02
187             	3.63258847e+02
188             	3.63238559e+02
189             	3.63218572e+02
190             	3.63200479e+02
191             	3.63181883e+02
192             	3.63160974e+02
193             	3.63109584e+02
194             	3.63080127e+02
195             	3.63063932e+02
196             	3.63055854e+02
197             	3.63052943e+02
198             	3.63037595e+02
199             	3.63007000e+02
200             	3.62980108e+02
201             	3.62961855e+02
202             	3.62946869e+02
203             	3.62928710e+02
204             	3.62915509e+02
205             	3.62903889e+02
206             	3.62891052e+02
207             	3.62878607e+02
208             	3.62863392e+02
209             	3.62846967e+02
210             	3.62833785e+02
211             	3.62822338e+02
212             	3.62807575e+02
213             	3.62787376e+02
214             	3.62771017e+02
215             	3.62753017e+02
216             	3.62734993e+02
217             	3.62711031e+02
218             	3.62685034e+02
219             	3.62664177e+02
220             	3.62647680e+02
221             	3.62635887e+02
222             	3.62620320e+02
223             	3.62607014e+02
224             	3.62595112e+02
225             	3.62583483e+02
226             	3.62573632e+02
227             	3.62562878e+02
228             	3.62554402e+02
229             	3.62546548e+02
230             	3.62534944e+02
231             	3.62522655e+02
232             	3.62512510e+02
233             	3.62500210e+02
234             	3.62485124e+02
235             	3.62470204e+02
236             	3.62456375e+02
237             	3.62446522e+02
238             	3.62432383e+02
239             	3.62416754e+02
240             	3.62402244e+02
241             	3.62389723e+02
242             	3.62379230e+02
243             	3.62369685e+02
244             	3.62355051e+02
245             	3.62346406e+02
246             	3.62331613e+02
247             	3.62323038e+02
248             	3.62314356e+02
249             	3.62307593e+02
250             	3.62298985e+02
251             	3.62282966e+02
252             	3.62267352e+02
253             	3.62253763e+02
254             	3.62242393e+02
255             	3.62232409e+02
256             	3.62220257e+02
257             	3.62212358e+02
258             	3.62206454e+02
259             	3.62200230e+02
260             	3.62192384e+02
261             	3.62184660e+02
262             	3.62177216e+02
263             	3.62170117e+02
264             	3.62163257e+02
265             	3.62156981e+02
266             	3.62151722e+02
267             	3.62146336e+02
268             	3.62139861e+02
269             	3.62133618e+02
270             	3.62128174e+02
271             	3.62123362e+02
272             	3.62118984e+02
273             	3.62115374e+02
274             	3.62112638e+02
275             	3.62112114e+02
276             	3.62109330e+02
277             	3.62106106e+02
278             	3.62103902e+02
279             	3.62102135e+02
280             	3.62100792e+02
281             	3.62099560e+02
282             	3.62098245e+02
283             	3.62096930e+02
284             	3.62095739e+02
285             	3.62094773e+02
286             	3.62094033e+02
287             	3.62091897e+02
288             	3.62091466e+02
289             	3.62091518e+02
290             	3.62091000e+02
291             	3.62089647e+02
292             	3.62087760e+02
293             	3.62086842e+02
294             	3.62084375e+02
295             	3.62081234e+02
296             	3.62077982e+02
297             	3.62074990e+02
298             	3.62073181e+02
299             	3.62071957e+02
300             	3.62070312e+02
301             	3.62068403e+02
302             	3.62066300e+02
303             	3.62064839e+02
304             	3.62063487e+02
305             	3.62061901e+02
306             	3.62060075e+02
307             	3.62058221e+02
308             	3.62056421e+02
309             	3.62054675e+02
310             	3.62054236e+02
311             	3.62052882e+02
312             	3.62051494e+02
313             	3.62050709e+02
314             	3.62050563e+02
315             	3.62050947e+02
316             	3.62051704e+02
317             	3.62053135e+02
318             	3.62055128e+02
319             	3.62057295e+02
320             	3.62058933e+02
321             	3.62060317e+02
322             	3.62061871e+02
323             	3.62063663e+02
324             	3.62065601e+02
325             	3.62067469e+02
326             	3.62068995e+02
327             	3.62070065e+02
328             	3.62072464e+02
329             	3.62074055e+02
330             	3.62075232e+02
331             	3.62075934e+02
332             	3.62077369e+02
333             	3.62078668e+02
334             	3.62080845e+02
335             	3.62083040e+02
336             	3.62084917e+02
337             	3.62086898e+02
338             	3.62088823e+02
339             	3.62090940e+02
340             	3.62093174e+02
341             	3.62095464e+02
342             	3.62097785e+02
343             	3.62100165e+02
344             	3.62102575e+02
345             	3.62104947e+02
346             	3.62107468e+02
347             	3.62109830e+02
348             	3.62112323e+02
349             	3.62115279e+02
350             	3.62118782e+02
351             	3.62122562e+02
352             	3.62126728e+02
353             	3.62131159e+02
354             	3.62135272e+02
355             	3.62140422e+02
356             	3.62145286e+02
357             	3.62150951e+02
358             	3.62156804e+02
359             	3.62162481e+02
360             	3.62167954e+02
361             	3.62173137e+02
362             	3.62178213e+02
363             	3.62183199e+02
364             	3.62188128e+02
365             	3.62193133e+02
366             	3.62198187e+02
367             	3.62203093e+02
368             	3.62208206e+02
369             	3.62213415e+02
370             	3.62218381e+02
371             	3.62223147e+02
372             	3.62228018e+02
373             	3.62233126e+02
374             	3.62238353e+02
375             	3.62243613e+02
376             	3.62248959e+02
377             	3.62254432e+02
378             	3.62259406e+02
379             	3.62264979e+02
380             	3.62270787e+02
381             	3.62275611e+02
382             	3.62281220e+02
383             	3.62287135e+02
384             	3.62292896e+02
385             	3.62298497e+02
386             	3.62304096e+02
387             	3.62309873e+02
388             	3.62315668e+02
389             	3.62321282e+02
390             	3.62326923e+02
391             	3.62332710e+02
392             	3.62338616e+02
393             	3.62344610e+02
394             	3.62350710e+02
395             	3.62356939e+02
396             	3.62363292e+02
397             	3.62369835e+02
398             	3.62376740e+02
399             	3.62383552e+02
400             	3.62390331e+02
401             	3.62397322e+02
402             	3.62404542e+02
403             	3.62411881e+02
404             	3.62419294e+02
405             	3.62426772e+02
406             	3.62434357e+02
407             	3.62441952e+02
408             	3.62449581e+02
409             	3.62457481e+02
410             	3.62465566e+02
411             	3.62473729e+02
412             	3.62481326e+02
413             	3.62489902e+02
414             	3.62498885e+02
415             	3.62508093e+02
416             	3.62517228e+02
417             	3.62525642e+02
418             	3.62534020e+02
419             	3.62542660e+02
420             	3.62551713e+02
421             	3.62561344e+02
422             	3.62570276e+02
423             	3.62579021e+02
424             	3.62587929e+02
425             	3.62596992e+02
426             	3.62606105e+02
427             	3.62615185e+02
428             	3.62624190e+02
429             	3.62633149e+02
430             	3.62642190e+02
431             	3.62651360e+02
432             	3.62660420e+02
433             	3.62669492e+02
434             	3.62678648e+02
435             	3.62687935e+02
436             	3.62697513e+02
437             	3.62706740e+02
438             	3.62716163e+02
439             	3.62725740e+02
440             	3.62735307e+02
441             	3.62744789e+02
442             	3.62754187e+02
443             	3.62763558e+02
444             	3.62773079e+02
445             	3.62782794e+02
446             	3.62792683e+02
447             	3.62802441e+02
448             	3.62812198e+02
449             	3.62822024e+02
450             	3.62832076e+02
451             	3.62842294e+02
452             	3.62852712e+02
453             	3.62863398e+02
454             	3.62874267e+02
455             	3.62885349e+02
456             	3.62896639e+02
457             	3.62908056e+02
458             	3.62919522e+02
459             	3.62930960e+02
460             	3.62942478e+02
461             	3.62954162e+02
462             	3.62965993e+02
463             	3.62977991e+02
464             	3.62989993e+02
465             	3.63002258e+02
466             	3.63014453e+02
467             	3.63026657e+02
468             	3.63038873e+02
469             	3.63051297e+02
470             	3.63064095e+02
471             	3.63077097e+02
472             	3.63090130e+02
473             	3.63103237e+02
474             	3.63116406e+02
475             	3.63129673e+02
476             	3.63142900e+02
477             	3.63156356e+02
478             	3.63169788e+02
479             	3.63183263e+02
480             	3.63196566e+02
481             	3.63209816e+02
482             	3.63223149e+02
483             	3.63236423e+02
484             	3.63249696e+02
485             	3.63262976e+02
486             	3.63276275e+02
487             	3.63289600e+02
488             	3.63302772e+02
489             	3.63316031e+02
490             	3.63329282e+02
491             	3.63342498e+02
492             	3.63355693e+02
493             	3.63369177e+02
494             	3.63382487e+02
495             	3.63395720e+02
496             	3.63408972e+02
497             	3.63422309e+02
498             	3.63435392e+02
499             	3.63448820e+02
500             	3.63462356e+02
501             	3.63475783e+02
502             	3.63489073e+02
503             	3.63502298e+02
504             	3.63515501e+02
505             	3.63528726e+02
506             	3.63541959e+02
507             	3.63555205e+02
508             	3.63568469e+02
509             	3.63581754e+02
510             	3.63595016e+02
511             	3.63608189e+02
512             	3.63621351e+02
513             	3.63634486e+02
514             	3.63647676e+02
515             	3.63661107e+02
516             	3.63674445e+02
517             	3.63687923e+02
518             	3.63701863e+02
519             	3.63715376e+02
520             	3.63728783e+02
521             	3.63742344e+02
522             	3.63756104e+02
523             	3.63770061e+02
524             	3.63784188e+02
525             	3.63798222e+02
526             	3.63811943e+02
527             	3.63825634e+02
528             	3.63839209e+02
529             	3.63852562e+02
530             	3.63866281e+02
531             	3.63879670e+02
532             	3.63892991e+02
533             	3.63906253e+02
534             	3.63918548e+02
535             	3.63931587e+02
536             	3.63944711e+02
537             	3.63957570e+02
538             	3.63970196e+02
539             	3.63982701e+02
540             	3.63995096e+02
541             	3.64007486e+02
542             	3.64020575e+02
543             	3.64033028e+02
544             	3.64045063e+02
545             	3.64057244e+02
546             	3.64069559e+02
547             	3.64081850e+02
548             	3.64093968e+02
549             	3.64105752e+02
550             	3.64117601e+02
551             	3.64129697e+02
552             	3.64142021e+02
553             	3.64154300e+02
554             	3.64166093e+02
555             	3.64177921e+02
556             	3.64189660e+02
557             	3.64201301e+02
558             	3.64212913e+02
559             	3.64224202e+02
560             	3.64235308e+02
561             	3.64246179e+02
562             	3.64256677e+02
563             	3.64266875e+02
564             	3.64276841e+02
565             	3.64286686e+02
566             	3.64296385e+02
567             	3.64306027e+02
568             	3.64315586e+02
569             	3.64325052e+02
570             	3.64334747e+02
571             	3.64344067e+02
572             	3.64353220e+02
573             	3.64362482e+02
574             	3.64371781e+02
575             	3.64381229e+02
576             	3.64390390e+02
577             	3.64399400e+02
578             	3.64408336e+02
579             	3.64417159e+02
580             	3.64425428e+02
581             	3.64434207e+02
582             	3.64443042e+02
583             	3.64451629e+02
584             	3.64459960e+02
585             	3.64468168e+02
586             	3.64476215e+02
587             	3.64484144e+02
588             	3.64492024e+02
589             	3.64499867e+02
590             	3.64507644e+02
591             	3.64515583e+02
592             	3.64523222e+02
593             	3.64530721e+02
594             	3.64538207e+02
595             	3.64545660e+02
596             	3.64553015e+02
597             	3.64560232e+02
598             	3.64567339e+02
599             	3.64574320e+02
600             	3.64581112e+02
601             	3.64587805e+02
602             	3.64594374e+02
603             	3.64600839e+02
604             	3.64607184e+02
605             	3.64613437e+02
606             	3.64619603e+02
607             	3.64625677e+02
608             	3.64631649e+02
609             	3.64637109e+02
610             	3.64642830e+02
611             	3.64648590e+02
612             	3.64654168e+02
613             	3.64659598e+02
614             	3.64664990e+02
615             	3.64670435e+02
616             	3.64675748e+02
617             	3.64680968e+02
618             	3.64686291e+02
619             	3.64691436e+02
620             	3.64696493e+02
621             	3.64701525e+02
