# Region        : cellZone component_3
# Cells         : 168
# Volume        : 2.97673633e-01
# Time          	volAverage(T)
1               	3.00479104e+02
2               	3.00950381e+02
3               	3.01366224e+02
4               	3.01739898e+02
5               	3.02091136e+02
6               	3.02427132e+02
7               	3.02748994e+02
8               	3.03057353e+02
9               	3.03354374e+02
10              	3.03642089e+02
11              	3.03921509e+02
12              	3.04196038e+02
13              	3.04463199e+02
14              	3.04720436e+02
15              	3.04964037e+02
16              	3.05198536e+02
17              	3.05429131e+02
18              	3.05659080e+02
19              	3.05888166e+02
20              	3.06113495e+02
21              	3.06333398e+02
22              	3.06547964e+02
23              	3.06752791e+02
24              	3.06948153e+02
25              	3.07133140e+02
26              	3.07309198e+02
27              	3.07476928e+02
28              	3.07637114e+02
29              	3.07789666e+02
30              	3.07934635e+02
31              	3.08072746e+02
32              	3.08202543e+02
33              	3.08324694e+02
34              	3.08445323e+02
35              	3.08567765e+02
36              	3.08689450e+02
37              	3.08815246e+02
38              	3.08941898e+02
39              	3.09069154e+02
40              	3.09194785e+02
41              	3.09314810e+02
42              	3.09428295e+02
43              	3.09533947e+02
44              	3.09635627e+02
45              	3.09724913e+02
46              	3.09805091e+02
47              	3.09877242e+02
48              	3.09944399e+02
49              	3.10008219e+02
50              	3.10070016e+02
51              	3.10129864e+02
52              	3.10191429e+02
53              	3.10252727e+02
54              	3.10311955e+02
55              	3.10370336e+02
56              	3.10427940e+02
57              	3.10482739e+02
58              	3.10535539e+02
59              	3.10585948e+02
60              	3.10634355e+02
61              	3.10684014e+02
62              	3.10736358e+02
63              	3.10789687e+02
64              	3.10846565e+02
65              	3.10904366e+02
66              	3.10965285e+02
67              	3.11027828e+02
68              	3.11084908e+02
69              	3.11135600e+02
70              	3.11176380e+02
71              	3.11210174e+02
72              	3.11239286e+02
73              	3.11270324e+02
74              	3.11302819e+02
75              	3.11338242e+02
76              	3.11377609e+02
77              	3.11420626e+02
78              	3.11466483e+02
79              	3.11514978e+02
80              	3.11562564e+02
81              	3.11605549e+02
82              	3.11640541e+02
83              	3.11669145e+02
84              	3.11692652e+02
85              	3.11713888e+02
86              	3.11733887e+02
87              	3.11753037e+02
88              	3.11773844e+02
89              	3.11797822e+02
90              	3.11825351e+02
91              	3.11854080e+02
92              	3.11884059e+02
93              	3.11913212e+02
94              	3.11941153e+02
95              	3.11967909e+02
96              	3.11993756e+02
97              	3.12018678e+02
98              	3.12042470e+02
99              	3.12065088e+02
100             	3.12086364e+02
101             	3.12105995e+02
102             	3.12124790e+02
103             	3.12142960e+02
104             	3.12160408e+02
105             	3.12177062e+02
106             	3.12192850e+02
107             	3.12208082e+02
108             	3.12222866e+02
109             	3.12237306e+02
110             	3.12251090e+02
111             	3.12264266e+02
112             	3.12276932e+02
113             	3.12288554e+02
114             	3.12298980e+02
115             	3.12308221e+02
116             	3.12317050e+02
117             	3.12326056e+02
118             	3.12335232e+02
119             	3.12345378e+02
120             	3.12356667e+02
121             	3.12368905e+02
122             	3.12382361e+02
123             	3.12395666e+02
124             	3.12408278e+02
125             	3.12418609e+02
126             	3.12427140e+02
127             	3.12433766e+02
128             	3.12438935e+02
129             	3.12443478e+02
130             	3.12448497e+02
131             	3.12454187e+02
132             	3.12460485e+02
133             	3.12467392e+02
134             	3.12474553e+02
135             	3.12481831e+02
136             	3.12489566e+02
137             	3.12497249e+02
138             	3.12504431e+02
139             	3.12510777e+02
140             	3.12516393e+02
141             	3.12521841e+02
142             	3.12527827e+02
143             	3.12534143e+02
144             	3.12540634e+02
145             	3.12546676e+02
146             	3.12552384e+02
147             	3.12558105e+02
148             	3.12563962e+02
149             	3.12569562e+02
150             	3.12574784e+02
151             	3.12579313e+02
152             	3.12582655e+02
153             	3.12584843e+02
154             	3.12586729e+02
155             	3.12588980e+02
156             	3.12591167e+02
157             	3.12593456e+02
158             	3.12596326e+02
159             	3.12600116e+02
160             	3.12604950e+02
161             	3.12610349e+02
162             	3.12615423e+02
163             	3.12620173e+02
164             	3.12624148e+02
165             	3.12627385e+02
166             	3.12629929e+02
167             	3.12631795e+02
168             	3.12633027e+02
169             	3.12633782e+02
170             	3.12634216e+02
171             	3.12634930e+02
172             	3.12636218e+02
173             	3.12638052e+02
174             	3.12640677e+02
175             	3.12643965e+02
176             	3.12647620e+02
177             	3.12651094e+02
178             	3.12654143e+02
179             	3.12657054e+02
180             	3.12659821e+02
181             	3.12662429e+02
182             	3.12664756e+02
183             	3.12666961e+02
184             	3.12669180e+02
185             	3.12671446e+02
186             	3.12673429e+02
187             	3.12674972e+02
188             	3.12675945e+02
189             	3.12676441e+02
190             	3.12676683e+02
191             	3.12676928e+02
192             	3.12677595e+02
193             	3.12678704e+02
194             	3.12680183e+02
195             	3.12682069e+02
196             	3.12684293e+02
197             	3.12686733e+02
198             	3.12689175e+02
199             	3.12691166e+02
200             	3.12693064e+02
201             	3.12694869e+02
202             	3.12696560e+02
203             	3.12698182e+02
204             	3.12699679e+02
205             	3.12700920e+02
206             	3.12701982e+02
207             	3.12702981e+02
208             	3.12704079e+02
209             	3.12705457e+02
210             	3.12707133e+02
211             	3.12709031e+02
212             	3.12711005e+02
213             	3.12712768e+02
214             	3.12714101e+02
215             	3.12715075e+02
216             	3.12715684e+02
217             	3.12715970e+02
218             	3.12716021e+02
219             	3.12715876e+02
220             	3.12715674e+02
221             	3.12715512e+02
222             	3.12715386e+02
223             	3.12715337e+02
224             	3.12715435e+02
225             	3.12715689e+02
226             	3.12716080e+02
227             	3.12716489e+02
228             	3.12716761e+02
229             	3.12716849e+02
230             	3.12716780e+02
231             	3.12716688e+02
232             	3.12716789e+02
233             	3.12717042e+02
234             	3.12717474e+02
235             	3.12718071e+02
236             	3.12718853e+02
237             	3.12719789e+02
238             	3.12720824e+02
239             	3.12721895e+02
240             	3.12722958e+02
241             	3.12723984e+02
242             	3.12724910e+02
243             	3.12725526e+02
244             	3.12725959e+02
245             	3.12726200e+02
246             	3.12726236e+02
247             	3.12726077e+02
248             	3.12725746e+02
249             	3.12725269e+02
250             	3.12724706e+02
251             	3.12724107e+02
252             	3.12723646e+02
253             	3.12723611e+02
254             	3.12723785e+02
255             	3.12724159e+02
256             	3.12724698e+02
257             	3.12725329e+02
258             	3.12726030e+02
259             	3.12726752e+02
260             	3.12727438e+02
261             	3.12728041e+02
262             	3.12728550e+02
263             	3.12728948e+02
264             	3.12729252e+02
265             	3.12729540e+02
266             	3.12729908e+02
267             	3.12730329e+02
268             	3.12730688e+02
269             	3.12731066e+02
270             	3.12731481e+02
271             	3.12731888e+02
272             	3.12732246e+02
273             	3.12732534e+02
274             	3.12732806e+02
275             	3.12733038e+02
276             	3.12733199e+02
277             	3.12733174e+02
278             	3.12732917e+02
279             	3.12732454e+02
280             	3.12731795e+02
281             	3.12731022e+02
282             	3.12730242e+02
283             	3.12729578e+02
284             	3.12729064e+02
285             	3.12728692e+02
286             	3.12728479e+02
287             	3.12728400e+02
288             	3.12728389e+02
289             	3.12728400e+02
290             	3.12728422e+02
291             	3.12728445e+02
292             	3.12728434e+02
293             	3.12728353e+02
294             	3.12728192e+02
295             	3.12727960e+02
296             	3.12727708e+02
297             	3.12727481e+02
298             	3.12727309e+02
299             	3.12727232e+02
300             	3.12727266e+02
301             	3.12727433e+02
302             	3.12727717e+02
303             	3.12728070e+02
304             	3.12728473e+02
305             	3.12728794e+02
306             	3.12729086e+02
307             	3.12729323e+02
308             	3.12729485e+02
309             	3.12729579e+02
310             	3.12729630e+02
311             	3.12729663e+02
312             	3.12729691e+02
313             	3.12729709e+02
314             	3.12729704e+02
315             	3.12729690e+02
316             	3.12729686e+02
317             	3.12729689e+02
318             	3.12729720e+02
319             	3.12729746e+02
320             	3.12729702e+02
321             	3.12729641e+02
322             	3.12729574e+02
323             	3.12729569e+02
324             	3.12729591e+02
325             	3.12729613e+02
326             	3.12729640e+02
327             	3.12729670e+02
328             	3.12729696e+02
329             	3.12729709e+02
330             	3.12729692e+02
331             	3.12729632e+02
332             	3.12729516e+02
333             	3.12729377e+02
334             	3.12729218e+02
335             	3.12729098e+02
336             	3.12729003e+02
337             	3.12728932e+02
338             	3.12728893e+02
339             	3.12728895e+02
340             	3.12728929e+02
341             	3.12729003e+02
342             	3.12729045e+02
343             	3.12729020e+02
344             	3.12728960e+02
345             	3.12728851e+02
346             	3.12728697e+02
347             	3.12728519e+02
348             	3.12728353e+02
349             	3.12728184e+02
350             	3.12727987e+02
351             	3.12727766e+02
352             	3.12727554e+02
353             	3.12727385e+02
354             	3.12727293e+02
355             	3.12727307e+02
356             	3.12727441e+02
357             	3.12727703e+02
358             	3.12728087e+02
359             	3.12728571e+02
360             	3.12729073e+02
361             	3.12729540e+02
362             	3.12729982e+02
363             	3.12730378e+02
364             	3.12730707e+02
365             	3.12730962e+02
366             	3.12731133e+02
367             	3.12731268e+02
368             	3.12731377e+02
369             	3.12731468e+02
370             	3.12731511e+02
371             	3.12731486e+02
372             	3.12731395e+02
373             	3.12731249e+02
374             	3.12731053e+02
375             	3.12730808e+02
376             	3.12730512e+02
377             	3.12730163e+02
378             	3.12729789e+02
379             	3.12729428e+02
380             	3.12729049e+02
381             	3.12728672e+02
382             	3.12728302e+02
383             	3.12727951e+02
384             	3.12727622e+02
385             	3.12727319e+02
386             	3.12727047e+02
387             	3.12726794e+02
388             	3.12726556e+02
389             	3.12726355e+02
390             	3.12726210e+02
391             	3.12726129e+02
392             	3.12726114e+02
393             	3.12726169e+02
394             	3.12726293e+02
395             	3.12726480e+02
396             	3.12726720e+02
397             	3.12727008e+02
398             	3.12727353e+02
399             	3.12727752e+02
400             	3.12728181e+02
401             	3.12728631e+02
402             	3.12729109e+02
403             	3.12729624e+02
404             	3.12730178e+02
405             	3.12730763e+02
406             	3.12731364e+02
407             	3.12731967e+02
408             	3.12732563e+02
409             	3.12733175e+02
410             	3.12733763e+02
411             	3.12734307e+02
412             	3.12734793e+02
413             	3.12735220e+02
414             	3.12735590e+02
415             	3.12735908e+02
416             	3.12736178e+02
417             	3.12736395e+02
418             	3.12736546e+02
419             	3.12736613e+02
420             	3.12736581e+02
421             	3.12736447e+02
422             	3.12736213e+02
423             	3.12735884e+02
424             	3.12735463e+02
425             	3.12734983e+02
426             	3.12734460e+02
427             	3.12733907e+02
428             	3.12733358e+02
429             	3.12732846e+02
430             	3.12732362e+02
431             	3.12731917e+02
432             	3.12731536e+02
433             	3.12731222e+02
434             	3.12730946e+02
435             	3.12730710e+02
436             	3.12730521e+02
437             	3.12730385e+02
438             	3.12730305e+02
439             	3.12730278e+02
440             	3.12730293e+02
441             	3.12730355e+02
442             	3.12730473e+02
443             	3.12730655e+02
444             	3.12730872e+02
445             	3.12731118e+02
446             	3.12731404e+02
447             	3.12731731e+02
448             	3.12732076e+02
449             	3.12732446e+02
450             	3.12732833e+02
451             	3.12733213e+02
452             	3.12733570e+02
453             	3.12733906e+02
454             	3.12734235e+02
455             	3.12734546e+02
456             	3.12734819e+02
457             	3.12735045e+02
458             	3.12735218e+02
459             	3.12735373e+02
460             	3.12735479e+02
461             	3.12735525e+02
462             	3.12735521e+02
463             	3.12735480e+02
464             	3.12735397e+02
465             	3.12735258e+02
466             	3.12735049e+02
467             	3.12734755e+02
468             	3.12734366e+02
469             	3.12733873e+02
470             	3.12733288e+02
471             	3.12732640e+02
472             	3.12731935e+02
473             	3.12731153e+02
474             	3.12730312e+02
475             	3.12729463e+02
476             	3.12728647e+02
477             	3.12727888e+02
478             	3.12727216e+02
479             	3.12726679e+02
480             	3.12726290e+02
481             	3.12726035e+02
482             	3.12725889e+02
483             	3.12725847e+02
484             	3.12725902e+02
485             	3.12726037e+02
486             	3.12726254e+02
487             	3.12726569e+02
488             	3.12726965e+02
489             	3.12727439e+02
490             	3.12727988e+02
491             	3.12728536e+02
492             	3.12729070e+02
493             	3.12729600e+02
494             	3.12730100e+02
495             	3.12730539e+02
496             	3.12730916e+02
497             	3.12731240e+02
498             	3.12731533e+02
499             	3.12731775e+02
500             	3.12731939e+02
501             	3.12732029e+02
502             	3.12732053e+02
503             	3.12732022e+02
504             	3.12731948e+02
505             	3.12731843e+02
506             	3.12731705e+02
507             	3.12731517e+02
508             	3.12731275e+02
509             	3.12730969e+02
510             	3.12730585e+02
511             	3.12730105e+02
512             	3.12729520e+02
513             	3.12728833e+02
514             	3.12728041e+02
515             	3.12727141e+02
516             	3.12726153e+02
517             	3.12725103e+02
518             	3.12724021e+02
519             	3.12722937e+02
520             	3.12721903e+02
521             	3.12720979e+02
522             	3.12720159e+02
523             	3.12719474e+02
524             	3.12718940e+02
525             	3.12718559e+02
526             	3.12718328e+02
527             	3.12718241e+02
528             	3.12718294e+02
529             	3.12718483e+02
530             	3.12718805e+02
531             	3.12719217e+02
532             	3.12719704e+02
533             	3.12720266e+02
534             	3.12720881e+02
535             	3.12721532e+02
536             	3.12722182e+02
537             	3.12722808e+02
538             	3.12723400e+02
539             	3.12723962e+02
540             	3.12724525e+02
541             	3.12725070e+02
542             	3.12725605e+02
543             	3.12726127e+02
544             	3.12726628e+02
545             	3.12727102e+02
546             	3.12727543e+02
547             	3.12727949e+02
548             	3.12728295e+02
549             	3.12728552e+02
550             	3.12728706e+02
551             	3.12728739e+02
552             	3.12728628e+02
553             	3.12728351e+02
554             	3.12727901e+02
555             	3.12727290e+02
556             	3.12726540e+02
557             	3.12725673e+02
558             	3.12724748e+02
559             	3.12723848e+02
560             	3.12722952e+02
561             	3.12722081e+02
562             	3.12721264e+02
563             	3.12720538e+02
564             	3.12719921e+02
565             	3.12719412e+02
566             	3.12718984e+02
567             	3.12718654e+02
568             	3.12718428e+02
569             	3.12718316e+02
570             	3.12718313e+02
571             	3.12718415e+02
572             	3.12718615e+02
573             	3.12718907e+02
574             	3.12719300e+02
575             	3.12719779e+02
576             	3.12720330e+02
577             	3.12720974e+02
578             	3.12721703e+02
579             	3.12722495e+02
580             	3.12723345e+02
581             	3.12724243e+02
582             	3.12725178e+02
583             	3.12726130e+02
584             	3.12727082e+02
585             	3.12728029e+02
586             	3.12728958e+02
587             	3.12729864e+02
588             	3.12730734e+02
589             	3.12731554e+02
590             	3.12732312e+02
591             	3.12732994e+02
592             	3.12733580e+02
593             	3.12734055e+02
594             	3.12734404e+02
595             	3.12734610e+02
596             	3.12734663e+02
597             	3.12734559e+02
598             	3.12734296e+02
599             	3.12733878e+02
600             	3.12733320e+02
601             	3.12732651e+02
602             	3.12731883e+02
603             	3.12731037e+02
604             	3.12730145e+02
605             	3.12729314e+02
606             	3.12728600e+02
607             	3.12727977e+02
608             	3.12727465e+02
609             	3.12727079e+02
610             	3.12726839e+02
611             	3.12726730e+02
612             	3.12726716e+02
613             	3.12726778e+02
614             	3.12726893e+02
615             	3.12727045e+02
616             	3.12727210e+02
617             	3.12727368e+02
618             	3.12727550e+02
619             	3.12727756e+02
620             	3.12727988e+02
621             	3.12728255e+02
