# Region        : cellZone component_0
# Cells         : 176
# Volume        : 3.06225174e-01
# Time          	volAverage(T)
1               	3.00263813e+02
2               	3.00524845e+02
3               	3.00773376e+02
4               	3.01013411e+02
5               	3.01248075e+02
6               	3.01478451e+02
7               	3.01705107e+02
8               	3.01928554e+02
9               	3.02149724e+02
10              	3.02369241e+02
11              	3.02586611e+02
12              	3.02802236e+02
13              	3.03015831e+02
14              	3.03224444e+02
15              	3.03433785e+02
16              	3.03639565e+02
17              	3.03844848e+02
18              	3.04046631e+02
19              	3.04245654e+02
20              	3.04439132e+02
21              	3.04638206e+02
22              	3.04832563e+02
23              	3.05022961e+02
24              	3.05210227e+02
25              	3.05393257e+02
26              	3.05574065e+02
27              	3.05752501e+02
28              	3.05932396e+02
29              	3.06109384e+02
30              	3.06278405e+02
31              	3.06445722e+02
32              	3.06609626e+02
33              	3.06763957e+02
34              	3.06909411e+02
35              	3.07050972e+02
36              	3.07188779e+02
37              	3.07331127e+02
38              	3.07475328e+02
39              	3.07622392e+02
40              	3.07767870e+02
41              	3.07916961e+02
42              	3.08058888e+02
43              	3.08203528e+02
44              	3.08346481e+02
45              	3.08488119e+02
46              	3.08625766e+02
47              	3.08762944e+02
48              	3.08903267e+02
49              	3.09043986e+02
50              	3.09175006e+02
51              	3.09301954e+02
52              	3.09413976e+02
53              	3.09517224e+02
54              	3.09616051e+02
55              	3.09721314e+02
56              	3.09833243e+02
57              	3.09942803e+02
58              	3.10059277e+02
59              	3.10169985e+02
60              	3.10279834e+02
61              	3.10385320e+02
62              	3.10492659e+02
63              	3.10594616e+02
64              	3.10698392e+02
65              	3.10801302e+02
66              	3.10903227e+02
67              	3.11000946e+02
68              	3.11103118e+02
69              	3.11200591e+02
70              	3.11296427e+02
71              	3.11389433e+02
72              	3.11479647e+02
73              	3.11566237e+02
74              	3.11649331e+02
75              	3.11731587e+02
76              	3.11811269e+02
77              	3.11889802e+02
78              	3.11969248e+02
79              	3.12047225e+02
80              	3.12120031e+02
81              	3.12190433e+02
82              	3.12258416e+02
83              	3.12326927e+02
84              	3.12394659e+02
85              	3.12460228e+02
86              	3.12527110e+02
87              	3.12595450e+02
88              	3.12665479e+02
89              	3.12738923e+02
90              	3.12808378e+02
91              	3.12876302e+02
92              	3.12942840e+02
93              	3.13008483e+02
94              	3.13073579e+02
95              	3.13138412e+02
96              	3.13204874e+02
97              	3.13271330e+02
98              	3.13336443e+02
99              	3.13401566e+02
100             	3.13464859e+02
101             	3.13524707e+02
102             	3.13582409e+02
103             	3.13636907e+02
104             	3.13688892e+02
105             	3.13739243e+02
106             	3.13789493e+02
107             	3.13839264e+02
108             	3.13888610e+02
109             	3.13938777e+02
110             	3.13988227e+02
111             	3.14037276e+02
112             	3.14085382e+02
113             	3.14132489e+02
114             	3.14178057e+02
115             	3.14223746e+02
116             	3.14269618e+02
117             	3.14316418e+02
118             	3.14363504e+02
119             	3.14411238e+02
120             	3.14458714e+02
121             	3.14505628e+02
122             	3.14552540e+02
123             	3.14598688e+02
124             	3.14643757e+02
125             	3.14687517e+02
126             	3.14731791e+02
127             	3.14775015e+02
128             	3.14816002e+02
129             	3.14854444e+02
130             	3.14892454e+02
131             	3.14929440e+02
132             	3.14966134e+02
133             	3.15002532e+02
134             	3.15038843e+02
135             	3.15075029e+02
136             	3.15111565e+02
137             	3.15148138e+02
138             	3.15186531e+02
139             	3.15224332e+02
140             	3.15262688e+02
141             	3.15301012e+02
142             	3.15338750e+02
143             	3.15375665e+02
144             	3.15411898e+02
145             	3.15446372e+02
146             	3.15481007e+02
147             	3.15511859e+02
148             	3.15540763e+02
149             	3.15570222e+02
150             	3.15598652e+02
151             	3.15626858e+02
152             	3.15653670e+02
153             	3.15682318e+02
154             	3.15711177e+02
155             	3.15741720e+02
156             	3.15773404e+02
157             	3.15804876e+02
158             	3.15836411e+02
159             	3.15867747e+02
160             	3.15896817e+02
161             	3.15924490e+02
162             	3.15950105e+02
163             	3.15976007e+02
164             	3.16002169e+02
165             	3.16025253e+02
166             	3.16049315e+02
167             	3.16074195e+02
168             	3.16100464e+02
169             	3.16128154e+02
170             	3.16156483e+02
171             	3.16185048e+02
172             	3.16211989e+02
173             	3.16238330e+02
174             	3.16263570e+02
175             	3.16287647e+02
176             	3.16310576e+02
177             	3.16332692e+02
178             	3.16354256e+02
179             	3.16375752e+02
180             	3.16396999e+02
181             	3.16418129e+02
182             	3.16439236e+02
183             	3.16460254e+02
184             	3.16481265e+02
185             	3.16502146e+02
186             	3.16522798e+02
187             	3.16543113e+02
188             	3.16563011e+02
189             	3.16582273e+02
190             	3.16601159e+02
191             	3.16619744e+02
192             	3.16637973e+02
193             	3.16655877e+02
194             	3.16673466e+02
195             	3.16690990e+02
196             	3.16708425e+02
197             	3.16725795e+02
198             	3.16742934e+02
199             	3.16759931e+02
200             	3.16776556e+02
201             	3.16792709e+02
202             	3.16808424e+02
203             	3.16823913e+02
204             	3.16839129e+02
205             	3.16853901e+02
206             	3.16868285e+02
207             	3.16882312e+02
208             	3.16896248e+02
209             	3.16910081e+02
210             	3.16923930e+02
211             	3.16937901e+02
212             	3.16951914e+02
213             	3.16965970e+02
214             	3.16980009e+02
215             	3.16994127e+02
216             	3.17008190e+02
217             	3.17022021e+02
218             	3.17035722e+02
219             	3.17048906e+02
220             	3.17061723e+02
221             	3.17074252e+02
222             	3.17086293e+02
223             	3.17097987e+02
224             	3.17109591e+02
225             	3.17121158e+02
226             	3.17132617e+02
227             	3.17144140e+02
228             	3.17155542e+02
229             	3.17166651e+02
230             	3.17177513e+02
231             	3.17188084e+02
232             	3.17198278e+02
233             	3.17208346e+02
234             	3.17218215e+02
235             	3.17228061e+02
236             	3.17238029e+02
237             	3.17248073e+02
238             	3.17258139e+02
239             	3.17268325e+02
240             	3.17278370e+02
241             	3.17288201e+02
242             	3.17297998e+02
243             	3.17307568e+02
244             	3.17316980e+02
245             	3.17326339e+02
246             	3.17335474e+02
247             	3.17344293e+02
248             	3.17353082e+02
249             	3.17361830e+02
250             	3.17370373e+02
251             	3.17378791e+02
252             	3.17386923e+02
253             	3.17394615e+02
254             	3.17402126e+02
255             	3.17409387e+02
256             	3.17416537e+02
257             	3.17423816e+02
258             	3.17431413e+02
259             	3.17439231e+02
260             	3.17447374e+02
261             	3.17455553e+02
262             	3.17463640e+02
263             	3.17471588e+02
264             	3.17479208e+02
265             	3.17486553e+02
266             	3.17493813e+02
267             	3.17500919e+02
268             	3.17507795e+02
269             	3.17514662e+02
270             	3.17521437e+02
271             	3.17528047e+02
272             	3.17534559e+02
273             	3.17540814e+02
274             	3.17546792e+02
275             	3.17552649e+02
276             	3.17558341e+02
277             	3.17564031e+02
278             	3.17569836e+02
279             	3.17575702e+02
280             	3.17581635e+02
281             	3.17587706e+02
282             	3.17593747e+02
283             	3.17599670e+02
284             	3.17605613e+02
285             	3.17611375e+02
286             	3.17616921e+02
287             	3.17622365e+02
288             	3.17627577e+02
289             	3.17632584e+02
290             	3.17637446e+02
291             	3.17642147e+02
292             	3.17646726e+02
293             	3.17651328e+02
294             	3.17655862e+02
295             	3.17660329e+02
296             	3.17664812e+02
297             	3.17669206e+02
298             	3.17673496e+02
299             	3.17677789e+02
300             	3.17682027e+02
301             	3.17686202e+02
302             	3.17690448e+02
303             	3.17694652e+02
304             	3.17698815e+02
305             	3.17703057e+02
306             	3.17707276e+02
307             	3.17711446e+02
308             	3.17715641e+02
309             	3.17719727e+02
310             	3.17723660e+02
311             	3.17727499e+02
312             	3.17731153e+02
313             	3.17734621e+02
314             	3.17738042e+02
315             	3.17741346e+02
316             	3.17744580e+02
317             	3.17747829e+02
318             	3.17751061e+02
319             	3.17754259e+02
320             	3.17757543e+02
321             	3.17760772e+02
322             	3.17763961e+02
323             	3.17767164e+02
324             	3.17770304e+02
325             	3.17773367e+02
326             	3.17776444e+02
327             	3.17779464e+02
328             	3.17782436e+02
329             	3.17785441e+02
330             	3.17788390e+02
331             	3.17791286e+02
332             	3.17794193e+02
333             	3.17797053e+02
334             	3.17799860e+02
335             	3.17802710e+02
336             	3.17805558e+02
337             	3.17808392e+02
338             	3.17811273e+02
339             	3.17814123e+02
340             	3.17816915e+02
341             	3.17819705e+02
342             	3.17822405e+02
343             	3.17825016e+02
344             	3.17827604e+02
345             	3.17830119e+02
346             	3.17832565e+02
347             	3.17834994e+02
348             	3.17837383e+02
349             	3.17839731e+02
350             	3.17842083e+02
351             	3.17844368e+02
352             	3.17846599e+02
353             	3.17848812e+02
354             	3.17850974e+02
355             	3.17853064e+02
356             	3.17855149e+02
357             	3.17857165e+02
358             	3.17859130e+02
359             	3.17861077e+02
360             	3.17862980e+02
361             	3.17864825e+02
362             	3.17866672e+02
363             	3.17868461e+02
364             	3.17870210e+02
365             	3.17871956e+02
366             	3.17873663e+02
367             	3.17875340e+02
368             	3.17877003e+02
369             	3.17878624e+02
370             	3.17880209e+02
371             	3.17881791e+02
372             	3.17883334e+02
373             	3.17884835e+02
374             	3.17886329e+02
375             	3.17887785e+02
376             	3.17889195e+02
377             	3.17890597e+02
378             	3.17891955e+02
379             	3.17893292e+02
380             	3.17894632e+02
381             	3.17895956e+02
382             	3.17897264e+02
383             	3.17898594e+02
384             	3.17899913e+02
385             	3.17901225e+02
386             	3.17902544e+02
387             	3.17903860e+02
388             	3.17905161e+02
389             	3.17906483e+02
390             	3.17907798e+02
391             	3.17909105e+02
392             	3.17910411e+02
393             	3.17911680e+02
394             	3.17912902e+02
395             	3.17914110e+02
396             	3.17915283e+02
397             	3.17916429e+02
398             	3.17917590e+02
399             	3.17918742e+02
400             	3.17919889e+02
401             	3.17921049e+02
402             	3.17922195e+02
403             	3.17923314e+02
404             	3.17924430e+02
405             	3.17925504e+02
406             	3.17926540e+02
407             	3.17927545e+02
408             	3.17928501e+02
409             	3.17929418e+02
410             	3.17930320e+02
411             	3.17931190e+02
412             	3.17932043e+02
413             	3.17932903e+02
414             	3.17933757e+02
415             	3.17934605e+02
416             	3.17935466e+02
417             	3.17936315e+02
418             	3.17937147e+02
419             	3.17937979e+02
420             	3.17938789e+02
421             	3.17939589e+02
422             	3.17940377e+02
423             	3.17941148e+02
424             	3.17941895e+02
425             	3.17942673e+02
426             	3.17943444e+02
427             	3.17944229e+02
428             	3.17945032e+02
429             	3.17945825e+02
430             	3.17946600e+02
431             	3.17947375e+02
432             	3.17948116e+02
433             	3.17948826e+02
434             	3.17949528e+02
435             	3.17950221e+02
436             	3.17950898e+02
437             	3.17951585e+02
438             	3.17952271e+02
439             	3.17952967e+02
440             	3.17953687e+02
441             	3.17954396e+02
442             	3.17955112e+02
443             	3.17955829e+02
444             	3.17956539e+02
445             	3.17957227e+02
446             	3.17957911e+02
447             	3.17958579e+02
448             	3.17959244e+02
449             	3.17959902e+02
450             	3.17960538e+02
451             	3.17961155e+02
452             	3.17961766e+02
453             	3.17962370e+02
454             	3.17962969e+02
455             	3.17963575e+02
456             	3.17964170e+02
457             	3.17964750e+02
458             	3.17965322e+02
459             	3.17965865e+02
460             	3.17966393e+02
461             	3.17966918e+02
462             	3.17967433e+02
463             	3.17967939e+02
464             	3.17968455e+02
465             	3.17968968e+02
466             	3.17969479e+02
467             	3.17969985e+02
468             	3.17970466e+02
469             	3.17970931e+02
470             	3.17971386e+02
471             	3.17971823e+02
472             	3.17972249e+02
473             	3.17972672e+02
474             	3.17973086e+02
475             	3.17973493e+02
476             	3.17973909e+02
477             	3.17974303e+02
478             	3.17974680e+02
479             	3.17975055e+02
480             	3.17975415e+02
481             	3.17975776e+02
482             	3.17976145e+02
483             	3.17976513e+02
484             	3.17976879e+02
485             	3.17977248e+02
486             	3.17977612e+02
487             	3.17977961e+02
488             	3.17978306e+02
489             	3.17978639e+02
490             	3.17978963e+02
491             	3.17979292e+02
492             	3.17979622e+02
493             	3.17979952e+02
494             	3.17980291e+02
495             	3.17980632e+02
496             	3.17980973e+02
497             	3.17981317e+02
498             	3.17981657e+02
499             	3.17981991e+02
500             	3.17982327e+02
501             	3.17982658e+02
502             	3.17982984e+02
503             	3.17983312e+02
504             	3.17983636e+02
505             	3.17983956e+02
506             	3.17984279e+02
507             	3.17984599e+02
508             	3.17984914e+02
509             	3.17985231e+02
510             	3.17985547e+02
511             	3.17985852e+02
512             	3.17986164e+02
513             	3.17986474e+02
514             	3.17986779e+02
515             	3.17987086e+02
516             	3.17987391e+02
517             	3.17987686e+02
518             	3.17987979e+02
519             	3.17988264e+02
520             	3.17988542e+02
521             	3.17988822e+02
522             	3.17989098e+02
523             	3.17989373e+02
524             	3.17989650e+02
525             	3.17989923e+02
526             	3.17990190e+02
527             	3.17990459e+02
528             	3.17990723e+02
529             	3.17990980e+02
530             	3.17991232e+02
531             	3.17991477e+02
532             	3.17991713e+02
533             	3.17991945e+02
534             	3.17992167e+02
535             	3.17992380e+02
536             	3.17992589e+02
537             	3.17992789e+02
538             	3.17992982e+02
539             	3.17993169e+02
540             	3.17993348e+02
541             	3.17993518e+02
542             	3.17993684e+02
543             	3.17993849e+02
544             	3.17994010e+02
545             	3.17994171e+02
546             	3.17994328e+02
547             	3.17994475e+02
548             	3.17994623e+02
549             	3.17994768e+02
550             	3.17994910e+02
551             	3.17995060e+02
552             	3.17995207e+02
553             	3.17995353e+02
554             	3.17995502e+02
555             	3.17995653e+02
556             	3.17995804e+02
557             	3.17995958e+02
558             	3.17996110e+02
559             	3.17996259e+02
560             	3.17996406e+02
561             	3.17996550e+02
562             	3.17996691e+02
563             	3.17996833e+02
564             	3.17996971e+02
565             	3.17997106e+02
566             	3.17997242e+02
567             	3.17997373e+02
568             	3.17997497e+02
569             	3.17997618e+02
570             	3.17997735e+02
571             	3.17997849e+02
572             	3.17997960e+02
573             	3.17998071e+02
574             	3.17998183e+02
575             	3.17998297e+02
576             	3.17998412e+02
577             	3.17998526e+02
578             	3.17998641e+02
579             	3.17998753e+02
580             	3.17998862e+02
581             	3.17998970e+02
582             	3.17999073e+02
583             	3.17999176e+02
584             	3.17999281e+02
585             	3.17999388e+02
586             	3.17999498e+02
587             	3.17999615e+02
588             	3.17999736e+02
589             	3.17999858e+02
590             	3.17999983e+02
591             	3.18000108e+02
592             	3.18000227e+02
593             	3.18000344e+02
594             	3.18000458e+02
595             	3.18000566e+02
596             	3.18000672e+02
597             	3.18000774e+02
598             	3.18000878e+02
599             	3.18000984e+02
600             	3.18001088e+02
601             	3.18001190e+02
602             	3.18001292e+02
603             	3.18001392e+02
604             	3.18001485e+02
605             	3.18001572e+02
606             	3.18001652e+02
607             	3.18001728e+02
608             	3.18001802e+02
609             	3.18001871e+02
610             	3.18001936e+02
611             	3.18001997e+02
612             	3.18002056e+02
613             	3.18002116e+02
614             	3.18002178e+02
615             	3.18002245e+02
616             	3.18002314e+02
617             	3.18002381e+02
618             	3.18002448e+02
619             	3.18002513e+02
620             	3.18002576e+02
621             	3.18002637e+02
