# Region        : cellZone component_4
# Cells         : 112
# Volume        : 2.06890668e-01
# Time          	volAverage(T)
1               	3.00211721e+02
2               	3.00420086e+02
3               	3.00616604e+02
4               	3.00804844e+02
5               	3.00987875e+02
6               	3.01166952e+02
7               	3.01341633e+02
8               	3.01514062e+02
9               	3.01683845e+02
10              	3.01850349e+02
11              	3.02013475e+02
12              	3.02172187e+02
13              	3.02328479e+02
14              	3.02481511e+02
15              	3.02633582e+02
16              	3.02785053e+02
17              	3.02937849e+02
18              	3.03092762e+02
19              	3.03244086e+02
20              	3.03390223e+02
21              	3.03533903e+02
22              	3.03676568e+02
23              	3.03813946e+02
24              	3.03946536e+02
25              	3.04073430e+02
26              	3.04193661e+02
27              	3.04307819e+02
28              	3.04415091e+02
29              	3.04514403e+02
30              	3.04610806e+02
31              	3.04704370e+02
32              	3.04799671e+02
33              	3.04899157e+02
34              	3.05003201e+02
35              	3.05110022e+02
36              	3.05215558e+02
37              	3.05320637e+02
38              	3.05424932e+02
39              	3.05525708e+02
40              	3.05624605e+02
41              	3.05720353e+02
42              	3.05813882e+02
43              	3.05904136e+02
44              	3.05988239e+02
45              	3.06066522e+02
46              	3.06142012e+02
47              	3.06214892e+02
48              	3.06286685e+02
49              	3.06358212e+02
50              	3.06430343e+02
51              	3.06503693e+02
52              	3.06578816e+02
53              	3.06656270e+02
54              	3.06735862e+02
55              	3.06816979e+02
56              	3.06897518e+02
57              	3.06978470e+02
58              	3.07059767e+02
59              	3.07140004e+02
60              	3.07218963e+02
61              	3.07296465e+02
62              	3.07369921e+02
63              	3.07441067e+02
64              	3.07508717e+02
65              	3.07572954e+02
66              	3.07637670e+02
67              	3.07702304e+02
68              	3.07766224e+02
69              	3.07829946e+02
70              	3.07895200e+02
71              	3.07959537e+02
72              	3.08024246e+02
73              	3.08090044e+02
74              	3.08155973e+02
75              	3.08223050e+02
76              	3.08288909e+02
77              	3.08354673e+02
78              	3.08418115e+02
79              	3.08481113e+02
80              	3.08541399e+02
81              	3.08601621e+02
82              	3.08660748e+02
83              	3.08716813e+02
84              	3.08771188e+02
85              	3.08825028e+02
86              	3.08876888e+02
87              	3.08929470e+02
88              	3.08982634e+02
89              	3.09036902e+02
90              	3.09090289e+02
91              	3.09147251e+02
92              	3.09203414e+02
93              	3.09257678e+02
94              	3.09311022e+02
95              	3.09364445e+02
96              	3.09416567e+02
97              	3.09466309e+02
98              	3.09513215e+02
99              	3.09557922e+02
100             	3.09602706e+02
101             	3.09645290e+02
102             	3.09686249e+02
103             	3.09726747e+02
104             	3.09765946e+02
105             	3.09806109e+02
106             	3.09846323e+02
107             	3.09887343e+02
108             	3.09928099e+02
109             	3.09969500e+02
110             	3.10009759e+02
111             	3.10050088e+02
112             	3.10088067e+02
113             	3.10123822e+02
114             	3.10159401e+02
115             	3.10191886e+02
116             	3.10222185e+02
117             	3.10250527e+02
118             	3.10279399e+02
119             	3.10307880e+02
120             	3.10338495e+02
121             	3.10368842e+02
122             	3.10398141e+02
123             	3.10428682e+02
124             	3.10459280e+02
125             	3.10488827e+02
126             	3.10517895e+02
127             	3.10545349e+02
128             	3.10571326e+02
129             	3.10595518e+02
130             	3.10621864e+02
131             	3.10648161e+02
132             	3.10677029e+02
133             	3.10708322e+02
134             	3.10740444e+02
135             	3.10773490e+02
136             	3.10807583e+02
137             	3.10839409e+02
138             	3.10868818e+02
139             	3.10894382e+02
140             	3.10917704e+02
141             	3.10938788e+02
142             	3.10957204e+02
143             	3.10977918e+02
144             	3.10999553e+02
145             	3.11024207e+02
146             	3.11050696e+02
147             	3.11077478e+02
148             	3.11106110e+02
149             	3.11133290e+02
150             	3.11158199e+02
151             	3.11180581e+02
152             	3.11201011e+02
153             	3.11218593e+02
154             	3.11235081e+02
155             	3.11251736e+02
156             	3.11268961e+02
157             	3.11287628e+02
158             	3.11308255e+02
159             	3.11331365e+02
160             	3.11356880e+02
161             	3.11382288e+02
162             	3.11409678e+02
163             	3.11436331e+02
164             	3.11462314e+02
165             	3.11487115e+02
166             	3.11510451e+02
167             	3.11532829e+02
168             	3.11554381e+02
169             	3.11575916e+02
170             	3.11597680e+02
171             	3.11619760e+02
172             	3.11643189e+02
173             	3.11666525e+02
174             	3.11690530e+02
175             	3.11714072e+02
176             	3.11736878e+02
177             	3.11758750e+02
178             	3.11779526e+02
179             	3.11799063e+02
180             	3.11817593e+02
181             	3.11835229e+02
182             	3.11852987e+02
183             	3.11871187e+02
184             	3.11890350e+02
185             	3.11910506e+02
186             	3.11931316e+02
187             	3.11952414e+02
188             	3.11973302e+02
189             	3.11993771e+02
190             	3.12013139e+02
191             	3.12031288e+02
192             	3.12048251e+02
193             	3.12064322e+02
194             	3.12079110e+02
195             	3.12093664e+02
196             	3.12108256e+02
197             	3.12122694e+02
198             	3.12136864e+02
199             	3.12151346e+02
200             	3.12165329e+02
201             	3.12178082e+02
202             	3.12190284e+02
203             	3.12201855e+02
204             	3.12212791e+02
205             	3.12223728e+02
206             	3.12235260e+02
207             	3.12246719e+02
208             	3.12258869e+02
209             	3.12271111e+02
210             	3.12284011e+02
211             	3.12297109e+02
212             	3.12310550e+02
213             	3.12324252e+02
214             	3.12338403e+02
215             	3.12351264e+02
216             	3.12364611e+02
217             	3.12376654e+02
218             	3.12387593e+02
219             	3.12397565e+02
220             	3.12406342e+02
221             	3.12413840e+02
222             	3.12420346e+02
223             	3.12425620e+02
224             	3.12429583e+02
225             	3.12434086e+02
226             	3.12439108e+02
227             	3.12444932e+02
228             	3.12451334e+02
229             	3.12458483e+02
230             	3.12467716e+02
231             	3.12478318e+02
232             	3.12489927e+02
233             	3.12501718e+02
234             	3.12513451e+02
235             	3.12525038e+02
236             	3.12536149e+02
237             	3.12546877e+02
238             	3.12557282e+02
239             	3.12566653e+02
240             	3.12575560e+02
241             	3.12583868e+02
242             	3.12592376e+02
243             	3.12600590e+02
244             	3.12608288e+02
245             	3.12615514e+02
246             	3.12623440e+02
247             	3.12630843e+02
248             	3.12638156e+02
249             	3.12645439e+02
250             	3.12652968e+02
251             	3.12660395e+02
252             	3.12667277e+02
253             	3.12674962e+02
254             	3.12683246e+02
255             	3.12691644e+02
256             	3.12701033e+02
257             	3.12710855e+02
258             	3.12721454e+02
259             	3.12732552e+02
260             	3.12744124e+02
261             	3.12755751e+02
262             	3.12767970e+02
263             	3.12779418e+02
264             	3.12790687e+02
265             	3.12801732e+02
266             	3.12812415e+02
267             	3.12822985e+02
268             	3.12833247e+02
269             	3.12843104e+02
270             	3.12852725e+02
271             	3.12862207e+02
272             	3.12871504e+02
273             	3.12880688e+02
274             	3.12889800e+02
275             	3.12899151e+02
276             	3.12908861e+02
277             	3.12918580e+02
278             	3.12928416e+02
279             	3.12938747e+02
280             	3.12949684e+02
281             	3.12960550e+02
282             	3.12970654e+02
283             	3.12980115e+02
284             	3.12989406e+02
285             	3.12998293e+02
286             	3.13006698e+02
287             	3.13014489e+02
288             	3.13021702e+02
289             	3.13028376e+02
290             	3.13034536e+02
291             	3.13040319e+02
292             	3.13045923e+02
293             	3.13051807e+02
294             	3.13057565e+02
295             	3.13063164e+02
296             	3.13068267e+02
297             	3.13072891e+02
298             	3.13077604e+02
299             	3.13082371e+02
300             	3.13087816e+02
301             	3.13094187e+02
302             	3.13101416e+02
303             	3.13108906e+02
304             	3.13116370e+02
305             	3.13124016e+02
306             	3.13130968e+02
307             	3.13137128e+02
308             	3.13143307e+02
309             	3.13148864e+02
310             	3.13153254e+02
311             	3.13156789e+02
312             	3.13160245e+02
313             	3.13164174e+02
314             	3.13168345e+02
315             	3.13172815e+02
316             	3.13177669e+02
317             	3.13182244e+02
318             	3.13187029e+02
319             	3.13191640e+02
320             	3.13195999e+02
321             	3.13199977e+02
322             	3.13203511e+02
323             	3.13206603e+02
324             	3.13209253e+02
325             	3.13211798e+02
326             	3.13213795e+02
327             	3.13215553e+02
328             	3.13216966e+02
329             	3.13218636e+02
330             	3.13220473e+02
331             	3.13222572e+02
332             	3.13224942e+02
333             	3.13228165e+02
334             	3.13231291e+02
335             	3.13234081e+02
336             	3.13236468e+02
337             	3.13238389e+02
338             	3.13240017e+02
339             	3.13241266e+02
340             	3.13242107e+02
341             	3.13243034e+02
342             	3.13244388e+02
343             	3.13246038e+02
344             	3.13248105e+02
345             	3.13250432e+02
346             	3.13252984e+02
347             	3.13255502e+02
348             	3.13258091e+02
349             	3.13260853e+02
350             	3.13263143e+02
351             	3.13265102e+02
352             	3.13266252e+02
353             	3.13266602e+02
354             	3.13266250e+02
355             	3.13265599e+02
356             	3.13264664e+02
357             	3.13263929e+02
358             	3.13263750e+02
359             	3.13263954e+02
360             	3.13265158e+02
361             	3.13267409e+02
362             	3.13269677e+02
363             	3.13272295e+02
364             	3.13274865e+02
365             	3.13277806e+02
366             	3.13280608e+02
367             	3.13283327e+02
368             	3.13286235e+02
369             	3.13288477e+02
370             	3.13290527e+02
371             	3.13291537e+02
372             	3.13291786e+02
373             	3.13291491e+02
374             	3.13290788e+02
375             	3.13289719e+02
376             	3.13289247e+02
377             	3.13289409e+02
378             	3.13290341e+02
379             	3.13292057e+02
380             	3.13294619e+02
381             	3.13297430e+02
382             	3.13300695e+02
383             	3.13303710e+02
384             	3.13306802e+02
385             	3.13309157e+02
386             	3.13311309e+02
387             	3.13312851e+02
388             	3.13313853e+02
389             	3.13314748e+02
390             	3.13316142e+02
391             	3.13317577e+02
392             	3.13318686e+02
393             	3.13319956e+02
394             	3.13320730e+02
395             	3.13321272e+02
396             	3.13321702e+02
397             	3.13322161e+02
398             	3.13321734e+02
399             	3.13320573e+02
400             	3.13318281e+02
401             	3.13314536e+02
402             	3.13309537e+02
403             	3.13303487e+02
404             	3.13296743e+02
405             	3.13289899e+02
406             	3.13283793e+02
407             	3.13278745e+02
408             	3.13274117e+02
409             	3.13270682e+02
410             	3.13267943e+02
411             	3.13266166e+02
412             	3.13264657e+02
413             	3.13263187e+02
414             	3.13261766e+02
415             	3.13259427e+02
416             	3.13257687e+02
417             	3.13256288e+02
418             	3.13253814e+02
419             	3.13252003e+02
420             	3.13251218e+02
421             	3.13250626e+02
422             	3.13250260e+02
423             	3.13249835e+02
424             	3.13248789e+02
425             	3.13247328e+02
426             	3.13246391e+02
427             	3.13245948e+02
428             	3.13245994e+02
429             	3.13246645e+02
430             	3.13248310e+02
431             	3.13251564e+02
432             	3.13256474e+02
433             	3.13263031e+02
434             	3.13270877e+02
435             	3.13279730e+02
436             	3.13289609e+02
437             	3.13298491e+02
438             	3.13306375e+02
439             	3.13313023e+02
440             	3.13318456e+02
441             	3.13322611e+02
442             	3.13325508e+02
443             	3.13327497e+02
444             	3.13328741e+02
445             	3.13329697e+02
446             	3.13330268e+02
447             	3.13330931e+02
448             	3.13332230e+02
449             	3.13334458e+02
450             	3.13337651e+02
451             	3.13341550e+02
452             	3.13346123e+02
453             	3.13350133e+02
454             	3.13354651e+02
455             	3.13359186e+02
456             	3.13364340e+02
457             	3.13369576e+02
458             	3.13374851e+02
459             	3.13379805e+02
460             	3.13384140e+02
461             	3.13387461e+02
462             	3.13389680e+02
463             	3.13390762e+02
464             	3.13390460e+02
465             	3.13389039e+02
466             	3.13387097e+02
467             	3.13384636e+02
468             	3.13381766e+02
469             	3.13378592e+02
470             	3.13375215e+02
471             	3.13371727e+02
472             	3.13368145e+02
473             	3.13364159e+02
474             	3.13360554e+02
475             	3.13356233e+02
476             	3.13352912e+02
477             	3.13349385e+02
478             	3.13344251e+02
479             	3.13340472e+02
480             	3.13337755e+02
481             	3.13336325e+02
482             	3.13334406e+02
483             	3.13332337e+02
484             	3.13330612e+02
485             	3.13328645e+02
486             	3.13326845e+02
487             	3.13325017e+02
488             	3.13322984e+02
489             	3.13320349e+02
490             	3.13317269e+02
491             	3.13314187e+02
492             	3.13311569e+02
493             	3.13309949e+02
494             	3.13307906e+02
495             	3.13308199e+02
496             	3.13309592e+02
497             	3.13312444e+02
498             	3.13314924e+02
499             	3.13317106e+02
500             	3.13318815e+02
501             	3.13319887e+02
502             	3.13319077e+02
503             	3.13317828e+02
504             	3.13315958e+02
505             	3.13312761e+02
506             	3.13309650e+02
507             	3.13305404e+02
508             	3.13300804e+02
509             	3.13295628e+02
510             	3.13290030e+02
511             	3.13284721e+02
512             	3.13280153e+02
513             	3.13276179e+02
514             	3.13272843e+02
515             	3.13269309e+02
516             	3.13266674e+02
517             	3.13264341e+02
518             	3.13262246e+02
519             	3.13260509e+02
520             	3.13259815e+02
521             	3.13260331e+02
522             	3.13262163e+02
523             	3.13264635e+02
524             	3.13267920e+02
525             	3.13271639e+02
526             	3.13275381e+02
527             	3.13279293e+02
528             	3.13283028e+02
529             	3.13286330e+02
530             	3.13289210e+02
531             	3.13291857e+02
532             	3.13292940e+02
533             	3.13293873e+02
534             	3.13293810e+02
535             	3.13292501e+02
536             	3.13290351e+02
537             	3.13287119e+02
538             	3.13282619e+02
539             	3.13277296e+02
540             	3.13271388e+02
541             	3.13265001e+02
542             	3.13259452e+02
543             	3.13255148e+02
544             	3.13252537e+02
545             	3.13251692e+02
546             	3.13252725e+02
547             	3.13255358e+02
548             	3.13259266e+02
549             	3.13264049e+02
550             	3.13268630e+02
551             	3.13273139e+02
552             	3.13276939e+02
553             	3.13280390e+02
554             	3.13283094e+02
555             	3.13285245e+02
556             	3.13286649e+02
557             	3.13287310e+02
558             	3.13286698e+02
559             	3.13286024e+02
560             	3.13285778e+02
561             	3.13285223e+02
562             	3.13284476e+02
563             	3.13284662e+02
564             	3.13285156e+02
565             	3.13285483e+02
566             	3.13285495e+02
567             	3.13285210e+02
568             	3.13284592e+02
569             	3.13284342e+02
570             	3.13284433e+02
571             	3.13284933e+02
572             	3.13286002e+02
573             	3.13287822e+02
574             	3.13290564e+02
575             	3.13294343e+02
576             	3.13298774e+02
577             	3.13304067e+02
578             	3.13310217e+02
579             	3.13316361e+02
580             	3.13321967e+02
581             	3.13327040e+02
582             	3.13331313e+02
583             	3.13334609e+02
584             	3.13337048e+02
585             	3.13338613e+02
586             	3.13339431e+02
587             	3.13339486e+02
588             	3.13339320e+02
589             	3.13339063e+02
590             	3.13338347e+02
591             	3.13337215e+02
592             	3.13336558e+02
593             	3.13335938e+02
594             	3.13335302e+02
595             	3.13334744e+02
596             	3.13334423e+02
597             	3.13334313e+02
598             	3.13334232e+02
599             	3.13334107e+02
600             	3.13333953e+02
601             	3.13334041e+02
602             	3.13334350e+02
603             	3.13335355e+02
604             	3.13336576e+02
605             	3.13338396e+02
606             	3.13340167e+02
607             	3.13341869e+02
608             	3.13343290e+02
609             	3.13344498e+02
610             	3.13345179e+02
611             	3.13345366e+02
612             	3.13345157e+02
613             	3.13344688e+02
614             	3.13344158e+02
615             	3.13343863e+02
616             	3.13343846e+02
617             	3.13343628e+02
618             	3.13342952e+02
619             	3.13341925e+02
620             	3.13340888e+02
621             	3.13340092e+02
