# Region        : cellZone component_2
# Cells         : 76
# Volume        : 1.39501306e-01
# Time          	volAverage(T)
1               	3.03055886e+02
2               	3.06045188e+02
3               	3.08561974e+02
4               	3.10747997e+02
5               	3.12795582e+02
6               	3.14773053e+02
7               	3.16688977e+02
8               	3.18550547e+02
9               	3.20388344e+02
10              	3.22202646e+02
11              	3.23932579e+02
12              	3.25536138e+02
13              	3.26995167e+02
14              	3.28301737e+02
15              	3.29501073e+02
16              	3.30610845e+02
17              	3.31627861e+02
18              	3.32737135e+02
19              	3.33938998e+02
20              	3.35170981e+02
21              	3.36366323e+02
22              	3.37511741e+02
23              	3.38600286e+02
24              	3.39631422e+02
25              	3.40628922e+02
26              	3.41607280e+02
27              	3.42543381e+02
28              	3.43238537e+02
29              	3.43772941e+02
30              	3.44124994e+02
31              	3.44312630e+02
32              	3.44821555e+02
33              	3.45378163e+02
34              	3.45891780e+02
35              	3.46389069e+02
36              	3.46891718e+02
37              	3.47416643e+02
38              	3.47947571e+02
39              	3.48491708e+02
40              	3.49019147e+02
41              	3.49518196e+02
42              	3.50001560e+02
43              	3.50551366e+02
44              	3.51215395e+02
45              	3.51514723e+02
46              	3.51493092e+02
47              	3.51275543e+02
48              	3.51241915e+02
49              	3.51361478e+02
50              	3.51557921e+02
51              	3.51778107e+02
52              	3.51985056e+02
53              	3.52173192e+02
54              	3.52397093e+02
55              	3.52684854e+02
56              	3.53024224e+02
57              	3.53348565e+02
58              	3.53454967e+02
59              	3.53213175e+02
60              	3.53023963e+02
61              	3.53019642e+02
62              	3.53228169e+02
63              	3.53439208e+02
64              	3.53579379e+02
65              	3.53650105e+02
66              	3.53706398e+02
67              	3.53741985e+02
68              	3.53780674e+02
69              	3.53831457e+02
70              	3.53900067e+02
71              	3.54028929e+02
72              	3.54236718e+02
73              	3.54501828e+02
74              	3.54703741e+02
75              	3.54853223e+02
76              	3.54997598e+02
77              	3.55073254e+02
78              	3.55161865e+02
79              	3.55280762e+02
80              	3.55410252e+02
81              	3.55550092e+02
82              	3.55676894e+02
83              	3.55777591e+02
84              	3.55853745e+02
85              	3.55911597e+02
86              	3.55970698e+02
87              	3.56054279e+02
88              	3.56175834e+02
89              	3.56332711e+02
90              	3.56574413e+02
91              	3.56720617e+02
92              	3.56628216e+02
93              	3.56604155e+02
94              	3.56623042e+02
95              	3.56656654e+02
96              	3.56677385e+02
97              	3.56655643e+02
98              	3.56648648e+02
99              	3.56633356e+02
100             	3.56638531e+02
101             	3.56696253e+02
102             	3.56781347e+02
103             	3.56944683e+02
104             	3.57197295e+02
105             	3.57311187e+02
106             	3.57476560e+02
107             	3.57672800e+02
108             	3.57828927e+02
109             	3.57940367e+02
110             	3.57999139e+02
111             	3.58016726e+02
112             	3.58005280e+02
113             	3.57987826e+02
114             	3.57981431e+02
115             	3.57986454e+02
116             	3.58074244e+02
117             	3.58211996e+02
118             	3.58414354e+02
119             	3.58520588e+02
120             	3.58642438e+02
121             	3.58787721e+02
122             	3.58901561e+02
123             	3.58958909e+02
124             	3.58969312e+02
125             	3.58943826e+02
126             	3.58899398e+02
127             	3.58855391e+02
128             	3.58809416e+02
129             	3.58771825e+02
130             	3.58762932e+02
131             	3.58782006e+02
132             	3.58841466e+02
133             	3.58924863e+02
134             	3.59021029e+02
135             	3.59115550e+02
136             	3.59198079e+02
137             	3.59272424e+02
138             	3.59317452e+02
139             	3.59332024e+02
140             	3.59337308e+02
141             	3.59334841e+02
142             	3.59315469e+02
143             	3.59287237e+02
144             	3.59263003e+02
145             	3.59249459e+02
146             	3.59243782e+02
147             	3.59254609e+02
148             	3.59284606e+02
149             	3.59324237e+02
150             	3.59380199e+02
151             	3.59443797e+02
152             	3.59522648e+02
153             	3.59604954e+02
154             	3.59688498e+02
155             	3.59772206e+02
156             	3.59851319e+02
157             	3.59922847e+02
158             	3.59988455e+02
159             	3.60052594e+02
160             	3.60113478e+02
161             	3.60172804e+02
162             	3.60235824e+02
163             	3.60302613e+02
164             	3.60361949e+02
165             	3.60412332e+02
166             	3.60454825e+02
167             	3.60483074e+02
168             	3.60496629e+02
169             	3.60506944e+02
170             	3.60515350e+02
171             	3.60533596e+02
172             	3.60561613e+02
173             	3.60599859e+02
174             	3.60647182e+02
175             	3.60692870e+02
176             	3.60727098e+02
177             	3.60755693e+02
178             	3.60770269e+02
179             	3.60773483e+02
180             	3.60775911e+02
181             	3.60786154e+02
182             	3.60801908e+02
183             	3.60821767e+02
184             	3.60844035e+02
185             	3.60875524e+02
186             	3.60910625e+02
187             	3.60942620e+02
188             	3.60969239e+02
189             	3.60991827e+02
190             	3.61011347e+02
191             	3.61026657e+02
192             	3.61038799e+02
193             	3.61051846e+02
194             	3.61066893e+02
195             	3.61086890e+02
196             	3.61111849e+02
197             	3.61141648e+02
198             	3.61175147e+02
199             	3.61211121e+02
200             	3.61247435e+02
201             	3.61281641e+02
202             	3.61310704e+02
203             	3.61337686e+02
204             	3.61363232e+02
205             	3.61389026e+02
206             	3.61415063e+02
207             	3.61442528e+02
208             	3.61471743e+02
209             	3.61502076e+02
210             	3.61531783e+02
211             	3.61560525e+02
212             	3.61586097e+02
213             	3.61605924e+02
214             	3.61621349e+02
215             	3.61636734e+02
216             	3.61652499e+02
217             	3.61668668e+02
218             	3.61683685e+02
219             	3.61701732e+02
220             	3.61719251e+02
221             	3.61733643e+02
222             	3.61744302e+02
223             	3.61750827e+02
224             	3.61753926e+02
225             	3.61752969e+02
226             	3.61750491e+02
227             	3.61752634e+02
228             	3.61756972e+02
229             	3.61764825e+02
230             	3.61777324e+02
231             	3.61792995e+02
232             	3.61808449e+02
233             	3.61822960e+02
234             	3.61836514e+02
235             	3.61846607e+02
236             	3.61854486e+02
237             	3.61862277e+02
238             	3.61874612e+02
239             	3.61888939e+02
240             	3.61905223e+02
241             	3.61923583e+02
242             	3.61943381e+02
243             	3.61961990e+02
244             	3.61980801e+02
245             	3.61998442e+02
246             	3.62014037e+02
247             	3.62028560e+02
248             	3.62041846e+02
249             	3.62054349e+02
250             	3.62066706e+02
251             	3.62079261e+02
252             	3.62091788e+02
253             	3.62103528e+02
254             	3.62114895e+02
255             	3.62126110e+02
256             	3.62136810e+02
257             	3.62148820e+02
258             	3.62162968e+02
259             	3.62177654e+02
260             	3.62192407e+02
261             	3.62206479e+02
262             	3.62218545e+02
263             	3.62228521e+02
264             	3.62236308e+02
265             	3.62242530e+02
266             	3.62247594e+02
267             	3.62252157e+02
268             	3.62257239e+02
269             	3.62262699e+02
270             	3.62266583e+02
271             	3.62270961e+02
272             	3.62275706e+02
273             	3.62279776e+02
274             	3.62282533e+02
275             	3.62284655e+02
276             	3.62286043e+02
277             	3.62286652e+02
278             	3.62286785e+02
279             	3.62287512e+02
280             	3.62289117e+02
281             	3.62290983e+02
282             	3.62293100e+02
283             	3.62296110e+02
284             	3.62300537e+02
285             	3.62305262e+02
286             	3.62310226e+02
287             	3.62315187e+02
288             	3.62319883e+02
289             	3.62324624e+02
290             	3.62328230e+02
291             	3.62331267e+02
292             	3.62333217e+02
293             	3.62334439e+02
294             	3.62335712e+02
295             	3.62337121e+02
296             	3.62338931e+02
297             	3.62341128e+02
298             	3.62343925e+02
299             	3.62347377e+02
300             	3.62351380e+02
301             	3.62355641e+02
302             	3.62360548e+02
303             	3.62365316e+02
304             	3.62370120e+02
305             	3.62374822e+02
306             	3.62379417e+02
307             	3.62383794e+02
308             	3.62387811e+02
309             	3.62391556e+02
310             	3.62394988e+02
311             	3.62398347e+02
312             	3.62401628e+02
313             	3.62404930e+02
314             	3.62408215e+02
315             	3.62411152e+02
316             	3.62413726e+02
317             	3.62415772e+02
318             	3.62417262e+02
319             	3.62418350e+02
320             	3.62419163e+02
321             	3.62419800e+02
322             	3.62420284e+02
323             	3.62420765e+02
324             	3.62421341e+02
325             	3.62421952e+02
326             	3.62422550e+02
327             	3.62423118e+02
328             	3.62423717e+02
329             	3.62424273e+02
330             	3.62424748e+02
331             	3.62425075e+02
332             	3.62425217e+02
333             	3.62425220e+02
334             	3.62425009e+02
335             	3.62424605e+02
336             	3.62424167e+02
337             	3.62423695e+02
338             	3.62423253e+02
339             	3.62422953e+02
340             	3.62422847e+02
341             	3.62422961e+02
342             	3.62423322e+02
343             	3.62423781e+02
344             	3.62424440e+02
345             	3.62425204e+02
346             	3.62425977e+02
347             	3.62426770e+02
348             	3.62427518e+02
349             	3.62428308e+02
350             	3.62429238e+02
351             	3.62430263e+02
352             	3.62431390e+02
353             	3.62432628e+02
354             	3.62433943e+02
355             	3.62435262e+02
356             	3.62436409e+02
357             	3.62437511e+02
358             	3.62438512e+02
359             	3.62439381e+02
360             	3.62440134e+02
361             	3.62440807e+02
362             	3.62441435e+02
363             	3.62442066e+02
364             	3.62442691e+02
365             	3.62443258e+02
366             	3.62443715e+02
367             	3.62444067e+02
368             	3.62444326e+02
369             	3.62444501e+02
370             	3.62444582e+02
371             	3.62444533e+02
372             	3.62444317e+02
373             	3.62443916e+02
374             	3.62443362e+02
375             	3.62442727e+02
376             	3.62441988e+02
377             	3.62441201e+02
378             	3.62440425e+02
379             	3.62439798e+02
380             	3.62439262e+02
381             	3.62438819e+02
382             	3.62438492e+02
383             	3.62438242e+02
384             	3.62438031e+02
385             	3.62437830e+02
386             	3.62437653e+02
387             	3.62437543e+02
388             	3.62437519e+02
389             	3.62437585e+02
390             	3.62437762e+02
391             	3.62438003e+02
392             	3.62438237e+02
393             	3.62438541e+02
394             	3.62438867e+02
395             	3.62439222e+02
396             	3.62439595e+02
397             	3.62440021e+02
398             	3.62440485e+02
399             	3.62440997e+02
400             	3.62441585e+02
401             	3.62442280e+02
402             	3.62443003e+02
403             	3.62443717e+02
404             	3.62444419e+02
405             	3.62445092e+02
406             	3.62445735e+02
407             	3.62446334e+02
408             	3.62446878e+02
409             	3.62447372e+02
410             	3.62447835e+02
411             	3.62448219e+02
412             	3.62448574e+02
413             	3.62448817e+02
414             	3.62449002e+02
415             	3.62449089e+02
416             	3.62449124e+02
417             	3.62449105e+02
418             	3.62449045e+02
419             	3.62448958e+02
420             	3.62448881e+02
421             	3.62448813e+02
422             	3.62448774e+02
423             	3.62448763e+02
424             	3.62448826e+02
425             	3.62448917e+02
426             	3.62449030e+02
427             	3.62449140e+02
428             	3.62449233e+02
429             	3.62449320e+02
430             	3.62449410e+02
431             	3.62449485e+02
432             	3.62449563e+02
433             	3.62449613e+02
434             	3.62449615e+02
435             	3.62449603e+02
436             	3.62449564e+02
437             	3.62449490e+02
438             	3.62449388e+02
439             	3.62449283e+02
440             	3.62449203e+02
441             	3.62449214e+02
442             	3.62449298e+02
443             	3.62449448e+02
444             	3.62449668e+02
445             	3.62449962e+02
446             	3.62450290e+02
447             	3.62450616e+02
448             	3.62450890e+02
449             	3.62451121e+02
450             	3.62451288e+02
451             	3.62451376e+02
452             	3.62451389e+02
453             	3.62451349e+02
454             	3.62451267e+02
455             	3.62451167e+02
456             	3.62451084e+02
457             	3.62451046e+02
458             	3.62451034e+02
459             	3.62451062e+02
460             	3.62451127e+02
461             	3.62451215e+02
462             	3.62451334e+02
463             	3.62451442e+02
464             	3.62451519e+02
465             	3.62451582e+02
466             	3.62451621e+02
467             	3.62451613e+02
468             	3.62451572e+02
469             	3.62451498e+02
470             	3.62451400e+02
471             	3.62451289e+02
472             	3.62451176e+02
473             	3.62451071e+02
474             	3.62451005e+02
475             	3.62450986e+02
476             	3.62451000e+02
477             	3.62451058e+02
478             	3.62451150e+02
479             	3.62451268e+02
480             	3.62451394e+02
481             	3.62451517e+02
482             	3.62451630e+02
483             	3.62451727e+02
484             	3.62451803e+02
485             	3.62451837e+02
486             	3.62451850e+02
487             	3.62451848e+02
488             	3.62451835e+02
489             	3.62451817e+02
490             	3.62451801e+02
491             	3.62451794e+02
492             	3.62451789e+02
493             	3.62451800e+02
494             	3.62451851e+02
495             	3.62451910e+02
496             	3.62451986e+02
497             	3.62452092e+02
498             	3.62452222e+02
499             	3.62452359e+02
500             	3.62452450e+02
501             	3.62452499e+02
502             	3.62452511e+02
503             	3.62452472e+02
504             	3.62452384e+02
505             	3.62452265e+02
506             	3.62452163e+02
507             	3.62452087e+02
508             	3.62452049e+02
509             	3.62452060e+02
510             	3.62452123e+02
511             	3.62452231e+02
512             	3.62452340e+02
513             	3.62452437e+02
514             	3.62452516e+02
515             	3.62452562e+02
516             	3.62452567e+02
517             	3.62452532e+02
518             	3.62452466e+02
519             	3.62452397e+02
520             	3.62452329e+02
521             	3.62452277e+02
522             	3.62452258e+02
523             	3.62452275e+02
524             	3.62452326e+02
525             	3.62452401e+02
526             	3.62452487e+02
527             	3.62452577e+02
528             	3.62452661e+02
529             	3.62452732e+02
530             	3.62452784e+02
531             	3.62452800e+02
532             	3.62452804e+02
533             	3.62452799e+02
534             	3.62452780e+02
535             	3.62452746e+02
536             	3.62452712e+02
537             	3.62452688e+02
538             	3.62452667e+02
539             	3.62452675e+02
540             	3.62452709e+02
541             	3.62452765e+02
542             	3.62452843e+02
543             	3.62452937e+02
544             	3.62453020e+02
545             	3.62453077e+02
546             	3.62453116e+02
547             	3.62453130e+02
548             	3.62453097e+02
549             	3.62453032e+02
550             	3.62452961e+02
551             	3.62452888e+02
552             	3.62452837e+02
553             	3.62452818e+02
554             	3.62452825e+02
555             	3.62452854e+02
556             	3.62452915e+02
557             	3.62452994e+02
558             	3.62453078e+02
559             	3.62453155e+02
560             	3.62453220e+02
561             	3.62453268e+02
562             	3.62453282e+02
563             	3.62453281e+02
564             	3.62453270e+02
565             	3.62453252e+02
566             	3.62453231e+02
567             	3.62453208e+02
568             	3.62453192e+02
569             	3.62453186e+02
570             	3.62453193e+02
571             	3.62453226e+02
572             	3.62453270e+02
573             	3.62453326e+02
574             	3.62453391e+02
575             	3.62453464e+02
576             	3.62453536e+02
577             	3.62453592e+02
578             	3.62453620e+02
579             	3.62453631e+02
580             	3.62453621e+02
581             	3.62453594e+02
582             	3.62453551e+02
583             	3.62453502e+02
584             	3.62453452e+02
585             	3.62453403e+02
586             	3.62453381e+02
587             	3.62453385e+02
588             	3.62453407e+02
589             	3.62453449e+02
590             	3.62453505e+02
591             	3.62453570e+02
592             	3.62453624e+02
593             	3.62453667e+02
594             	3.62453687e+02
595             	3.62453695e+02
596             	3.62453680e+02
597             	3.62453634e+02
598             	3.62453570e+02
599             	3.62453507e+02
600             	3.62453463e+02
601             	3.62453422e+02
602             	3.62453397e+02
603             	3.62453399e+02
604             	3.62453423e+02
605             	3.62453470e+02
606             	3.62453526e+02
607             	3.62453567e+02
608             	3.62453600e+02
609             	3.62453616e+02
610             	3.62453620e+02
611             	3.62453607e+02
612             	3.62453572e+02
613             	3.62453520e+02
614             	3.62453467e+02
615             	3.62453440e+02
616             	3.62453442e+02
617             	3.62453467e+02
618             	3.62453519e+02
619             	3.62453606e+02
620             	3.62453708e+02
621             	3.62453783e+02
