# Region        : cellZone component_3
# Cells         : 83
# Volume        : 1.57366802e-01
# Time          	volAverage(T)
1               	3.03252211e+02
2               	3.06444769e+02
3               	3.09153315e+02
4               	3.11547769e+02
5               	3.13821452e+02
6               	3.16037708e+02
7               	3.18194358e+02
8               	3.20282696e+02
9               	3.22314584e+02
10              	3.24263315e+02
11              	3.26158835e+02
12              	3.27969285e+02
13              	3.29617008e+02
14              	3.31204878e+02
15              	3.32619811e+02
16              	3.34019257e+02
17              	3.35413540e+02
18              	3.36868270e+02
19              	3.38421665e+02
20              	3.39506963e+02
21              	3.40276169e+02
22              	3.40826446e+02
23              	3.41503257e+02
24              	3.42341627e+02
25              	3.43246163e+02
26              	3.44182024e+02
27              	3.45142179e+02
28              	3.46133663e+02
29              	3.47201536e+02
30              	3.48275667e+02
31              	3.49206777e+02
32              	3.49842095e+02
33              	3.50298164e+02
34              	3.50633200e+02
35              	3.50955149e+02
36              	3.51376143e+02
37              	3.51847045e+02
38              	3.52191491e+02
39              	3.52118615e+02
40              	3.51894190e+02
41              	3.51742972e+02
42              	3.51654443e+02
43              	3.51934447e+02
44              	3.52493374e+02
45              	3.52961025e+02
46              	3.53286298e+02
47              	3.53563116e+02
48              	3.53727208e+02
49              	3.54059201e+02
50              	3.54380542e+02
51              	3.54703181e+02
52              	3.54988435e+02
53              	3.55163207e+02
54              	3.55247281e+02
55              	3.55171759e+02
56              	3.55042551e+02
57              	3.54839002e+02
58              	3.54582989e+02
59              	3.54686809e+02
60              	3.54883987e+02
61              	3.55110701e+02
62              	3.55304175e+02
63              	3.55538444e+02
64              	3.55816748e+02
65              	3.56078451e+02
66              	3.56313422e+02
67              	3.56573613e+02
68              	3.56736356e+02
69              	3.56829592e+02
70              	3.56691857e+02
71              	3.56363441e+02
72              	3.55972623e+02
73              	3.55667076e+02
74              	3.55475934e+02
75              	3.55499480e+02
76              	3.55680395e+02
77              	3.55885402e+02
78              	3.56073818e+02
79              	3.56250285e+02
80              	3.56431717e+02
81              	3.56584204e+02
82              	3.56853569e+02
83              	3.57130490e+02
84              	3.57511966e+02
85              	3.57906469e+02
86              	3.58291012e+02
87              	3.58701243e+02
88              	3.59124906e+02
89              	3.59541577e+02
90              	3.59928761e+02
91              	3.60266069e+02
92              	3.60642280e+02
93              	3.61035291e+02
94              	3.61240247e+02
95              	3.61368510e+02
96              	3.61596645e+02
97              	3.61913150e+02
98              	3.62094758e+02
99              	3.62196816e+02
100             	3.62270111e+02
101             	3.62360978e+02
102             	3.62516549e+02
103             	3.62699251e+02
104             	3.62874796e+02
105             	3.63001112e+02
106             	3.63056360e+02
107             	3.63060024e+02
108             	3.63066628e+02
109             	3.62904666e+02
110             	3.62627614e+02
111             	3.62316972e+02
112             	3.62015457e+02
113             	3.61846449e+02
114             	3.61919084e+02
115             	3.62180388e+02
116             	3.62427963e+02
117             	3.62494201e+02
118             	3.62602593e+02
119             	3.62792654e+02
120             	3.63039868e+02
121             	3.63298295e+02
122             	3.63580714e+02
123             	3.63848615e+02
124             	3.64107323e+02
125             	3.64333482e+02
126             	3.64514204e+02
127             	3.64640915e+02
128             	3.64791199e+02
129             	3.64959231e+02
130             	3.64985661e+02
131             	3.64878029e+02
132             	3.64861234e+02
133             	3.64867813e+02
134             	3.64848320e+02
135             	3.64766894e+02
136             	3.64686606e+02
137             	3.64690209e+02
138             	3.64787701e+02
139             	3.64948570e+02
140             	3.65115641e+02
141             	3.65246993e+02
142             	3.65343032e+02
143             	3.65423737e+02
144             	3.65467367e+02
145             	3.65537343e+02
146             	3.65482113e+02
147             	3.65397622e+02
148             	3.65417706e+02
149             	3.65504097e+02
150             	3.65560054e+02
151             	3.65547614e+02
152             	3.65561598e+02
153             	3.65554664e+02
154             	3.65639073e+02
155             	3.65767935e+02
156             	3.65770830e+02
157             	3.65933346e+02
158             	3.66092464e+02
159             	3.66328597e+02
160             	3.66618039e+02
161             	3.66940940e+02
162             	3.67206043e+02
163             	3.67486123e+02
164             	3.67661663e+02
165             	3.67726979e+02
166             	3.67713014e+02
167             	3.67677595e+02
168             	3.67603620e+02
169             	3.67491321e+02
170             	3.67365018e+02
171             	3.67307684e+02
172             	3.67290975e+02
173             	3.67287351e+02
174             	3.67205554e+02
175             	3.67109650e+02
176             	3.67093483e+02
177             	3.67147085e+02
178             	3.67220405e+02
179             	3.67297770e+02
180             	3.67470048e+02
181             	3.67685037e+02
182             	3.67938750e+02
183             	3.68189113e+02
184             	3.68428335e+02
185             	3.68613674e+02
186             	3.68750945e+02
187             	3.68872927e+02
188             	3.69013359e+02
189             	3.69115573e+02
190             	3.69257138e+02
191             	3.69390926e+02
192             	3.69529089e+02
193             	3.69680302e+02
194             	3.69818010e+02
195             	3.69965251e+02
196             	3.70148398e+02
197             	3.70351881e+02
198             	3.70585784e+02
199             	3.70829876e+02
200             	3.71055246e+02
201             	3.71254324e+02
202             	3.71422023e+02
203             	3.71586400e+02
204             	3.71710444e+02
205             	3.71863769e+02
206             	3.71834769e+02
207             	3.71678658e+02
208             	3.71701369e+02
209             	3.71829391e+02
210             	3.71927315e+02
211             	3.71878793e+02
212             	3.71864834e+02
213             	3.71822448e+02
214             	3.71829094e+02
215             	3.71835194e+02
216             	3.71763104e+02
217             	3.71551283e+02
218             	3.71366451e+02
219             	3.71171881e+02
220             	3.71039048e+02
221             	3.70924009e+02
222             	3.70807975e+02
223             	3.70769566e+02
224             	3.70685259e+02
225             	3.70483621e+02
226             	3.70288040e+02
227             	3.70148782e+02
228             	3.70049136e+02
229             	3.69982116e+02
230             	3.69946722e+02
231             	3.69899944e+02
232             	3.69899052e+02
233             	3.69922393e+02
234             	3.69927952e+02
235             	3.69932265e+02
236             	3.69967073e+02
237             	3.70036916e+02
238             	3.70132014e+02
239             	3.70224648e+02
240             	3.70259266e+02
241             	3.70307161e+02
242             	3.70380576e+02
243             	3.70450125e+02
244             	3.70518818e+02
245             	3.70615229e+02
246             	3.70729450e+02
247             	3.70868815e+02
248             	3.71048527e+02
249             	3.71275032e+02
250             	3.71536112e+02
251             	3.71824434e+02
252             	3.72091360e+02
253             	3.72332995e+02
254             	3.72528873e+02
255             	3.72700161e+02
256             	3.72851344e+02
257             	3.73005738e+02
258             	3.73170556e+02
259             	3.73318481e+02
260             	3.73464934e+02
261             	3.73611299e+02
262             	3.73739381e+02
263             	3.73885819e+02
264             	3.74047992e+02
265             	3.74154870e+02
266             	3.74283577e+02
267             	3.74440581e+02
268             	3.74636081e+02
269             	3.74864244e+02
270             	3.75093381e+02
271             	3.75307173e+02
272             	3.75503681e+02
273             	3.75633620e+02
274             	3.75640445e+02
275             	3.75600791e+02
276             	3.75477814e+02
277             	3.75373348e+02
278             	3.75283610e+02
279             	3.75155862e+02
280             	3.75026676e+02
281             	3.74885655e+02
282             	3.74762621e+02
283             	3.74652971e+02
284             	3.74606593e+02
285             	3.74601663e+02
286             	3.74605158e+02
287             	3.74637164e+02
288             	3.74679113e+02
289             	3.74741574e+02
290             	3.74815905e+02
291             	3.74901737e+02
292             	3.74983253e+02
293             	3.75037373e+02
294             	3.75059048e+02
295             	3.75075695e+02
296             	3.75072102e+02
297             	3.75047958e+02
298             	3.75026193e+02
299             	3.75015910e+02
300             	3.75007819e+02
301             	3.75009473e+02
302             	3.74978584e+02
303             	3.75003724e+02
304             	3.75112221e+02
305             	3.75263543e+02
306             	3.75453619e+02
307             	3.75680524e+02
308             	3.75924338e+02
309             	3.76203235e+02
310             	3.76498566e+02
311             	3.76787027e+02
312             	3.77036791e+02
313             	3.77227503e+02
314             	3.77381841e+02
315             	3.77505568e+02
316             	3.77619694e+02
317             	3.77703869e+02
318             	3.77744468e+02
319             	3.77743161e+02
320             	3.77717537e+02
321             	3.77661465e+02
322             	3.77598931e+02
323             	3.77527572e+02
324             	3.77424089e+02
325             	3.77332983e+02
326             	3.77259378e+02
327             	3.77223588e+02
328             	3.77230117e+02
329             	3.77274069e+02
330             	3.77344952e+02
331             	3.77420846e+02
332             	3.77487950e+02
333             	3.77543017e+02
334             	3.77568937e+02
335             	3.77579624e+02
336             	3.77558056e+02
337             	3.77526891e+02
338             	3.77486468e+02
339             	3.77423020e+02
340             	3.77350303e+02
341             	3.77304678e+02
342             	3.77292943e+02
343             	3.77318798e+02
344             	3.77362662e+02
345             	3.77457143e+02
346             	3.77574968e+02
347             	3.77723177e+02
348             	3.77892321e+02
349             	3.78067424e+02
350             	3.78260162e+02
351             	3.78458342e+02
352             	3.78647195e+02
353             	3.78786723e+02
354             	3.78893950e+02
355             	3.78954179e+02
356             	3.78938172e+02
357             	3.78877631e+02
358             	3.78773087e+02
359             	3.78679186e+02
360             	3.78603628e+02
361             	3.78577456e+02
362             	3.78582922e+02
363             	3.78625745e+02
364             	3.78689396e+02
365             	3.78794667e+02
366             	3.78929005e+02
367             	3.79092717e+02
368             	3.79283364e+02
369             	3.79493435e+02
370             	3.79717197e+02
371             	3.79923466e+02
372             	3.80094394e+02
373             	3.80249304e+02
374             	3.80393502e+02
375             	3.80486935e+02
376             	3.80528624e+02
377             	3.80518389e+02
378             	3.80481271e+02
379             	3.80416393e+02
380             	3.80323994e+02
381             	3.80231720e+02
382             	3.80138757e+02
383             	3.80067216e+02
384             	3.79987464e+02
385             	3.79960584e+02
386             	3.79933945e+02
387             	3.79925237e+02
388             	3.79971583e+02
389             	3.80055222e+02
390             	3.80161629e+02
391             	3.80308118e+02
392             	3.80449794e+02
393             	3.80578869e+02
394             	3.80703171e+02
395             	3.80778863e+02
396             	3.80830823e+02
397             	3.80872496e+02
398             	3.80900723e+02
399             	3.80914167e+02
400             	3.80913433e+02
401             	3.80893528e+02
402             	3.80856790e+02
403             	3.80810507e+02
404             	3.80759016e+02
405             	3.80704377e+02
406             	3.80661006e+02
407             	3.80638978e+02
408             	3.80635730e+02
409             	3.80656075e+02
410             	3.80698989e+02
411             	3.80758481e+02
412             	3.80832902e+02
413             	3.80932818e+02
414             	3.81052687e+02
415             	3.81183102e+02
416             	3.81331080e+02
417             	3.81489223e+02
418             	3.81648083e+02
419             	3.81804039e+02
420             	3.81952544e+02
421             	3.82093316e+02
422             	3.82232991e+02
423             	3.82357060e+02
424             	3.82466605e+02
425             	3.82552421e+02
426             	3.82625772e+02
427             	3.82683760e+02
428             	3.82718522e+02
429             	3.82744091e+02
430             	3.82743587e+02
431             	3.82743316e+02
432             	3.82739465e+02
433             	3.82730556e+02
434             	3.82729017e+02
435             	3.82716061e+02
436             	3.82686518e+02
437             	3.82684359e+02
438             	3.82707667e+02
439             	3.82760821e+02
440             	3.82816680e+02
441             	3.82869057e+02
442             	3.82925084e+02
443             	3.82976734e+02
444             	3.83022863e+02
445             	3.83049233e+02
446             	3.83086726e+02
447             	3.83128036e+02
448             	3.83161652e+02
449             	3.83177477e+02
450             	3.83179830e+02
451             	3.83179185e+02
452             	3.83174652e+02
453             	3.83169549e+02
454             	3.83166712e+02
455             	3.83173466e+02
456             	3.83194460e+02
457             	3.83222187e+02
458             	3.83257556e+02
459             	3.83299336e+02
460             	3.83348090e+02
461             	3.83404095e+02
462             	3.83467250e+02
463             	3.83538579e+02
464             	3.83615575e+02
465             	3.83702186e+02
466             	3.83798021e+02
467             	3.83904489e+02
468             	3.84014063e+02
469             	3.84118698e+02
470             	3.84222555e+02
471             	3.84322701e+02
472             	3.84422366e+02
473             	3.84516947e+02
474             	3.84601922e+02
475             	3.84674290e+02
476             	3.84735733e+02
477             	3.84785022e+02
478             	3.84820863e+02
479             	3.84844586e+02
480             	3.84842833e+02
481             	3.84833485e+02
482             	3.84817200e+02
483             	3.84797067e+02
484             	3.84775535e+02
485             	3.84750321e+02
486             	3.84714449e+02
487             	3.84676524e+02
488             	3.84634780e+02
489             	3.84597127e+02
490             	3.84566652e+02
491             	3.84528793e+02
492             	3.84485706e+02
493             	3.84444725e+02
494             	3.84406910e+02
495             	3.84376682e+02
496             	3.84343464e+02
497             	3.84324042e+02
498             	3.84309670e+02
499             	3.84297067e+02
500             	3.84287818e+02
501             	3.84283640e+02
502             	3.84281206e+02
503             	3.84286119e+02
504             	3.84298221e+02
505             	3.84312283e+02
506             	3.84342620e+02
507             	3.84373755e+02
508             	3.84417680e+02
509             	3.84470718e+02
510             	3.84527654e+02
511             	3.84578002e+02
512             	3.84628551e+02
513             	3.84681543e+02
514             	3.84738310e+02
515             	3.84799916e+02
516             	3.84866216e+02
517             	3.84936780e+02
518             	3.85011616e+02
519             	3.85091049e+02
520             	3.85177942e+02
521             	3.85269525e+02
522             	3.85359876e+02
523             	3.85450526e+02
524             	3.85535821e+02
525             	3.85610228e+02
526             	3.85678658e+02
527             	3.85749102e+02
528             	3.85811621e+02
529             	3.85864930e+02
530             	3.85894001e+02
531             	3.85905964e+02
532             	3.85898969e+02
533             	3.85880535e+02
534             	3.85854947e+02
535             	3.85826984e+02
536             	3.85794930e+02
537             	3.85757600e+02
538             	3.85712702e+02
539             	3.85665629e+02
540             	3.85623120e+02
541             	3.85592915e+02
542             	3.85559480e+02
543             	3.85539698e+02
544             	3.85531808e+02
545             	3.85533925e+02
546             	3.85542135e+02
547             	3.85550038e+02
548             	3.85556975e+02
549             	3.85557102e+02
550             	3.85556765e+02
551             	3.85562034e+02
552             	3.85576645e+02
553             	3.85600788e+02
554             	3.85627675e+02
555             	3.85649940e+02
556             	3.85675443e+02
557             	3.85693264e+02
558             	3.85714730e+02
559             	3.85733094e+02
560             	3.85754322e+02
561             	3.85779643e+02
562             	3.85811250e+02
563             	3.85849709e+02
564             	3.85888583e+02
565             	3.85936214e+02
566             	3.85987909e+02
567             	3.86048265e+02
568             	3.86110564e+02
569             	3.86178763e+02
570             	3.86240319e+02
571             	3.86302039e+02
572             	3.86364455e+02
573             	3.86423539e+02
574             	3.86478736e+02
575             	3.86530939e+02
576             	3.86580810e+02
577             	3.86625222e+02
578             	3.86663817e+02
579             	3.86696427e+02
580             	3.86722152e+02
581             	3.86740345e+02
582             	3.86743825e+02
583             	3.86736589e+02
584             	3.86721771e+02
585             	3.86698958e+02
586             	3.86674507e+02
587             	3.86644106e+02
588             	3.86618131e+02
589             	3.86592005e+02
590             	3.86562500e+02
591             	3.86524181e+02
592             	3.86481947e+02
593             	3.86439958e+02
594             	3.86390770e+02
595             	3.86339456e+02
596             	3.86296254e+02
597             	3.86257315e+02
598             	3.86218555e+02
599             	3.86189719e+02
600             	3.86168146e+02
601             	3.86149830e+02
602             	3.86135108e+02
603             	3.86124316e+02
604             	3.86105138e+02
605             	3.86087805e+02
606             	3.86078246e+02
607             	3.86080128e+02
608             	3.86091591e+02
609             	3.86112225e+02
610             	3.86135274e+02
611             	3.86165536e+02
612             	3.86195064e+02
613             	3.86232558e+02
614             	3.86278255e+02
615             	3.86327990e+02
616             	3.86377180e+02
617             	3.86425754e+02
618             	3.86477315e+02
619             	3.86527422e+02
620             	3.86578482e+02
621             	3.86626368e+02
