# Region        : cellZone component_3
# Cells         : 386
# Volume        : 7.90334635e-01
# Time          	volAverage(T)
1               	3.00222008e+02
2               	3.00440969e+02
3               	3.00638807e+02
4               	3.00822648e+02
5               	3.01000393e+02
6               	3.01174726e+02
7               	3.01343885e+02
8               	3.01511754e+02
9               	3.01676601e+02
10              	3.01838756e+02
11              	3.01997173e+02
12              	3.02152802e+02
13              	3.02305340e+02
14              	3.02455026e+02
15              	3.02603986e+02
16              	3.02749919e+02
17              	3.02894397e+02
18              	3.03036488e+02
19              	3.03177633e+02
20              	3.03316848e+02
21              	3.03454410e+02
22              	3.03592035e+02
23              	3.03726753e+02
24              	3.03857296e+02
25              	3.03984715e+02
26              	3.04109296e+02
27              	3.04235544e+02
28              	3.04351254e+02
29              	3.04461406e+02
30              	3.04570099e+02
31              	3.04676931e+02
32              	3.04787879e+02
33              	3.04895026e+02
34              	3.05000429e+02
35              	3.05102498e+02
36              	3.05201991e+02
37              	3.05299510e+02
38              	3.05394007e+02
39              	3.05486638e+02
40              	3.05576799e+02
41              	3.05663750e+02
42              	3.05747983e+02
43              	3.05834065e+02
44              	3.05915616e+02
45              	3.05996579e+02
46              	3.06079616e+02
47              	3.06158221e+02
48              	3.06232416e+02
49              	3.06304521e+02
50              	3.06378145e+02
51              	3.06446715e+02
52              	3.06512119e+02
53              	3.06574848e+02
54              	3.06636002e+02
55              	3.06695242e+02
56              	3.06754099e+02
57              	3.06811877e+02
58              	3.06868881e+02
59              	3.06928398e+02
60              	3.06986985e+02
61              	3.07047313e+02
62              	3.07108379e+02
63              	3.07169389e+02
64              	3.07226997e+02
65              	3.07288560e+02
66              	3.07346856e+02
67              	3.07404468e+02
68              	3.07462488e+02
69              	3.07517049e+02
70              	3.07567974e+02
71              	3.07616604e+02
72              	3.07664146e+02
73              	3.07711408e+02
74              	3.07758630e+02
75              	3.07805548e+02
76              	3.07851946e+02
77              	3.07898571e+02
78              	3.07945143e+02
79              	3.07993193e+02
80              	3.08041691e+02
81              	3.08088847e+02
82              	3.08134837e+02
83              	3.08180044e+02
84              	3.08224597e+02
85              	3.08264715e+02
86              	3.08303713e+02
87              	3.08343084e+02
88              	3.08384680e+02
89              	3.08423040e+02
90              	3.08461104e+02
91              	3.08495829e+02
92              	3.08528256e+02
93              	3.08558032e+02
94              	3.08588522e+02
95              	3.08622013e+02
96              	3.08658722e+02
97              	3.08699012e+02
98              	3.08737041e+02
99              	3.08775468e+02
100             	3.08802989e+02
101             	3.08830256e+02
102             	3.08856628e+02
103             	3.08881588e+02
104             	3.08905239e+02
105             	3.08928367e+02
106             	3.08952621e+02
107             	3.08978825e+02
108             	3.09007251e+02
109             	3.09038370e+02
110             	3.09070718e+02
111             	3.09098277e+02
112             	3.09126681e+02
113             	3.09155404e+02
114             	3.09184069e+02
115             	3.09212306e+02
116             	3.09239744e+02
117             	3.09268223e+02
118             	3.09295501e+02
119             	3.09323711e+02
120             	3.09350139e+02
121             	3.09375337e+02
122             	3.09399922e+02
123             	3.09422990e+02
124             	3.09444154e+02
125             	3.09463586e+02
126             	3.09481537e+02
127             	3.09498206e+02
128             	3.09515272e+02
129             	3.09532864e+02
130             	3.09553270e+02
131             	3.09577098e+02
132             	3.09602547e+02
133             	3.09629520e+02
134             	3.09654580e+02
135             	3.09678208e+02
136             	3.09698694e+02
137             	3.09716625e+02
138             	3.09732739e+02
139             	3.09747968e+02
140             	3.09763619e+02
141             	3.09780420e+02
142             	3.09798820e+02
143             	3.09818300e+02
144             	3.09838214e+02
145             	3.09857290e+02
146             	3.09875180e+02
147             	3.09892032e+02
148             	3.09906548e+02
149             	3.09920056e+02
150             	3.09934736e+02
151             	3.09951090e+02
152             	3.09969473e+02
153             	3.09989347e+02
154             	3.10009415e+02
155             	3.10029548e+02
156             	3.10049019e+02
157             	3.10066328e+02
158             	3.10080576e+02
159             	3.10092807e+02
160             	3.10104027e+02
161             	3.10114871e+02
162             	3.10126958e+02
163             	3.10141368e+02
164             	3.10157704e+02
165             	3.10174465e+02
166             	3.10191397e+02
167             	3.10207051e+02
168             	3.10220563e+02
169             	3.10232568e+02
170             	3.10243013e+02
171             	3.10252598e+02
172             	3.10262131e+02
173             	3.10272352e+02
174             	3.10283631e+02
175             	3.10296791e+02
176             	3.10311064e+02
177             	3.10326185e+02
178             	3.10342043e+02
179             	3.10358258e+02
180             	3.10374073e+02
181             	3.10389040e+02
182             	3.10402747e+02
183             	3.10414922e+02
184             	3.10426112e+02
185             	3.10436342e+02
186             	3.10445925e+02
187             	3.10455203e+02
188             	3.10464487e+02
189             	3.10473766e+02
190             	3.10483345e+02
191             	3.10493292e+02
192             	3.10503276e+02
193             	3.10513303e+02
194             	3.10522907e+02
195             	3.10532201e+02
196             	3.10541710e+02
197             	3.10551525e+02
198             	3.10561486e+02
199             	3.10572060e+02
200             	3.10583140e+02
201             	3.10594119e+02
202             	3.10604958e+02
203             	3.10614677e+02
204             	3.10623052e+02
205             	3.10630458e+02
206             	3.10637293e+02
207             	3.10643724e+02
208             	3.10649799e+02
209             	3.10655795e+02
210             	3.10662204e+02
211             	3.10668997e+02
212             	3.10676410e+02
213             	3.10684702e+02
214             	3.10693575e+02
215             	3.10702747e+02
216             	3.10711996e+02
217             	3.10720875e+02
218             	3.10729418e+02
219             	3.10737579e+02
220             	3.10744758e+02
221             	3.10751089e+02
222             	3.10756789e+02
223             	3.10761940e+02
224             	3.10766878e+02
225             	3.10772188e+02
226             	3.10777927e+02
227             	3.10784187e+02
228             	3.10790822e+02
229             	3.10797739e+02
230             	3.10804716e+02
231             	3.10811647e+02
232             	3.10818681e+02
233             	3.10825709e+02
234             	3.10832721e+02
235             	3.10839443e+02
236             	3.10846049e+02
237             	3.10852286e+02
238             	3.10858227e+02
239             	3.10863916e+02
240             	3.10869434e+02
241             	3.10874876e+02
242             	3.10880263e+02
243             	3.10885549e+02
244             	3.10890735e+02
245             	3.10895867e+02
246             	3.10901058e+02
247             	3.10906433e+02
248             	3.10912034e+02
249             	3.10917860e+02
250             	3.10923907e+02
251             	3.10930121e+02
252             	3.10936330e+02
253             	3.10942276e+02
254             	3.10948063e+02
255             	3.10953684e+02
256             	3.10959209e+02
257             	3.10964662e+02
258             	3.10970007e+02
259             	3.10975128e+02
260             	3.10980119e+02
261             	3.10984970e+02
262             	3.10989720e+02
263             	3.10994408e+02
264             	3.10999040e+02
265             	3.11003476e+02
266             	3.11008024e+02
267             	3.11012480e+02
268             	3.11017007e+02
269             	3.11021636e+02
270             	3.11026389e+02
271             	3.11031228e+02
272             	3.11036114e+02
273             	3.11040881e+02
274             	3.11045624e+02
275             	3.11050216e+02
276             	3.11054605e+02
277             	3.11058701e+02
278             	3.11062604e+02
279             	3.11066354e+02
280             	3.11069981e+02
281             	3.11073547e+02
282             	3.11077080e+02
283             	3.11080628e+02
284             	3.11084200e+02
285             	3.11087810e+02
286             	3.11091491e+02
287             	3.11095207e+02
288             	3.11098988e+02
289             	3.11102767e+02
290             	3.11106587e+02
291             	3.11110393e+02
292             	3.11114090e+02
293             	3.11117578e+02
294             	3.11120828e+02
295             	3.11123867e+02
296             	3.11126715e+02
297             	3.11129442e+02
298             	3.11132155e+02
299             	3.11134901e+02
300             	3.11137835e+02
301             	3.11140909e+02
302             	3.11144168e+02
303             	3.11147556e+02
304             	3.11150933e+02
305             	3.11154259e+02
306             	3.11157494e+02
307             	3.11160490e+02
308             	3.11163461e+02
309             	3.11166335e+02
310             	3.11169191e+02
311             	3.11172033e+02
312             	3.11174842e+02
313             	3.11177610e+02
314             	3.11180320e+02
315             	3.11183024e+02
316             	3.11185728e+02
317             	3.11188382e+02
318             	3.11191010e+02
319             	3.11193632e+02
320             	3.11196228e+02
321             	3.11198800e+02
322             	3.11201351e+02
323             	3.11203882e+02
324             	3.11206388e+02
325             	3.11208865e+02
326             	3.11211295e+02
327             	3.11213694e+02
328             	3.11216077e+02
329             	3.11218426e+02
330             	3.11220735e+02
331             	3.11223011e+02
332             	3.11225250e+02
333             	3.11227450e+02
334             	3.11229612e+02
335             	3.11231749e+02
336             	3.11233835e+02
337             	3.11235909e+02
338             	3.11237979e+02
339             	3.11240029e+02
340             	3.11242066e+02
341             	3.11244090e+02
342             	3.11246099e+02
343             	3.11248093e+02
344             	3.11250074e+02
345             	3.11251924e+02
346             	3.11253769e+02
347             	3.11255613e+02
348             	3.11257301e+02
349             	3.11258996e+02
350             	3.11260698e+02
351             	3.11262273e+02
352             	3.11263860e+02
353             	3.11265454e+02
354             	3.11267042e+02
355             	3.11268621e+02
356             	3.11270187e+02
357             	3.11271583e+02
358             	3.11272991e+02
359             	3.11274414e+02
360             	3.11275842e+02
361             	3.11277273e+02
362             	3.11278700e+02
363             	3.11280122e+02
364             	3.11281536e+02
365             	3.11282941e+02
366             	3.11284336e+02
367             	3.11285717e+02
368             	3.11287091e+02
369             	3.11288454e+02
370             	3.11289805e+02
371             	3.11291149e+02
372             	3.11292483e+02
373             	3.11293813e+02
374             	3.11295139e+02
375             	3.11296456e+02
376             	3.11297818e+02
377             	3.11299214e+02
378             	3.11300593e+02
379             	3.11301915e+02
380             	3.11303212e+02
381             	3.11304479e+02
382             	3.11305755e+02
383             	3.11307054e+02
384             	3.11308386e+02
385             	3.11309746e+02
386             	3.11311105e+02
387             	3.11312469e+02
388             	3.11313794e+02
389             	3.11315112e+02
390             	3.11316389e+02
391             	3.11317639e+02
392             	3.11318860e+02
393             	3.11320085e+02
394             	3.11321295e+02
395             	3.11322503e+02
396             	3.11323692e+02
397             	3.11324896e+02
398             	3.11326110e+02
399             	3.11327304e+02
400             	3.11328456e+02
401             	3.11329522e+02
402             	3.11330519e+02
403             	3.11331449e+02
404             	3.11332344e+02
405             	3.11333217e+02
406             	3.11334118e+02
407             	3.11335073e+02
408             	3.11336100e+02
409             	3.11337225e+02
410             	3.11338436e+02
411             	3.11339668e+02
412             	3.11340884e+02
413             	3.11342032e+02
414             	3.11343081e+02
415             	3.11344013e+02
416             	3.11344859e+02
417             	3.11345683e+02
418             	3.11346534e+02
419             	3.11347429e+02
420             	3.11348415e+02
421             	3.11349443e+02
422             	3.11350482e+02
423             	3.11351499e+02
424             	3.11352436e+02
425             	3.11353272e+02
426             	3.11354048e+02
427             	3.11354795e+02
428             	3.11355539e+02
429             	3.11356325e+02
430             	3.11357163e+02
431             	3.11358071e+02
432             	3.11359035e+02
433             	3.11360029e+02
434             	3.11361017e+02
435             	3.11361975e+02
436             	3.11362877e+02
437             	3.11363707e+02
438             	3.11364473e+02
439             	3.11365167e+02
440             	3.11365829e+02
441             	3.11366500e+02
442             	3.11367220e+02
443             	3.11367985e+02
444             	3.11368786e+02
445             	3.11369604e+02
446             	3.11370394e+02
447             	3.11371143e+02
448             	3.11371846e+02
449             	3.11372520e+02
450             	3.11373179e+02
451             	3.11373822e+02
452             	3.11374458e+02
453             	3.11375106e+02
454             	3.11375780e+02
455             	3.11376470e+02
456             	3.11377185e+02
457             	3.11377918e+02
458             	3.11378660e+02
459             	3.11379393e+02
460             	3.11380093e+02
461             	3.11380759e+02
462             	3.11381387e+02
463             	3.11381984e+02
464             	3.11382547e+02
465             	3.11383092e+02
466             	3.11383632e+02
467             	3.11384181e+02
468             	3.11384746e+02
469             	3.11385328e+02
470             	3.11385917e+02
471             	3.11386515e+02
472             	3.11387129e+02
473             	3.11387735e+02
474             	3.11388324e+02
475             	3.11388891e+02
476             	3.11389437e+02
477             	3.11389971e+02
478             	3.11390497e+02
479             	3.11391024e+02
480             	3.11391555e+02
481             	3.11392089e+02
482             	3.11392622e+02
483             	3.11393151e+02
484             	3.11393671e+02
485             	3.11394186e+02
486             	3.11394693e+02
487             	3.11395191e+02
488             	3.11395683e+02
489             	3.11396167e+02
490             	3.11396645e+02
491             	3.11397119e+02
492             	3.11397584e+02
493             	3.11398039e+02
494             	3.11398484e+02
495             	3.11398920e+02
496             	3.11399354e+02
497             	3.11399785e+02
498             	3.11400211e+02
499             	3.11400634e+02
500             	3.11401054e+02
501             	3.11401477e+02
502             	3.11401902e+02
503             	3.11402330e+02
504             	3.11402760e+02
505             	3.11403193e+02
506             	3.11403626e+02
507             	3.11404059e+02
508             	3.11404491e+02
509             	3.11404921e+02
510             	3.11405350e+02
511             	3.11405773e+02
512             	3.11406189e+02
513             	3.11406592e+02
514             	3.11406981e+02
515             	3.11407360e+02
516             	3.11407725e+02
517             	3.11408088e+02
518             	3.11408451e+02
519             	3.11408819e+02
520             	3.11409196e+02
521             	3.11409584e+02
522             	3.11409974e+02
523             	3.11410369e+02
524             	3.11410760e+02
525             	3.11411143e+02
526             	3.11411513e+02
527             	3.11411877e+02
528             	3.11412234e+02
529             	3.11412586e+02
530             	3.11412933e+02
531             	3.11413275e+02
532             	3.11413612e+02
533             	3.11413947e+02
534             	3.11414281e+02
535             	3.11414611e+02
536             	3.11414938e+02
537             	3.11415264e+02
538             	3.11415584e+02
539             	3.11415898e+02
540             	3.11416206e+02
541             	3.11416510e+02
542             	3.11416808e+02
543             	3.11417102e+02
544             	3.11417393e+02
545             	3.11417683e+02
546             	3.11417972e+02
547             	3.11418259e+02
548             	3.11418547e+02
549             	3.11418834e+02
550             	3.11419121e+02
551             	3.11419405e+02
552             	3.11419685e+02
553             	3.11419963e+02
554             	3.11420236e+02
555             	3.11420506e+02
556             	3.11420773e+02
557             	3.11421035e+02
558             	3.11421293e+02
559             	3.11421547e+02
560             	3.11421797e+02
561             	3.11422043e+02
562             	3.11422287e+02
563             	3.11422530e+02
564             	3.11422773e+02
565             	3.11423014e+02
566             	3.11423252e+02
567             	3.11423488e+02
568             	3.11423722e+02
569             	3.11423953e+02
570             	3.11424181e+02
571             	3.11424408e+02
572             	3.11424632e+02
573             	3.11424855e+02
574             	3.11425075e+02
575             	3.11425294e+02
576             	3.11425513e+02
577             	3.11425732e+02
578             	3.11425951e+02
579             	3.11426171e+02
580             	3.11426391e+02
581             	3.11426612e+02
582             	3.11426831e+02
583             	3.11427048e+02
584             	3.11427262e+02
585             	3.11427473e+02
586             	3.11427681e+02
587             	3.11427887e+02
588             	3.11428088e+02
589             	3.11428284e+02
590             	3.11428476e+02
591             	3.11428662e+02
592             	3.11428846e+02
593             	3.11429027e+02
594             	3.11429207e+02
595             	3.11429387e+02
596             	3.11429566e+02
597             	3.11429745e+02
598             	3.11429923e+02
599             	3.11430100e+02
600             	3.11430278e+02
601             	3.11430457e+02
602             	3.11430637e+02
603             	3.11430818e+02
604             	3.11431000e+02
605             	3.11431179e+02
606             	3.11431354e+02
607             	3.11431524e+02
608             	3.11431689e+02
609             	3.11431849e+02
610             	3.11432005e+02
611             	3.11432157e+02
612             	3.11432307e+02
613             	3.11432459e+02
614             	3.11432610e+02
615             	3.11432761e+02
616             	3.11432912e+02
617             	3.11433062e+02
618             	3.11433210e+02
619             	3.11433357e+02
620             	3.11433501e+02
621             	3.11433644e+02
