# Region        : cellZone component_0
# Cells         : 64
# Volume        : 1.24111762e-01
# Time          	volAverage(T)
1               	3.01001484e+02
2               	3.01976053e+02
3               	3.02728302e+02
4               	3.03324719e+02
5               	3.03884283e+02
6               	3.04440847e+02
7               	3.04980277e+02
8               	3.05490193e+02
9               	3.05974628e+02
10              	3.06446132e+02
11              	3.06913926e+02
12              	3.07345024e+02
13              	3.07713357e+02
14              	3.08037089e+02
15              	3.08381593e+02
16              	3.08704215e+02
17              	3.08967866e+02
18              	3.09235573e+02
19              	3.09535641e+02
20              	3.09834794e+02
21              	3.10108275e+02
22              	3.10393633e+02
23              	3.10679750e+02
24              	3.10920814e+02
25              	3.11164526e+02
26              	3.11413050e+02
27              	3.11654194e+02
28              	3.11906709e+02
29              	3.12154513e+02
30              	3.12387891e+02
31              	3.12603201e+02
32              	3.12848002e+02
33              	3.13092178e+02
34              	3.13330700e+02
35              	3.13525939e+02
36              	3.13684280e+02
37              	3.13782505e+02
38              	3.13840962e+02
39              	3.13899089e+02
40              	3.14042049e+02
41              	3.14204700e+02
42              	3.14371804e+02
43              	3.14538035e+02
44              	3.14702339e+02
45              	3.14860674e+02
46              	3.15004438e+02
47              	3.15150813e+02
48              	3.15331631e+02
49              	3.15426520e+02
50              	3.15339385e+02
51              	3.15347802e+02
52              	3.15469004e+02
53              	3.15625958e+02
54              	3.15745562e+02
55              	3.15846093e+02
56              	3.15944871e+02
57              	3.16064439e+02
58              	3.16205874e+02
59              	3.16373022e+02
60              	3.16515063e+02
61              	3.16649908e+02
62              	3.16762013e+02
63              	3.16874574e+02
64              	3.16989443e+02
65              	3.17110923e+02
66              	3.17199615e+02
67              	3.17311783e+02
68              	3.17396375e+02
69              	3.17497299e+02
70              	3.17610056e+02
71              	3.17717387e+02
72              	3.17777207e+02
73              	3.17872715e+02
74              	3.17951053e+02
75              	3.18025331e+02
76              	3.18108237e+02
77              	3.18198743e+02
78              	3.18297411e+02
79              	3.18399875e+02
80              	3.18503604e+02
81              	3.18592604e+02
82              	3.18688705e+02
83              	3.18774264e+02
84              	3.18844235e+02
85              	3.18910208e+02
86              	3.18977588e+02
87              	3.19044432e+02
88              	3.19123936e+02
89              	3.19201573e+02
90              	3.19291707e+02
91              	3.19390607e+02
92              	3.19451320e+02
93              	3.19553687e+02
94              	3.19675123e+02
95              	3.19806727e+02
96              	3.19913082e+02
97              	3.20022240e+02
98              	3.20106541e+02
99              	3.20183140e+02
100             	3.20249773e+02
101             	3.20311837e+02
102             	3.20362343e+02
103             	3.20409188e+02
104             	3.20439835e+02
105             	3.20485354e+02
106             	3.20545837e+02
107             	3.20616325e+02
108             	3.20679708e+02
109             	3.20742615e+02
110             	3.20803444e+02
111             	3.20851889e+02
112             	3.20887169e+02
113             	3.20931690e+02
114             	3.20989100e+02
115             	3.21015214e+02
116             	3.21029318e+02
117             	3.21055234e+02
118             	3.21054596e+02
119             	3.21083044e+02
120             	3.21137261e+02
121             	3.21171679e+02
122             	3.21210849e+02
123             	3.21224793e+02
124             	3.21232331e+02
125             	3.21243542e+02
126             	3.21231437e+02
127             	3.21213094e+02
128             	3.21205947e+02
129             	3.21211700e+02
130             	3.21192330e+02
131             	3.21208593e+02
132             	3.21261756e+02
133             	3.21316589e+02
134             	3.21342432e+02
135             	3.21343156e+02
136             	3.21340554e+02
137             	3.21357555e+02
138             	3.21370465e+02
139             	3.21381813e+02
140             	3.21395872e+02
141             	3.21415662e+02
142             	3.21441526e+02
143             	3.21480749e+02
144             	3.21540381e+02
145             	3.21584971e+02
146             	3.21643482e+02
147             	3.21689402e+02
148             	3.21718049e+02
149             	3.21737261e+02
150             	3.21764363e+02
151             	3.21770959e+02
152             	3.21799627e+02
153             	3.21827977e+02
154             	3.21859213e+02
155             	3.21869237e+02
156             	3.21880384e+02
157             	3.21894669e+02
158             	3.21907432e+02
159             	3.21913872e+02
160             	3.21915752e+02
161             	3.21897872e+02
162             	3.21919775e+02
163             	3.21950696e+02
164             	3.21981851e+02
165             	3.22009471e+02
166             	3.22016187e+02
167             	3.22043307e+02
168             	3.22095579e+02
169             	3.22108462e+02
170             	3.22121285e+02
171             	3.22140199e+02
172             	3.22161764e+02
173             	3.22176682e+02
174             	3.22185643e+02
175             	3.22193655e+02
176             	3.22201306e+02
177             	3.22187035e+02
178             	3.22185530e+02
179             	3.22189088e+02
180             	3.22188841e+02
181             	3.22180512e+02
182             	3.22180211e+02
183             	3.22182372e+02
184             	3.22186529e+02
185             	3.22191066e+02
186             	3.22187194e+02
187             	3.22217068e+02
188             	3.22257691e+02
189             	3.22278759e+02
190             	3.22293209e+02
191             	3.22264924e+02
192             	3.22259724e+02
193             	3.22269132e+02
194             	3.22274686e+02
195             	3.22263999e+02
196             	3.22240468e+02
197             	3.22219351e+02
198             	3.22214098e+02
199             	3.22220305e+02
200             	3.22218435e+02
201             	3.22245741e+02
202             	3.22279452e+02
203             	3.22289788e+02
204             	3.22277780e+02
205             	3.22295139e+02
206             	3.22294504e+02
207             	3.22301462e+02
208             	3.22303844e+02
209             	3.22296497e+02
210             	3.22280387e+02
211             	3.22256271e+02
212             	3.22230002e+02
213             	3.22215061e+02
214             	3.22203264e+02
215             	3.22214059e+02
216             	3.22267819e+02
217             	3.22305658e+02
218             	3.22319701e+02
219             	3.22337720e+02
220             	3.22309394e+02
221             	3.22319742e+02
222             	3.22348318e+02
223             	3.22348441e+02
224             	3.22343506e+02
225             	3.22341182e+02
226             	3.22343567e+02
227             	3.22336640e+02
228             	3.22327661e+02
229             	3.22321607e+02
230             	3.22324300e+02
231             	3.22343006e+02
232             	3.22347085e+02
233             	3.22360139e+02
234             	3.22387736e+02
235             	3.22383851e+02
236             	3.22414864e+02
237             	3.22445924e+02
238             	3.22459395e+02
239             	3.22455272e+02
240             	3.22443582e+02
241             	3.22428209e+02
242             	3.22418391e+02
243             	3.22404815e+02
244             	3.22386697e+02
245             	3.22367749e+02
246             	3.22354708e+02
247             	3.22347044e+02
248             	3.22344378e+02
249             	3.22352468e+02
250             	3.22369358e+02
251             	3.22398920e+02
252             	3.22409911e+02
253             	3.22417300e+02
254             	3.22441952e+02
255             	3.22454704e+02
256             	3.22444364e+02
257             	3.22429458e+02
258             	3.22438596e+02
259             	3.22470636e+02
260             	3.22438600e+02
261             	3.22428036e+02
262             	3.22434069e+02
263             	3.22454925e+02
264             	3.22478857e+02
265             	3.22490914e+02
266             	3.22479930e+02
267             	3.22461048e+02
268             	3.22438590e+02
269             	3.22438058e+02
270             	3.22448791e+02
271             	3.22464551e+02
272             	3.22448646e+02
273             	3.22437618e+02
274             	3.22429286e+02
275             	3.22437830e+02
276             	3.22448426e+02
277             	3.22453611e+02
278             	3.22466914e+02
279             	3.22423999e+02
280             	3.22415570e+02
281             	3.22431173e+02
282             	3.22454052e+02
283             	3.22457069e+02
284             	3.22457072e+02
285             	3.22451102e+02
286             	3.22442596e+02
287             	3.22440422e+02
288             	3.22428155e+02
289             	3.22441342e+02
290             	3.22471555e+02
291             	3.22478521e+02
292             	3.22495723e+02
293             	3.22469387e+02
294             	3.22484675e+02
295             	3.22497852e+02
296             	3.22521378e+02
297             	3.22528943e+02
298             	3.22524396e+02
299             	3.22508903e+02
300             	3.22496831e+02
301             	3.22462550e+02
302             	3.22463379e+02
303             	3.22494766e+02
304             	3.22530040e+02
305             	3.22568013e+02
306             	3.22607574e+02
307             	3.22612748e+02
308             	3.22611376e+02
309             	3.22605638e+02
310             	3.22597627e+02
311             	3.22593063e+02
312             	3.22559378e+02
313             	3.22539756e+02
314             	3.22548223e+02
315             	3.22566352e+02
316             	3.22557103e+02
317             	3.22557640e+02
318             	3.22568950e+02
319             	3.22580501e+02
320             	3.22587154e+02
321             	3.22590365e+02
322             	3.22571716e+02
323             	3.22566144e+02
324             	3.22580514e+02
325             	3.22575319e+02
326             	3.22585962e+02
327             	3.22606466e+02
328             	3.22603631e+02
329             	3.22609826e+02
330             	3.22627625e+02
331             	3.22654410e+02
332             	3.22680253e+02
333             	3.22700668e+02
334             	3.22715407e+02
335             	3.22724233e+02
336             	3.22714409e+02
337             	3.22698825e+02
338             	3.22678449e+02
339             	3.22662902e+02
340             	3.22653965e+02
341             	3.22645615e+02
342             	3.22637854e+02
343             	3.22632923e+02
344             	3.22629463e+02
345             	3.22626554e+02
346             	3.22624124e+02
347             	3.22622265e+02
348             	3.22617764e+02
349             	3.22614136e+02
350             	3.22612963e+02
351             	3.22613563e+02
352             	3.22615540e+02
353             	3.22617662e+02
354             	3.22620035e+02
355             	3.22623523e+02
356             	3.22603673e+02
357             	3.22597761e+02
358             	3.22604986e+02
359             	3.22601095e+02
360             	3.22607777e+02
361             	3.22622356e+02
362             	3.22642901e+02
363             	3.22636410e+02
364             	3.22638427e+02
365             	3.22650575e+02
366             	3.22664148e+02
367             	3.22677728e+02
368             	3.22660366e+02
369             	3.22649415e+02
370             	3.22646050e+02
371             	3.22640510e+02
372             	3.22631863e+02
373             	3.22622891e+02
374             	3.22616493e+02
375             	3.22609871e+02
376             	3.22603501e+02
377             	3.22601243e+02
378             	3.22604672e+02
379             	3.22584963e+02
380             	3.22589328e+02
381             	3.22608338e+02
382             	3.22634814e+02
383             	3.22651440e+02
384             	3.22667926e+02
385             	3.22656297e+02
386             	3.22656041e+02
387             	3.22666769e+02
388             	3.22680352e+02
389             	3.22688259e+02
390             	3.22691342e+02
391             	3.22684479e+02
392             	3.22673255e+02
393             	3.22661545e+02
394             	3.22652425e+02
395             	3.22650312e+02
396             	3.22626167e+02
397             	3.22620418e+02
398             	3.22627649e+02
399             	3.22638741e+02
400             	3.22628769e+02
401             	3.22629190e+02
402             	3.22639467e+02
403             	3.22653071e+02
404             	3.22668134e+02
405             	3.22680905e+02
406             	3.22662841e+02
407             	3.22655454e+02
408             	3.22659895e+02
409             	3.22669429e+02
410             	3.22656406e+02
411             	3.22653266e+02
412             	3.22659506e+02
413             	3.22667427e+02
414             	3.22677570e+02
415             	3.22658919e+02
416             	3.22649824e+02
417             	3.22656104e+02
418             	3.22667046e+02
419             	3.22678365e+02
420             	3.22660115e+02
421             	3.22650757e+02
422             	3.22647091e+02
423             	3.22643910e+02
424             	3.22641116e+02
425             	3.22639667e+02
426             	3.22639366e+02
427             	3.22640817e+02
428             	3.22645910e+02
429             	3.22653227e+02
430             	3.22630823e+02
431             	3.22631339e+02
432             	3.22644629e+02
433             	3.22659892e+02
434             	3.22672893e+02
435             	3.22677594e+02
436             	3.22678262e+02
437             	3.22677235e+02
438             	3.22672899e+02
439             	3.22667060e+02
440             	3.22660818e+02
441             	3.22654026e+02
442             	3.22651803e+02
443             	3.22651258e+02
444             	3.22650352e+02
445             	3.22648086e+02
446             	3.22646549e+02
447             	3.22646585e+02
448             	3.22648118e+02
449             	3.22650790e+02
450             	3.22654249e+02
451             	3.22658923e+02
452             	3.22636045e+02
453             	3.22627739e+02
454             	3.22630079e+02
455             	3.22636924e+02
456             	3.22643503e+02
457             	3.22651847e+02
458             	3.22633818e+02
459             	3.22626771e+02
460             	3.22630586e+02
461             	3.22638282e+02
462             	3.22646334e+02
463             	3.22628920e+02
464             	3.22621175e+02
465             	3.22626355e+02
466             	3.22634875e+02
467             	3.22641425e+02
468             	3.22648313e+02
469             	3.22654979e+02
470             	3.22660244e+02
471             	3.22664693e+02
472             	3.22667258e+02
473             	3.22668648e+02
474             	3.22668720e+02
475             	3.22668850e+02
476             	3.22669883e+02
477             	3.22669164e+02
478             	3.22668265e+02
479             	3.22668044e+02
480             	3.22669269e+02
481             	3.22671234e+02
482             	3.22674001e+02
483             	3.22652683e+02
484             	3.22644848e+02
485             	3.22649016e+02
486             	3.22661779e+02
487             	3.22651515e+02
488             	3.22650593e+02
489             	3.22660624e+02
490             	3.22677589e+02
491             	3.22669551e+02
492             	3.22669255e+02
493             	3.22677461e+02
494             	3.22686541e+02
495             	3.22694496e+02
496             	3.22703285e+02
497             	3.22682628e+02
498             	3.22672240e+02
499             	3.22672329e+02
500             	3.22674698e+02
501             	3.22675409e+02
502             	3.22671632e+02
503             	3.22665426e+02
504             	3.22658509e+02
505             	3.22652436e+02
506             	3.22647740e+02
507             	3.22644924e+02
508             	3.22620619e+02
509             	3.22615262e+02
510             	3.22623396e+02
511             	3.22636300e+02
512             	3.22650628e+02
513             	3.22664790e+02
514             	3.22649717e+02
515             	3.22645321e+02
516             	3.22650424e+02
517             	3.22658238e+02
518             	3.22668151e+02
519             	3.22651309e+02
520             	3.22643992e+02
521             	3.22645653e+02
522             	3.22650564e+02
523             	3.22656897e+02
524             	3.22635425e+02
525             	3.22631436e+02
526             	3.22639391e+02
527             	3.22650875e+02
528             	3.22664352e+02
529             	3.22648411e+02
530             	3.22641790e+02
531             	3.22645637e+02
532             	3.22648601e+02
533             	3.22647280e+02
534             	3.22645614e+02
535             	3.22644534e+02
536             	3.22642832e+02
537             	3.22640193e+02
538             	3.22637066e+02
539             	3.22634495e+02
540             	3.22633762e+02
541             	3.22636378e+02
542             	3.22641100e+02
543             	3.22647472e+02
544             	3.22626347e+02
545             	3.22620578e+02
546             	3.22632400e+02
547             	3.22655028e+02
548             	3.22651430e+02
549             	3.22655696e+02
550             	3.22667717e+02
551             	3.22679670e+02
552             	3.22682624e+02
553             	3.22681653e+02
554             	3.22677860e+02
555             	3.22673661e+02
556             	3.22670181e+02
557             	3.22640484e+02
558             	3.22628332e+02
559             	3.22634811e+02
560             	3.22645738e+02
561             	3.22653919e+02
562             	3.22660904e+02
563             	3.22667851e+02
564             	3.22673270e+02
565             	3.22671074e+02
566             	3.22668849e+02
567             	3.22666133e+02
568             	3.22661263e+02
569             	3.22654945e+02
570             	3.22648632e+02
571             	3.22647199e+02
572             	3.22618524e+02
573             	3.22603256e+02
574             	3.22605937e+02
575             	3.22599399e+02
576             	3.22609146e+02
577             	3.22631333e+02
578             	3.22653690e+02
579             	3.22668447e+02
580             	3.22655300e+02
581             	3.22653593e+02
582             	3.22663844e+02
583             	3.22675223e+02
584             	3.22682137e+02
585             	3.22682099e+02
586             	3.22675630e+02
587             	3.22664887e+02
588             	3.22652202e+02
589             	3.22638448e+02
590             	3.22624810e+02
591             	3.22614019e+02
592             	3.22607309e+02
593             	3.22582864e+02
594             	3.22579533e+02
595             	3.22592139e+02
596             	3.22605498e+02
597             	3.22622308e+02
598             	3.22613273e+02
599             	3.22613746e+02
600             	3.22615337e+02
601             	3.22616187e+02
602             	3.22610545e+02
603             	3.22600351e+02
604             	3.22589993e+02
605             	3.22581541e+02
606             	3.22576477e+02
607             	3.22552113e+02
608             	3.22547708e+02
609             	3.22559982e+02
610             	3.22571514e+02
611             	3.22584123e+02
612             	3.22586410e+02
613             	3.22587905e+02
614             	3.22590421e+02
615             	3.22595524e+02
616             	3.22574937e+02
617             	3.22566459e+02
618             	3.22570488e+02
619             	3.22578516e+02
620             	3.22587912e+02
621             	3.22597684e+02
