# Region        : cellZone component_0
# Cells         : 9
# Volume        : 1.33017534e-02
# Time          	volAverage(T)
1               	3.07899650e+02
2               	3.15417701e+02
3               	3.18783979e+02
4               	3.19686258e+02
5               	3.20528413e+02
6               	3.21738461e+02
7               	3.23208616e+02
8               	3.24639636e+02
9               	3.26015139e+02
10              	3.27292177e+02
11              	3.28308860e+02
12              	3.29063019e+02
13              	3.29286374e+02
14              	3.29161779e+02
15              	3.29174998e+02
16              	3.29092752e+02
17              	3.29239849e+02
18              	3.29410200e+02
19              	3.29766850e+02
20              	3.29865427e+02
21              	3.30132039e+02
22              	3.30416491e+02
23              	3.30706977e+02
24              	3.30947844e+02
25              	3.31165048e+02
26              	3.31526677e+02
27              	3.31848690e+02
28              	3.32229617e+02
29              	3.33001484e+02
30              	3.34146140e+02
31              	3.34225759e+02
32              	3.34842351e+02
33              	3.35744416e+02
34              	3.36567228e+02
35              	3.37095281e+02
36              	3.36986960e+02
37              	3.36073859e+02
38              	3.34605837e+02
39              	3.33164829e+02
40              	3.32078304e+02
41              	3.31247393e+02
42              	3.30886957e+02
43              	3.30886575e+02
44              	3.31394617e+02
45              	3.31864889e+02
46              	3.32290077e+02
47              	3.32496755e+02
48              	3.32326258e+02
49              	3.32434155e+02
50              	3.32804251e+02
51              	3.33589710e+02
52              	3.33148895e+02
53              	3.32463327e+02
54              	3.31723953e+02
55              	3.31267632e+02
56              	3.30703789e+02
57              	3.30442078e+02
58              	3.29968509e+02
59              	3.29936838e+02
60              	3.30068222e+02
61              	3.30279760e+02
62              	3.30565716e+02
63              	3.31032754e+02
64              	3.31687145e+02
65              	3.32567416e+02
66              	3.33262516e+02
67              	3.33092619e+02
68              	3.33202992e+02
69              	3.32974315e+02
70              	3.32757774e+02
71              	3.32466009e+02
72              	3.32164642e+02
73              	3.31640424e+02
74              	3.31179199e+02
75              	3.30584530e+02
76              	3.30072320e+02
77              	3.29817602e+02
78              	3.29696835e+02
79              	3.29711756e+02
80              	3.29782333e+02
81              	3.29816023e+02
82              	3.29852449e+02
83              	3.29841831e+02
84              	3.29798387e+02
85              	3.29741501e+02
86              	3.29683032e+02
87              	3.29635365e+02
88              	3.29596097e+02
89              	3.29572122e+02
90              	3.29569298e+02
91              	3.29563604e+02
92              	3.29558859e+02
93              	3.29552259e+02
94              	3.29539863e+02
95              	3.29532240e+02
96              	3.29544694e+02
97              	3.29574888e+02
98              	3.29598916e+02
99              	3.29610135e+02
100             	3.29599550e+02
101             	3.29570825e+02
102             	3.29517104e+02
103             	3.29463962e+02
104             	3.29426636e+02
105             	3.29423572e+02
106             	3.29450980e+02
107             	3.29495256e+02
108             	3.29521278e+02
109             	3.29526641e+02
110             	3.29511239e+02
111             	3.29479595e+02
112             	3.29446459e+02
113             	3.29420082e+02
114             	3.29416676e+02
115             	3.29427255e+02
116             	3.29441579e+02
117             	3.29452695e+02
118             	3.29458983e+02
119             	3.29468668e+02
120             	3.29480830e+02
121             	3.29492341e+02
122             	3.29507806e+02
123             	3.29500894e+02
124             	3.29476243e+02
125             	3.29450564e+02
126             	3.29430184e+02
127             	3.29431285e+02
128             	3.29450435e+02
129             	3.29469408e+02
130             	3.29489633e+02
131             	3.29507758e+02
132             	3.29518735e+02
133             	3.29514684e+02
134             	3.29498448e+02
135             	3.29483237e+02
136             	3.29479908e+02
137             	3.29495955e+02
138             	3.29502547e+02
139             	3.29505009e+02
140             	3.29501331e+02
141             	3.29495326e+02
142             	3.29486660e+02
143             	3.29486143e+02
144             	3.29500404e+02
145             	3.29529787e+02
146             	3.29552995e+02
147             	3.29566907e+02
148             	3.29576830e+02
149             	3.29584759e+02
150             	3.29575886e+02
151             	3.29558824e+02
152             	3.29544598e+02
153             	3.29542642e+02
154             	3.29548712e+02
155             	3.29560141e+02
156             	3.29578262e+02
157             	3.29592644e+02
158             	3.29587652e+02
159             	3.29571790e+02
160             	3.29557080e+02
161             	3.29552105e+02
162             	3.29545068e+02
163             	3.29539127e+02
164             	3.29531641e+02
165             	3.29519878e+02
166             	3.29518203e+02
167             	3.29519398e+02
168             	3.29527779e+02
169             	3.29526888e+02
170             	3.29517677e+02
171             	3.29500298e+02
172             	3.29480807e+02
173             	3.29466224e+02
174             	3.29463517e+02
175             	3.29468157e+02
176             	3.29459195e+02
177             	3.29465660e+02
178             	3.29474911e+02
179             	3.29479456e+02
180             	3.29479033e+02
181             	3.29475850e+02
182             	3.29471212e+02
183             	3.29477189e+02
184             	3.29483452e+02
185             	3.29498653e+02
186             	3.29524337e+02
187             	3.29559613e+02
188             	3.29587077e+02
189             	3.29598737e+02
190             	3.29597156e+02
191             	3.29586131e+02
192             	3.29571422e+02
193             	3.29542607e+02
194             	3.29519881e+02
195             	3.29528811e+02
196             	3.29534366e+02
197             	3.29544744e+02
198             	3.29555181e+02
199             	3.29567537e+02
200             	3.29586411e+02
201             	3.29613526e+02
202             	3.29632378e+02
203             	3.29636247e+02
204             	3.29617485e+02
205             	3.29594126e+02
206             	3.29568495e+02
207             	3.29547950e+02
208             	3.29536206e+02
209             	3.29537089e+02
210             	3.29545342e+02
211             	3.29554506e+02
212             	3.29567453e+02
213             	3.29579127e+02
214             	3.29586761e+02
215             	3.29589957e+02
216             	3.29584770e+02
217             	3.29569413e+02
218             	3.29546614e+02
219             	3.29528065e+02
220             	3.29517769e+02
221             	3.29513514e+02
222             	3.29515860e+02
223             	3.29520537e+02
224             	3.29529488e+02
225             	3.29539702e+02
226             	3.29548263e+02
227             	3.29554479e+02
228             	3.29557511e+02
229             	3.29557444e+02
230             	3.29555963e+02
231             	3.29552436e+02
232             	3.29554113e+02
233             	3.29557226e+02
234             	3.29563682e+02
235             	3.29703856e+02
236             	3.30030796e+02
237             	3.30530722e+02
238             	3.31115703e+02
239             	3.31694135e+02
240             	3.32192808e+02
241             	3.32624659e+02
242             	3.32992101e+02
243             	3.33300729e+02
244             	3.33543671e+02
245             	3.33757747e+02
246             	3.33900293e+02
247             	3.34054954e+02
248             	3.34168332e+02
249             	3.34309154e+02
250             	3.34454157e+02
251             	3.34573733e+02
252             	3.34681000e+02
253             	3.34782361e+02
254             	3.34896687e+02
255             	3.35036618e+02
256             	3.35175902e+02
257             	3.35336890e+02
258             	3.35513956e+02
259             	3.35726027e+02
260             	3.35924980e+02
261             	3.36118593e+02
262             	3.36300835e+02
263             	3.36465872e+02
264             	3.36610279e+02
265             	3.36730299e+02
266             	3.36822094e+02
267             	3.36888223e+02
268             	3.36923456e+02
269             	3.36937915e+02
270             	3.36932529e+02
271             	3.36927772e+02
272             	3.36925830e+02
273             	3.36895979e+02
274             	3.36868968e+02
275             	3.36825561e+02
276             	3.36775726e+02
277             	3.36737655e+02
278             	3.36720628e+02
279             	3.36713586e+02
280             	3.36715866e+02
281             	3.36731254e+02
282             	3.36793442e+02
283             	3.36922559e+02
284             	3.37048780e+02
285             	3.37172557e+02
286             	3.37282572e+02
287             	3.37370048e+02
288             	3.37425759e+02
289             	3.37438110e+02
290             	3.37463859e+02
291             	3.37503460e+02
292             	3.37560264e+02
293             	3.37623422e+02
294             	3.37678809e+02
295             	3.37731033e+02
296             	3.37788017e+02
297             	3.37847055e+02
298             	3.37904826e+02
299             	3.37955521e+02
300             	3.38000431e+02
301             	3.38040196e+02
302             	3.38067128e+02
303             	3.38085735e+02
304             	3.38105314e+02
305             	3.38138069e+02
306             	3.38174568e+02
307             	3.38214433e+02
308             	3.38259528e+02
309             	3.38308314e+02
310             	3.38329592e+02
311             	3.38346431e+02
312             	3.38356572e+02
313             	3.38356146e+02
314             	3.38346692e+02
315             	3.38332470e+02
316             	3.38312232e+02
317             	3.38297473e+02
318             	3.38287519e+02
319             	3.38284656e+02
320             	3.38300532e+02
321             	3.38327248e+02
322             	3.38346559e+02
323             	3.38349732e+02
324             	3.38341494e+02
325             	3.38319496e+02
326             	3.38285349e+02
327             	3.38246006e+02
328             	3.38209892e+02
329             	3.38181959e+02
330             	3.38160158e+02
331             	3.38143565e+02
332             	3.38133468e+02
333             	3.38128556e+02
334             	3.38126415e+02
335             	3.38127466e+02
336             	3.38127487e+02
337             	3.38127461e+02
338             	3.38164993e+02
339             	3.38199297e+02
340             	3.38225545e+02
341             	3.38244735e+02
342             	3.38258198e+02
343             	3.38267926e+02
344             	3.38273773e+02
345             	3.38276339e+02
346             	3.38277777e+02
347             	3.38277370e+02
348             	3.38276682e+02
349             	3.38275361e+02
350             	3.38273319e+02
351             	3.38270724e+02
352             	3.38267169e+02
353             	3.38264417e+02
354             	3.38262203e+02
355             	3.38259976e+02
356             	3.38259251e+02
357             	3.38259694e+02
358             	3.38261436e+02
359             	3.38264394e+02
360             	3.38268137e+02
361             	3.38271986e+02
362             	3.38275504e+02
363             	3.38278786e+02
364             	3.38281940e+02
365             	3.38285586e+02
366             	3.38292068e+02
367             	3.38297173e+02
368             	3.38301067e+02
369             	3.38307887e+02
370             	3.38310959e+02
371             	3.38311889e+02
372             	3.38311529e+02
373             	3.38309972e+02
374             	3.38305441e+02
375             	3.38301450e+02
376             	3.38297717e+02
377             	3.38292028e+02
378             	3.38288495e+02
379             	3.38286909e+02
380             	3.38286634e+02
381             	3.38286820e+02
382             	3.38288709e+02
383             	3.38290206e+02
384             	3.38290813e+02
385             	3.38290968e+02
386             	3.38293153e+02
387             	3.38294210e+02
388             	3.38296504e+02
389             	3.38298001e+02
390             	3.38299720e+02
391             	3.38302229e+02
392             	3.38305102e+02
393             	3.38308135e+02
394             	3.38311040e+02
395             	3.38313381e+02
396             	3.38314743e+02
397             	3.38315010e+02
398             	3.38313327e+02
399             	3.38310789e+02
400             	3.38305860e+02
401             	3.38301500e+02
402             	3.38297193e+02
403             	3.38292561e+02
404             	3.38287735e+02
405             	3.38282105e+02
406             	3.38277716e+02
407             	3.38273797e+02
408             	3.38270608e+02
409             	3.38267540e+02
410             	3.38264471e+02
411             	3.38262563e+02
412             	3.38260767e+02
413             	3.38259806e+02
414             	3.38259115e+02
415             	3.38258944e+02
416             	3.38259365e+02
417             	3.38260466e+02
418             	3.38262099e+02
419             	3.38264245e+02
420             	3.38266842e+02
421             	3.38269551e+02
422             	3.38272134e+02
423             	3.38274846e+02
424             	3.38277971e+02
425             	3.38281200e+02
426             	3.38284590e+02
427             	3.38288102e+02
428             	3.38291389e+02
429             	3.38293806e+02
430             	3.38295046e+02
431             	3.38295344e+02
432             	3.38295592e+02
433             	3.38296442e+02
434             	3.38298117e+02
435             	3.38300205e+02
436             	3.38302282e+02
437             	3.38303566e+02
438             	3.38304234e+02
439             	3.38304452e+02
440             	3.38304106e+02
441             	3.38302971e+02
442             	3.38301040e+02
443             	3.38298681e+02
444             	3.38296067e+02
445             	3.38293309e+02
446             	3.38290392e+02
447             	3.38287395e+02
448             	3.38284031e+02
449             	3.38280331e+02
450             	3.38277347e+02
451             	3.38274594e+02
452             	3.38272082e+02
453             	3.38270477e+02
454             	3.38269494e+02
455             	3.38269094e+02
456             	3.38268863e+02
457             	3.38268806e+02
458             	3.38269099e+02
459             	3.38269901e+02
460             	3.38271136e+02
461             	3.38272860e+02
462             	3.38274993e+02
463             	3.38278110e+02
464             	3.38283711e+02
465             	3.38287540e+02
466             	3.38290854e+02
467             	3.38294220e+02
468             	3.38297380e+02
469             	3.38300449e+02
470             	3.38303623e+02
471             	3.38306798e+02
472             	3.38308884e+02
473             	3.38310452e+02
474             	3.38310897e+02
475             	3.38310753e+02
476             	3.38309554e+02
477             	3.38307202e+02
478             	3.38304073e+02
479             	3.38299904e+02
480             	3.38295242e+02
481             	3.38289321e+02
482             	3.38284376e+02
483             	3.38279512e+02
484             	3.38274579e+02
485             	3.38271628e+02
486             	3.38269486e+02
487             	3.38267554e+02
488             	3.38269889e+02
489             	3.38268881e+02
490             	3.38266694e+02
491             	3.38265239e+02
492             	3.38264339e+02
493             	3.38264251e+02
494             	3.38265802e+02
495             	3.38267019e+02
496             	3.38268260e+02
497             	3.38269729e+02
498             	3.38271146e+02
499             	3.38272472e+02
500             	3.38274207e+02
501             	3.38275868e+02
502             	3.38277187e+02
503             	3.38279253e+02
504             	3.38281266e+02
505             	3.38282648e+02
506             	3.38283084e+02
507             	3.38282447e+02
508             	3.38278473e+02
509             	3.38276348e+02
510             	3.38275146e+02
511             	3.38275427e+02
512             	3.38278488e+02
513             	3.38281024e+02
514             	3.38283831e+02
515             	3.38289048e+02
516             	3.38293533e+02
517             	3.38296940e+02
518             	3.38299695e+02
519             	3.38302104e+02
520             	3.38303833e+02
521             	3.38305425e+02
522             	3.38306357e+02
523             	3.38307604e+02
524             	3.38309123e+02
525             	3.38310275e+02
526             	3.38311397e+02
527             	3.38311747e+02
528             	3.38311110e+02
529             	3.38309520e+02
530             	3.38307000e+02
531             	3.38303859e+02
532             	3.38300945e+02
533             	3.38297539e+02
534             	3.38294020e+02
535             	3.38289435e+02
536             	3.38285420e+02
537             	3.38282046e+02
538             	3.38275697e+02
539             	3.38272110e+02
540             	3.38269644e+02
541             	3.38267836e+02
542             	3.38266914e+02
543             	3.38266819e+02
544             	3.38267606e+02
545             	3.38269147e+02
546             	3.38270745e+02
547             	3.38273020e+02
548             	3.38274557e+02
549             	3.38275796e+02
550             	3.38276973e+02
551             	3.38278635e+02
552             	3.38281106e+02
553             	3.38284699e+02
554             	3.38289270e+02
555             	3.38294519e+02
556             	3.38300390e+02
557             	3.38307381e+02
558             	3.38314938e+02
559             	3.38320670e+02
560             	3.38325082e+02
561             	3.38328380e+02
562             	3.38330418e+02
563             	3.38330812e+02
564             	3.38329693e+02
565             	3.38327808e+02
566             	3.38325536e+02
567             	3.38323199e+02
568             	3.38320628e+02
569             	3.38317775e+02
570             	3.38314531e+02
571             	3.38310862e+02
572             	3.38306731e+02
573             	3.38302330e+02
574             	3.38297883e+02
575             	3.38293811e+02
576             	3.38290105e+02
577             	3.38287403e+02
578             	3.38285613e+02
579             	3.38284098e+02
580             	3.38282655e+02
581             	3.38281549e+02
582             	3.38280790e+02
583             	3.38281183e+02
584             	3.38280891e+02
585             	3.38280006e+02
586             	3.38278844e+02
587             	3.38277791e+02
588             	3.38276843e+02
589             	3.38275993e+02
590             	3.38274239e+02
591             	3.38273261e+02
592             	3.38272387e+02
593             	3.38271033e+02
594             	3.38270121e+02
595             	3.38269379e+02
596             	3.38268895e+02
597             	3.38268750e+02
598             	3.38269689e+02
599             	3.38270685e+02
600             	3.38271604e+02
601             	3.38272781e+02
602             	3.38274862e+02
603             	3.38277661e+02
604             	3.38280300e+02
605             	3.38282315e+02
606             	3.38283876e+02
607             	3.38285677e+02
608             	3.38286406e+02
609             	3.38287769e+02
610             	3.38288519e+02
611             	3.38288978e+02
612             	3.38286584e+02
613             	3.38285100e+02
614             	3.38283643e+02
615             	3.38281820e+02
616             	3.38290991e+02
617             	3.38291442e+02
618             	3.38288279e+02
619             	3.38284667e+02
620             	3.38281363e+02
621             	3.38278496e+02
