# Region        : cellZone component_0
# Cells         : 16
# Volume        : 1.50729154e-02
# Time          	volAverage(T)
1               	3.08336484e+02
2               	3.16415986e+02
3               	3.23699982e+02
4               	3.30583590e+02
5               	3.37274175e+02
6               	3.43831463e+02
7               	3.50261432e+02
8               	3.56598021e+02
9               	3.62884830e+02
10              	3.69099589e+02
11              	3.75228671e+02
12              	3.81263136e+02
13              	3.87185653e+02
14              	3.93077532e+02
15              	3.98933300e+02
16              	4.04746083e+02
17              	4.10520486e+02
18              	4.16214410e+02
19              	4.21852136e+02
20              	4.27422464e+02
21              	4.32945720e+02
22              	4.38405802e+02
23              	4.43880278e+02
24              	4.49386886e+02
25              	4.54794518e+02
26              	4.60136983e+02
27              	4.65414805e+02
28              	4.70633244e+02
29              	4.75911343e+02
30              	4.81131510e+02
31              	4.85799907e+02
32              	4.90345312e+02
33              	4.94962259e+02
34              	4.99496416e+02
35              	5.03855146e+02
36              	5.08151487e+02
37              	5.12538812e+02
38              	5.16631428e+02
39              	5.20638398e+02
40              	5.24608602e+02
41              	5.28596708e+02
42              	5.32190411e+02
43              	5.35853437e+02
44              	5.39268653e+02
45              	5.42073173e+02
46              	5.44715575e+02
47              	5.47205999e+02
48              	5.49414190e+02
49              	5.51579712e+02
50              	5.53542351e+02
51              	5.55442893e+02
52              	5.57426713e+02
53              	5.59453086e+02
54              	5.61262747e+02
55              	5.62983404e+02
56              	5.64630773e+02
57              	5.66045590e+02
58              	5.67174733e+02
59              	5.68432100e+02
60              	5.69506904e+02
61              	5.70575765e+02
62              	5.71713235e+02
63              	5.73249430e+02
64              	5.74792881e+02
65              	5.76430418e+02
66              	5.78066900e+02
67              	5.79539542e+02
68              	5.81455873e+02
69              	5.83439293e+02
70              	5.85159675e+02
71              	5.86578997e+02
72              	5.87821905e+02
73              	5.89035365e+02
74              	5.90193850e+02
75              	5.91236557e+02
76              	5.92170840e+02
77              	5.92933890e+02
78              	5.93467037e+02
79              	5.94010652e+02
80              	5.94261614e+02
81              	5.94609455e+02
82              	5.94917864e+02
83              	5.95213384e+02
84              	5.95424674e+02
85              	5.95695881e+02
86              	5.95971005e+02
87              	5.96205785e+02
88              	5.96418493e+02
89              	5.96617935e+02
90              	5.96852132e+02
91              	5.97108207e+02
92              	5.97291372e+02
93              	5.97334609e+02
94              	5.97276395e+02
95              	5.97172492e+02
96              	5.97027943e+02
97              	5.96904809e+02
98              	5.96789120e+02
99              	5.96664920e+02
100             	5.96552823e+02
101             	5.96498744e+02
102             	5.96497679e+02
103             	5.96546656e+02
104             	5.96581949e+02
105             	5.96523610e+02
106             	5.96580592e+02
107             	5.96646661e+02
108             	5.96575844e+02
109             	5.96544001e+02
110             	5.96560971e+02
111             	5.96559300e+02
112             	5.96570194e+02
113             	5.96646073e+02
114             	5.96802482e+02
115             	5.96842065e+02
116             	5.96999762e+02
117             	5.97204601e+02
118             	5.97364712e+02
119             	5.97517055e+02
120             	5.97577507e+02
121             	5.97514379e+02
122             	5.97427031e+02
123             	5.97279132e+02
124             	5.97202175e+02
125             	5.97140524e+02
126             	5.97058991e+02
127             	5.97089665e+02
128             	5.97075847e+02
129             	5.97171680e+02
130             	5.97285613e+02
131             	5.97345145e+02
132             	5.97413465e+02
133             	5.97340102e+02
134             	5.97290899e+02
135             	5.97219730e+02
136             	5.97139526e+02
137             	5.97024479e+02
138             	5.96983021e+02
139             	5.96938234e+02
140             	5.96957235e+02
141             	5.97006042e+02
142             	5.97077868e+02
143             	5.97133948e+02
144             	5.97154318e+02
145             	5.97230570e+02
146             	5.97302018e+02
147             	5.97369747e+02
148             	5.97418802e+02
149             	5.97440213e+02
150             	5.97447567e+02
151             	5.97449593e+02
152             	5.97470243e+02
153             	5.97415762e+02
154             	5.97440498e+02
155             	5.97412181e+02
156             	5.97513633e+02
157             	5.97540724e+02
158             	5.97609019e+02
159             	5.97655133e+02
160             	5.97707793e+02
161             	5.97739702e+02
162             	5.97741760e+02
163             	5.97721881e+02
164             	5.97576035e+02
165             	5.97508164e+02
166             	5.97500845e+02
167             	5.97468994e+02
168             	5.97477514e+02
169             	5.97534960e+02
170             	5.97519805e+02
171             	5.97566524e+02
172             	5.97592590e+02
173             	5.97656764e+02
174             	5.97704060e+02
175             	5.97748415e+02
176             	5.97779544e+02
177             	5.97788138e+02
178             	5.97773321e+02
179             	5.97672505e+02
180             	5.97634977e+02
181             	5.97632821e+02
182             	5.97647995e+02
183             	5.97592176e+02
184             	5.97614510e+02
185             	5.97591148e+02
186             	5.97618822e+02
187             	5.97663615e+02
188             	5.97699163e+02
189             	5.97738585e+02
190             	5.97758675e+02
191             	5.97732538e+02
192             	5.97702925e+02
193             	5.97701110e+02
194             	5.97700341e+02
195             	5.97688178e+02
196             	5.97627310e+02
197             	5.97627054e+02
198             	5.97627454e+02
199             	5.97641778e+02
200             	5.97677232e+02
201             	5.97701112e+02
202             	5.97720924e+02
203             	5.97653934e+02
204             	5.97651659e+02
205             	5.97665658e+02
206             	5.97672348e+02
207             	5.97671282e+02
208             	5.97628823e+02
209             	5.97626023e+02
210             	5.97606355e+02
211             	5.97623267e+02
212             	5.97653374e+02
213             	5.97669691e+02
214             	5.97718214e+02
215             	5.97740614e+02
216             	5.97769374e+02
217             	5.97803106e+02
218             	5.97808406e+02
219             	5.97808070e+02
220             	5.97805705e+02
221             	5.97799541e+02
222             	5.97774811e+02
223             	5.97760530e+02
224             	5.97735378e+02
225             	5.97732723e+02
226             	5.97716649e+02
227             	5.97723475e+02
228             	5.97727623e+02
229             	5.97745747e+02
230             	5.97771891e+02
231             	5.97773825e+02
232             	5.97778302e+02
233             	5.97774763e+02
234             	5.97779661e+02
235             	5.97789733e+02
236             	5.97781458e+02
237             	5.97778852e+02
238             	5.97785364e+02
239             	5.97771349e+02
240             	5.97769764e+02
241             	5.97753301e+02
242             	5.97748567e+02
243             	5.97735323e+02
244             	5.97741863e+02
245             	5.97738258e+02
246             	5.97748137e+02
247             	5.97773100e+02
248             	5.97774644e+02
249             	5.97779029e+02
250             	5.97769961e+02
251             	5.97766753e+02
252             	5.97748188e+02
253             	5.97752118e+02
254             	5.97738051e+02
255             	5.97732507e+02
256             	5.97734334e+02
257             	5.97737229e+02
258             	5.97754240e+02
259             	5.97776260e+02
260             	5.97770635e+02
261             	5.97765024e+02
262             	5.97779557e+02
263             	5.97765543e+02
264             	5.97762282e+02
265             	5.97748559e+02
266             	5.97753607e+02
267             	5.97746945e+02
268             	5.97756135e+02
269             	5.97755185e+02
270             	5.97769413e+02
271             	5.97768959e+02
272             	5.97781967e+02
273             	5.97779279e+02
274             	5.97787473e+02
275             	5.97800235e+02
276             	5.97788055e+02
277             	5.97785946e+02
278             	5.97771778e+02
279             	5.97771418e+02
280             	5.97759888e+02
281             	5.97762378e+02
282             	5.97754414e+02
283             	5.97761545e+02
284             	5.97771427e+02
285             	5.97762197e+02
286             	5.97769885e+02
287             	5.97758445e+02
288             	5.97763373e+02
289             	5.97754921e+02
290             	5.97761824e+02
291             	5.97758424e+02
292             	5.97768562e+02
293             	5.97790818e+02
294             	5.97790037e+02
295             	5.97795443e+02
296             	5.97807918e+02
297             	5.97815741e+02
298             	5.97795212e+02
299             	5.97788074e+02
300             	5.97765594e+02
301             	5.97756780e+02
302             	5.97739355e+02
303             	5.97740807e+02
304             	5.97731483e+02
305             	5.97741886e+02
306             	5.97739364e+02
307             	5.97751341e+02
308             	5.97752431e+02
309             	5.97764606e+02
310             	5.97762901e+02
311             	5.97770986e+02
312             	5.97786063e+02
313             	5.97775103e+02
314             	5.97771668e+02
315             	5.97779592e+02
316             	5.97783769e+02
317             	5.97763796e+02
318             	5.97760718e+02
319             	5.97743774e+02
320             	5.97743122e+02
321             	5.97729927e+02
322             	5.97737579e+02
323             	5.97731045e+02
324             	5.97740783e+02
325             	5.97741349e+02
326             	5.97754292e+02
327             	5.97774420e+02
328             	5.97767427e+02
329             	5.97768104e+02
330             	5.97779160e+02
331             	5.97763262e+02
332             	5.97758543e+02
333             	5.97742903e+02
334             	5.97743778e+02
335             	5.97732728e+02
336             	5.97739595e+02
337             	5.97733696e+02
338             	5.97742013e+02
339             	5.97739743e+02
340             	5.97750923e+02
341             	5.97748830e+02
342             	5.97756314e+02
343             	5.97767834e+02
344             	5.97758985e+02
345             	5.97761771e+02
346             	5.97750355e+02
347             	5.97753590e+02
348             	5.97742645e+02
349             	5.97747577e+02
350             	5.97739941e+02
351             	5.97746193e+02
352             	5.97741827e+02
353             	5.97751447e+02
354             	5.97748529e+02
355             	5.97756754e+02
356             	5.97774204e+02
357             	5.97765404e+02
358             	5.97766272e+02
359             	5.97776671e+02
360             	5.97761879e+02
361             	5.97758316e+02
362             	5.97744592e+02
363             	5.97746567e+02
364             	5.97735982e+02
365             	5.97741481e+02
366             	5.97734764e+02
367             	5.97742475e+02
368             	5.97739149e+02
369             	5.97749638e+02
370             	5.97746588e+02
371             	5.97756391e+02
372             	5.97750981e+02
373             	5.97756524e+02
374             	5.97748498e+02
375             	5.97752289e+02
376             	5.97743270e+02
377             	5.97747342e+02
378             	5.97739449e+02
379             	5.97745990e+02
380             	5.97740222e+02
381             	5.97749499e+02
382             	5.97745457e+02
383             	5.97753720e+02
384             	5.97749339e+02
385             	5.97756271e+02
386             	5.97750566e+02
387             	5.97756768e+02
388             	5.97749227e+02
389             	5.97753360e+02
390             	5.97744343e+02
391             	5.97749386e+02
392             	5.97740952e+02
393             	5.97746127e+02
394             	5.97739603e+02
395             	5.97747162e+02
396             	5.97742042e+02
397             	5.97749874e+02
398             	5.97744514e+02
399             	5.97751314e+02
400             	5.97744974e+02
401             	5.97751042e+02
402             	5.97743583e+02
403             	5.97749151e+02
404             	5.97741763e+02
405             	5.97747925e+02
406             	5.97741391e+02
407             	5.97748908e+02
408             	5.97743175e+02
409             	5.97750710e+02
410             	5.97745225e+02
411             	5.97752880e+02
412             	5.97747039e+02
413             	5.97753816e+02
414             	5.97747139e+02
415             	5.97753240e+02
416             	5.97746171e+02
417             	5.97751921e+02
418             	5.97744802e+02
419             	5.97750896e+02
420             	5.97744088e+02
421             	5.97750880e+02
422             	5.97744360e+02
423             	5.97751360e+02
424             	5.97745025e+02
425             	5.97751946e+02
426             	5.97745581e+02
427             	5.97752449e+02
428             	5.97745963e+02
429             	5.97752421e+02
430             	5.97745920e+02
431             	5.97752334e+02
432             	5.97745663e+02
433             	5.97751761e+02
434             	5.97745266e+02
435             	5.97751704e+02
436             	5.97745098e+02
437             	5.97751467e+02
438             	5.97744744e+02
439             	5.97751133e+02
440             	5.97744402e+02
441             	5.97750631e+02
442             	5.97743935e+02
443             	5.97750330e+02
444             	5.97743605e+02
445             	5.97750045e+02
446             	5.97743380e+02
447             	5.97749745e+02
448             	5.97743150e+02
449             	5.97749858e+02
450             	5.97743344e+02
451             	5.97750008e+02
452             	5.97743568e+02
453             	5.97750435e+02
454             	5.97744196e+02
455             	5.97750822e+02
456             	5.97744574e+02
457             	5.97751363e+02
458             	5.97744946e+02
459             	5.97751341e+02
460             	5.97744702e+02
461             	5.97751023e+02
462             	5.97744065e+02
463             	5.97750241e+02
464             	5.97743354e+02
465             	5.97749641e+02
466             	5.97742970e+02
467             	5.97749626e+02
468             	5.97743203e+02
469             	5.97750037e+02
470             	5.97743669e+02
471             	5.97750341e+02
472             	5.97743991e+02
473             	5.97750719e+02
474             	5.97744234e+02
475             	5.97750659e+02
476             	5.97744023e+02
477             	5.97750376e+02
478             	5.97743603e+02
479             	5.97750039e+02
480             	5.97743332e+02
481             	5.97749819e+02
482             	5.97743304e+02
483             	5.97749808e+02
484             	5.97743396e+02
485             	5.97750083e+02
486             	5.97743567e+02
487             	5.97750074e+02
488             	5.97743367e+02
489             	5.97749670e+02
490             	5.97742834e+02
491             	5.97749216e+02
492             	5.97742472e+02
493             	5.97748999e+02
494             	5.97742458e+02
495             	5.97749059e+02
496             	5.97742717e+02
497             	5.97749531e+02
498             	5.97743188e+02
499             	5.97749852e+02
500             	5.97743347e+02
501             	5.97749872e+02
502             	5.97743266e+02
503             	5.97749701e+02
504             	5.97742998e+02
505             	5.97749389e+02
506             	5.97742733e+02
507             	5.97749277e+02
508             	5.97742672e+02
509             	5.97749258e+02
510             	5.97742760e+02
511             	5.97749440e+02
512             	5.97742978e+02
513             	5.97749557e+02
514             	5.97743092e+02
515             	5.97749682e+02
516             	5.97743103e+02
517             	5.97749528e+02
518             	5.97742873e+02
519             	5.97749339e+02
520             	5.97742668e+02
521             	5.97749137e+02
522             	5.97742538e+02
523             	5.97749128e+02
524             	5.97742607e+02
525             	5.97749163e+02
526             	5.97742682e+02
527             	5.97749281e+02
528             	5.97742783e+02
529             	5.97749326e+02
530             	5.97742716e+02
531             	5.97749091e+02
532             	5.97742440e+02
533             	5.97748954e+02
534             	5.97742315e+02
535             	5.97748813e+02
536             	5.97742268e+02
537             	5.97748890e+02
538             	5.97742432e+02
539             	5.97749115e+02
540             	5.97742674e+02
541             	5.97749255e+02
542             	5.97742743e+02
543             	5.97749268e+02
544             	5.97742613e+02
545             	5.97749065e+02
546             	5.97742398e+02
547             	5.97748821e+02
548             	5.97742213e+02
549             	5.97748762e+02
550             	5.97742230e+02
551             	5.97748822e+02
552             	5.97742299e+02
553             	5.97748884e+02
554             	5.97742339e+02
555             	5.97748896e+02
556             	5.97742309e+02
557             	5.97748822e+02
558             	5.97742221e+02
559             	5.97748705e+02
560             	5.97742072e+02
561             	5.97748527e+02
562             	5.97741939e+02
563             	5.97748516e+02
564             	5.97741969e+02
565             	5.97748565e+02
566             	5.97742060e+02
567             	5.97748671e+02
568             	5.97742170e+02
569             	5.97748782e+02
570             	5.97742263e+02
571             	5.97748833e+02
572             	5.97742267e+02
573             	5.97748822e+02
574             	5.97742242e+02
575             	5.97748781e+02
576             	5.97742198e+02
577             	5.97748763e+02
578             	5.97742191e+02
579             	5.97748741e+02
580             	5.97742187e+02
581             	5.97748766e+02
582             	5.97742209e+02
583             	5.97748746e+02
584             	5.97742178e+02
585             	5.97748725e+02
586             	5.97742151e+02
587             	5.97748685e+02
588             	5.97742095e+02
589             	5.97748652e+02
590             	5.97742060e+02
591             	5.97748596e+02
592             	5.97742007e+02
593             	5.97748556e+02
594             	5.97741987e+02
595             	5.97748553e+02
596             	5.97742005e+02
597             	5.97748585e+02
598             	5.97742052e+02
599             	5.97748636e+02
600             	5.97742113e+02
601             	5.97748675e+02
602             	5.97742135e+02
603             	5.97748678e+02
604             	5.97742106e+02
605             	5.97748628e+02
606             	5.97742032e+02
607             	5.97748538e+02
608             	5.97741921e+02
609             	5.97748422e+02
610             	5.97741805e+02
611             	5.97748333e+02
612             	5.97741725e+02
613             	5.97748257e+02
614             	5.97741671e+02
615             	5.97748241e+02
616             	5.97741687e+02
617             	5.97748283e+02
618             	5.97741750e+02
619             	5.97748346e+02
620             	5.97741839e+02
621             	5.97748404e+02
