# Region        : cellZone component_2
# Cells         : 135
# Volume        : 2.56575296e-01
# Time          	volAverage(T)
1               	3.00696602e+02
2               	3.01384193e+02
3               	3.02000871e+02
4               	3.02580323e+02
5               	3.03148252e+02
6               	3.03708969e+02
7               	3.04261559e+02
8               	3.04811118e+02
9               	3.05354593e+02
10              	3.05890723e+02
11              	3.06422646e+02
12              	3.06947590e+02
13              	3.07468603e+02
14              	3.07983927e+02
15              	3.08488468e+02
16              	3.08982922e+02
17              	3.09468587e+02
18              	3.09942558e+02
19              	3.10402157e+02
20              	3.10860193e+02
21              	3.11301636e+02
22              	3.11728079e+02
23              	3.12137824e+02
24              	3.12541035e+02
25              	3.12935139e+02
26              	3.13308594e+02
27              	3.13656224e+02
28              	3.13996288e+02
29              	3.14326131e+02
30              	3.14659574e+02
31              	3.15003563e+02
32              	3.15355117e+02
33              	3.15696536e+02
34              	3.16038731e+02
35              	3.16361590e+02
36              	3.16685556e+02
37              	3.17023397e+02
38              	3.17348181e+02
39              	3.17652679e+02
40              	3.17927888e+02
41              	3.18171774e+02
42              	3.18395980e+02
43              	3.18607032e+02
44              	3.18818146e+02
45              	3.19018692e+02
46              	3.19203775e+02
47              	3.19386529e+02
48              	3.19580933e+02
49              	3.19778850e+02
50              	3.19982417e+02
51              	3.20184598e+02
52              	3.20381260e+02
53              	3.20584667e+02
54              	3.20793075e+02
55              	3.21014077e+02
56              	3.21251908e+02
57              	3.21498238e+02
58              	3.21731473e+02
59              	3.21953881e+02
60              	3.22165867e+02
61              	3.22372899e+02
62              	3.22568861e+02
63              	3.22752936e+02
64              	3.22943648e+02
65              	3.23142933e+02
66              	3.23338682e+02
67              	3.23521175e+02
68              	3.23688557e+02
69              	3.23852735e+02
70              	3.24028010e+02
71              	3.24217350e+02
72              	3.24402376e+02
73              	3.24572545e+02
74              	3.24721797e+02
75              	3.24853221e+02
76              	3.24965709e+02
77              	3.25082955e+02
78              	3.25204167e+02
79              	3.25316051e+02
80              	3.25419686e+02
81              	3.25519481e+02
82              	3.25619882e+02
83              	3.25725365e+02
84              	3.25834928e+02
85              	3.25934596e+02
86              	3.26033088e+02
87              	3.26123099e+02
88              	3.26205769e+02
89              	3.26297534e+02
90              	3.26390045e+02
91              	3.26481232e+02
92              	3.26568052e+02
93              	3.26648186e+02
94              	3.26721118e+02
95              	3.26789256e+02
96              	3.26855346e+02
97              	3.26904669e+02
98              	3.26947410e+02
99              	3.26990007e+02
100             	3.27038037e+02
101             	3.27082417e+02
102             	3.27123176e+02
103             	3.27162610e+02
104             	3.27202817e+02
105             	3.27244988e+02
106             	3.27285259e+02
107             	3.27314345e+02
108             	3.27330449e+02
109             	3.27350335e+02
110             	3.27362267e+02
111             	3.27384042e+02
112             	3.27407150e+02
113             	3.27428972e+02
114             	3.27454504e+02
115             	3.27476755e+02
116             	3.27492862e+02
117             	3.27509167e+02
118             	3.27525641e+02
119             	3.27534888e+02
120             	3.27539958e+02
121             	3.27544710e+02
122             	3.27546742e+02
123             	3.27542388e+02
124             	3.27534075e+02
125             	3.27523059e+02
126             	3.27515742e+02
127             	3.27508723e+02
128             	3.27501958e+02
129             	3.27500539e+02
130             	3.27503785e+02
131             	3.27510842e+02
132             	3.27520352e+02
133             	3.27530335e+02
134             	3.27531487e+02
135             	3.27525444e+02
136             	3.27517566e+02
137             	3.27507654e+02
138             	3.27497283e+02
139             	3.27488492e+02
140             	3.27478623e+02
141             	3.27469959e+02
142             	3.27459207e+02
143             	3.27451644e+02
144             	3.27442758e+02
145             	3.27434050e+02
146             	3.27420919e+02
147             	3.27403981e+02
148             	3.27386620e+02
149             	3.27370914e+02
150             	3.27358370e+02
151             	3.27347295e+02
152             	3.27336215e+02
153             	3.27327898e+02
154             	3.27318056e+02
155             	3.27309350e+02
156             	3.27301248e+02
157             	3.27291959e+02
158             	3.27280473e+02
159             	3.27268706e+02
160             	3.27256239e+02
161             	3.27242481e+02
162             	3.27227301e+02
163             	3.27211785e+02
164             	3.27193151e+02
165             	3.27174816e+02
166             	3.27156214e+02
167             	3.27136340e+02
168             	3.27116575e+02
169             	3.27096031e+02
170             	3.27074681e+02
171             	3.27057354e+02
172             	3.27040655e+02
173             	3.27022315e+02
174             	3.27003091e+02
175             	3.26982612e+02
176             	3.26962666e+02
177             	3.26943284e+02
178             	3.26923266e+02
179             	3.26902751e+02
180             	3.26882603e+02
181             	3.26863664e+02
182             	3.26844641e+02
183             	3.26824092e+02
184             	3.26802531e+02
185             	3.26780701e+02
186             	3.26759415e+02
187             	3.26738706e+02
188             	3.26718474e+02
189             	3.26698258e+02
190             	3.26678630e+02
191             	3.26658680e+02
192             	3.26639435e+02
193             	3.26620352e+02
194             	3.26601337e+02
195             	3.26582493e+02
196             	3.26563868e+02
197             	3.26545880e+02
198             	3.26528408e+02
199             	3.26511645e+02
200             	3.26496302e+02
201             	3.26481212e+02
202             	3.26465499e+02
203             	3.26448881e+02
204             	3.26431255e+02
205             	3.26414869e+02
206             	3.26398989e+02
207             	3.26382147e+02
208             	3.26364851e+02
209             	3.26347736e+02
210             	3.26330818e+02
211             	3.26314337e+02
212             	3.26298635e+02
213             	3.26283209e+02
214             	3.26268236e+02
215             	3.26253816e+02
216             	3.26239881e+02
217             	3.26225502e+02
218             	3.26212675e+02
219             	3.26199631e+02
220             	3.26185213e+02
221             	3.26169884e+02
222             	3.26153800e+02
223             	3.26138418e+02
224             	3.26123633e+02
225             	3.26109313e+02
226             	3.26095808e+02
227             	3.26082976e+02
228             	3.26071000e+02
229             	3.26059906e+02
230             	3.26048715e+02
231             	3.26037522e+02
232             	3.26026262e+02
233             	3.26014879e+02
234             	3.26003632e+02
235             	3.25991581e+02
236             	3.25979189e+02
237             	3.25967004e+02
238             	3.25955123e+02
239             	3.25943611e+02
240             	3.25931800e+02
241             	3.25920159e+02
242             	3.25908598e+02
243             	3.25897104e+02
244             	3.25885972e+02
245             	3.25874859e+02
246             	3.25864033e+02
247             	3.25853608e+02
248             	3.25843282e+02
249             	3.25833172e+02
250             	3.25822908e+02
251             	3.25813168e+02
252             	3.25803219e+02
253             	3.25793118e+02
254             	3.25782925e+02
255             	3.25772533e+02
256             	3.25761956e+02
257             	3.25751406e+02
258             	3.25741187e+02
259             	3.25731236e+02
260             	3.25721713e+02
261             	3.25712632e+02
262             	3.25704087e+02
263             	3.25695989e+02
264             	3.25688369e+02
265             	3.25680724e+02
266             	3.25673359e+02
267             	3.25665996e+02
268             	3.25658560e+02
269             	3.25651268e+02
270             	3.25644066e+02
271             	3.25637449e+02
272             	3.25630952e+02
273             	3.25624371e+02
274             	3.25618206e+02
275             	3.25612121e+02
276             	3.25605511e+02
277             	3.25598639e+02
278             	3.25591485e+02
279             	3.25584251e+02
280             	3.25577101e+02
281             	3.25570176e+02
282             	3.25563647e+02
283             	3.25557690e+02
284             	3.25551972e+02
285             	3.25546416e+02
286             	3.25541296e+02
287             	3.25536728e+02
288             	3.25532585e+02
289             	3.25528486e+02
290             	3.25524233e+02
291             	3.25519784e+02
292             	3.25515116e+02
293             	3.25510227e+02
294             	3.25505270e+02
295             	3.25500507e+02
296             	3.25495288e+02
297             	3.25489929e+02
298             	3.25484691e+02
299             	3.25479598e+02
300             	3.25474627e+02
301             	3.25469739e+02
302             	3.25464897e+02
303             	3.25460160e+02
304             	3.25455564e+02
305             	3.25451121e+02
306             	3.25446776e+02
307             	3.25442375e+02
308             	3.25438192e+02
309             	3.25434355e+02
310             	3.25430750e+02
311             	3.25427191e+02
312             	3.25423550e+02
313             	3.25419842e+02
314             	3.25416105e+02
315             	3.25412604e+02
316             	3.25408841e+02
317             	3.25404726e+02
318             	3.25400487e+02
319             	3.25396523e+02
320             	3.25392843e+02
321             	3.25389329e+02
322             	3.25385848e+02
323             	3.25382956e+02
324             	3.25380573e+02
325             	3.25378492e+02
326             	3.25376519e+02
327             	3.25374663e+02
328             	3.25372689e+02
329             	3.25370470e+02
330             	3.25368236e+02
331             	3.25365844e+02
332             	3.25363375e+02
333             	3.25360680e+02
334             	3.25357730e+02
335             	3.25354646e+02
336             	3.25351515e+02
337             	3.25348343e+02
338             	3.25345212e+02
339             	3.25342116e+02
340             	3.25339095e+02
341             	3.25336123e+02
342             	3.25333264e+02
343             	3.25330616e+02
344             	3.25328080e+02
345             	3.25325757e+02
346             	3.25323760e+02
347             	3.25322000e+02
348             	3.25320473e+02
349             	3.25318992e+02
350             	3.25317655e+02
351             	3.25316440e+02
352             	3.25315342e+02
353             	3.25314292e+02
354             	3.25313256e+02
355             	3.25312174e+02
356             	3.25311046e+02
357             	3.25309859e+02
358             	3.25308592e+02
359             	3.25307222e+02
360             	3.25305761e+02
361             	3.25304230e+02
362             	3.25302687e+02
363             	3.25301048e+02
364             	3.25299387e+02
365             	3.25297821e+02
366             	3.25296216e+02
367             	3.25294649e+02
368             	3.25293193e+02
369             	3.25291839e+02
370             	3.25290490e+02
371             	3.25289209e+02
372             	3.25287948e+02
373             	3.25286726e+02
374             	3.25285455e+02
375             	3.25284322e+02
376             	3.25283050e+02
377             	3.25281900e+02
378             	3.25281066e+02
379             	3.25280433e+02
380             	3.25279850e+02
381             	3.25279225e+02
382             	3.25278538e+02
383             	3.25277774e+02
384             	3.25276833e+02
385             	3.25275871e+02
386             	3.25274809e+02
387             	3.25273613e+02
388             	3.25272515e+02
389             	3.25271425e+02
390             	3.25270288e+02
391             	3.25269198e+02
392             	3.25268099e+02
393             	3.25267080e+02
394             	3.25266177e+02
395             	3.25265242e+02
396             	3.25264283e+02
397             	3.25263357e+02
398             	3.25262532e+02
399             	3.25261738e+02
400             	3.25261042e+02
401             	3.25260371e+02
402             	3.25259668e+02
403             	3.25258995e+02
404             	3.25258356e+02
405             	3.25257794e+02
406             	3.25257210e+02
407             	3.25256490e+02
408             	3.25255833e+02
409             	3.25255136e+02
410             	3.25254372e+02
411             	3.25253642e+02
412             	3.25253008e+02
413             	3.25252379e+02
414             	3.25251784e+02
415             	3.25250995e+02
416             	3.25250432e+02
417             	3.25250190e+02
418             	3.25250075e+02
419             	3.25249961e+02
420             	3.25249743e+02
421             	3.25249545e+02
422             	3.25249312e+02
423             	3.25248933e+02
424             	3.25248483e+02
425             	3.25248039e+02
426             	3.25247493e+02
427             	3.25247014e+02
428             	3.25246607e+02
429             	3.25246227e+02
430             	3.25245795e+02
431             	3.25245463e+02
432             	3.25245097e+02
433             	3.25244627e+02
434             	3.25244096e+02
435             	3.25243659e+02
436             	3.25243300e+02
437             	3.25242990e+02
438             	3.25242767e+02
439             	3.25242661e+02
440             	3.25242750e+02
441             	3.25242729e+02
442             	3.25242863e+02
443             	3.25243021e+02
444             	3.25243291e+02
445             	3.25243645e+02
446             	3.25244054e+02
447             	3.25244354e+02
448             	3.25244570e+02
449             	3.25244692e+02
450             	3.25244753e+02
451             	3.25244684e+02
452             	3.25244505e+02
453             	3.25244286e+02
454             	3.25244028e+02
455             	3.25243708e+02
456             	3.25243466e+02
457             	3.25243178e+02
458             	3.25242889e+02
459             	3.25242632e+02
460             	3.25242464e+02
461             	3.25242376e+02
462             	3.25242281e+02
463             	3.25242261e+02
464             	3.25242241e+02
465             	3.25242246e+02
466             	3.25242232e+02
467             	3.25242233e+02
468             	3.25242296e+02
469             	3.25242418e+02
470             	3.25242550e+02
471             	3.25242704e+02
472             	3.25242866e+02
473             	3.25243058e+02
474             	3.25243194e+02
475             	3.25243289e+02
476             	3.25243338e+02
477             	3.25243291e+02
478             	3.25243258e+02
479             	3.25243186e+02
480             	3.25243097e+02
481             	3.25242971e+02
482             	3.25242828e+02
483             	3.25242704e+02
484             	3.25242628e+02
485             	3.25242606e+02
486             	3.25242585e+02
487             	3.25242625e+02
488             	3.25242750e+02
489             	3.25242907e+02
490             	3.25243129e+02
491             	3.25243470e+02
492             	3.25243890e+02
493             	3.25244334e+02
494             	3.25244731e+02
495             	3.25245056e+02
496             	3.25245319e+02
497             	3.25245591e+02
498             	3.25245706e+02
499             	3.25245638e+02
500             	3.25245389e+02
501             	3.25245246e+02
502             	3.25245307e+02
503             	3.25245521e+02
504             	3.25245802e+02
505             	3.25246109e+02
506             	3.25246486e+02
507             	3.25246885e+02
508             	3.25247225e+02
509             	3.25247568e+02
510             	3.25247840e+02
511             	3.25248155e+02
512             	3.25248585e+02
513             	3.25249101e+02
514             	3.25249688e+02
515             	3.25250290e+02
516             	3.25250841e+02
517             	3.25251318e+02
518             	3.25251791e+02
519             	3.25252146e+02
520             	3.25252302e+02
521             	3.25252348e+02
522             	3.25252365e+02
523             	3.25252340e+02
524             	3.25252300e+02
525             	3.25252244e+02
526             	3.25252235e+02
527             	3.25252296e+02
528             	3.25252330e+02
529             	3.25252494e+02
530             	3.25252749e+02
531             	3.25253039e+02
532             	3.25253382e+02
533             	3.25253689e+02
534             	3.25254061e+02
535             	3.25254556e+02
536             	3.25255141e+02
537             	3.25255744e+02
538             	3.25256307e+02
539             	3.25256794e+02
540             	3.25257220e+02
541             	3.25257555e+02
542             	3.25257859e+02
543             	3.25258081e+02
544             	3.25258212e+02
545             	3.25258275e+02
546             	3.25258347e+02
547             	3.25258338e+02
548             	3.25258295e+02
549             	3.25258191e+02
550             	3.25258126e+02
551             	3.25258080e+02
552             	3.25258035e+02
553             	3.25257995e+02
554             	3.25257973e+02
555             	3.25257990e+02
556             	3.25258069e+02
557             	3.25258236e+02
558             	3.25258424e+02
559             	3.25258648e+02
560             	3.25258874e+02
561             	3.25259139e+02
562             	3.25259499e+02
563             	3.25259855e+02
564             	3.25260140e+02
565             	3.25260366e+02
566             	3.25260543e+02
567             	3.25260698e+02
568             	3.25260835e+02
569             	3.25260958e+02
570             	3.25261109e+02
571             	3.25261242e+02
572             	3.25261408e+02
573             	3.25261561e+02
574             	3.25261716e+02
575             	3.25261914e+02
576             	3.25262111e+02
577             	3.25262267e+02
578             	3.25262342e+02
579             	3.25262409e+02
580             	3.25262488e+02
581             	3.25262519e+02
582             	3.25262580e+02
583             	3.25262652e+02
584             	3.25262681e+02
585             	3.25262772e+02
586             	3.25262930e+02
587             	3.25263199e+02
588             	3.25263516e+02
589             	3.25263902e+02
590             	3.25264324e+02
591             	3.25264815e+02
592             	3.25265323e+02
593             	3.25265831e+02
594             	3.25266342e+02
595             	3.25266879e+02
596             	3.25267410e+02
597             	3.25267919e+02
598             	3.25268425e+02
599             	3.25268898e+02
600             	3.25269330e+02
601             	3.25269715e+02
602             	3.25270119e+02
603             	3.25270482e+02
604             	3.25270812e+02
605             	3.25271107e+02
606             	3.25271358e+02
607             	3.25271615e+02
608             	3.25271829e+02
609             	3.25271983e+02
610             	3.25272140e+02
611             	3.25272304e+02
612             	3.25272437e+02
613             	3.25272586e+02
614             	3.25272728e+02
615             	3.25272898e+02
616             	3.25273132e+02
617             	3.25273409e+02
618             	3.25273735e+02
619             	3.25274101e+02
620             	3.25274473e+02
621             	3.25274837e+02
