# Region        : cellZone component_2
# Cells         : 24
# Volume        : 1.78309761e-02
# Time          	volAverage(T)
1               	3.10217180e+02
2               	3.20053819e+02
3               	3.26524142e+02
4               	3.30673912e+02
5               	3.34100360e+02
6               	3.37422303e+02
7               	3.40608325e+02
8               	3.43576015e+02
9               	3.46284595e+02
10              	3.48764555e+02
11              	3.51054087e+02
12              	3.53171869e+02
13              	3.55135194e+02
14              	3.56948743e+02
15              	3.58630527e+02
16              	3.60234959e+02
17              	3.61758715e+02
18              	3.63179528e+02
19              	3.64584341e+02
20              	3.65939898e+02
21              	3.67282292e+02
22              	3.68603452e+02
23              	3.69804645e+02
24              	3.70805092e+02
25              	3.71722037e+02
26              	3.72464621e+02
27              	3.72995221e+02
28              	3.73285111e+02
29              	3.73310671e+02
30              	3.73140435e+02
31              	3.72860134e+02
32              	3.72526090e+02
33              	3.72241382e+02
34              	3.72067879e+02
35              	3.72018214e+02
36              	3.72041892e+02
37              	3.72205350e+02
38              	3.72536659e+02
39              	3.73010789e+02
40              	3.73565296e+02
41              	3.74223178e+02
42              	3.74470901e+02
43              	3.73998174e+02
44              	3.73506873e+02
45              	3.73156982e+02
46              	3.72605981e+02
47              	3.71818746e+02
48              	3.70932249e+02
49              	3.70119998e+02
50              	3.69442127e+02
51              	3.69083087e+02
52              	3.69025653e+02
53              	3.69191602e+02
54              	3.69656641e+02
55              	3.70251068e+02
56              	3.70657518e+02
57              	3.71011281e+02
58              	3.71126530e+02
59              	3.71059514e+02
60              	3.70723110e+02
61              	3.70163530e+02
62              	3.69525637e+02
63              	3.68942822e+02
64              	3.68517118e+02
65              	3.68300224e+02
66              	3.68290385e+02
67              	3.68456235e+02
68              	3.68785289e+02
69              	3.69165242e+02
70              	3.69748401e+02
71              	3.70343977e+02
72              	3.70484958e+02
73              	3.70348921e+02
74              	3.70134335e+02
75              	3.69691290e+02
76              	3.69015401e+02
77              	3.68283464e+02
78              	3.67578984e+02
79              	3.67035969e+02
80              	3.66756522e+02
81              	3.66636807e+02
82              	3.66703554e+02
83              	3.66961344e+02
84              	3.67370230e+02
85              	3.67949771e+02
86              	3.68530189e+02
87              	3.69065462e+02
88              	3.69477344e+02
89              	3.69744720e+02
90              	3.69785073e+02
91              	3.69490144e+02
92              	3.69025369e+02
93              	3.68404894e+02
94              	3.67669698e+02
95              	3.66962547e+02
96              	3.66457106e+02
97              	3.66097817e+02
98              	3.65841247e+02
99              	3.65805020e+02
100             	3.65984617e+02
101             	3.66369837e+02
102             	3.66932764e+02
103             	3.67562408e+02
104             	3.67850845e+02
105             	3.68145280e+02
106             	3.68330515e+02
107             	3.68276690e+02
108             	3.67977758e+02
109             	3.67547248e+02
110             	3.67125856e+02
111             	3.66811194e+02
112             	3.66662532e+02
113             	3.66713725e+02
114             	3.66955769e+02
115             	3.67380334e+02
116             	3.68011976e+02
117             	3.68817897e+02
118             	3.69381192e+02
119             	3.69788872e+02
120             	3.69893225e+02
121             	3.69884074e+02
122             	3.69703505e+02
123             	3.69352541e+02
124             	3.68904061e+02
125             	3.68485604e+02
126             	3.68180966e+02
127             	3.68050473e+02
128             	3.68138237e+02
129             	3.68428671e+02
130             	3.68854100e+02
131             	3.69351807e+02
132             	3.70029055e+02
133             	3.70773943e+02
134             	3.71148846e+02
135             	3.71424293e+02
136             	3.71303861e+02
137             	3.70918199e+02
138             	3.70312913e+02
139             	3.69559028e+02
140             	3.68744037e+02
141             	3.68015277e+02
142             	3.67471665e+02
143             	3.67033246e+02
144             	3.66815949e+02
145             	3.66807852e+02
146             	3.66952144e+02
147             	3.67273241e+02
148             	3.67677517e+02
149             	3.67961858e+02
150             	3.68231777e+02
151             	3.68657794e+02
152             	3.68734039e+02
153             	3.68628548e+02
154             	3.68582283e+02
155             	3.68401415e+02
156             	3.68205458e+02
157             	3.68041840e+02
158             	3.67949785e+02
159             	3.67911282e+02
160             	3.67946540e+02
161             	3.68072431e+02
162             	3.68191750e+02
163             	3.68379115e+02
164             	3.68663847e+02
165             	3.69014985e+02
166             	3.69396313e+02
167             	3.69795264e+02
168             	3.70279027e+02
169             	3.70763456e+02
170             	3.71208955e+02
171             	3.71590161e+02
172             	3.71570163e+02
173             	3.71480926e+02
174             	3.71344574e+02
175             	3.70981661e+02
176             	3.70393949e+02
177             	3.69675677e+02
178             	3.68991428e+02
179             	3.68424333e+02
180             	3.68028548e+02
181             	3.67803394e+02
182             	3.67745060e+02
183             	3.67851639e+02
184             	3.68102541e+02
185             	3.68466535e+02
186             	3.68882815e+02
187             	3.69316554e+02
188             	3.69725742e+02
189             	3.70138844e+02
190             	3.70506466e+02
191             	3.70817251e+02
192             	3.71079146e+02
193             	3.71324003e+02
194             	3.71448423e+02
195             	3.71525393e+02
196             	3.71534747e+02
197             	3.71404734e+02
198             	3.71145855e+02
199             	3.70811258e+02
200             	3.70453851e+02
201             	3.70125986e+02
202             	3.69843921e+02
203             	3.69621412e+02
204             	3.69474232e+02
205             	3.69395866e+02
206             	3.69375998e+02
207             	3.69413261e+02
208             	3.69494874e+02
209             	3.69600665e+02
210             	3.69716504e+02
211             	3.69827553e+02
212             	3.69927359e+02
213             	3.70010072e+02
214             	3.70071044e+02
215             	3.70115938e+02
216             	3.70130864e+02
217             	3.70121186e+02
218             	3.70086116e+02
219             	3.70025927e+02
220             	3.69950496e+02
221             	3.69860740e+02
222             	3.69760430e+02
223             	3.69685794e+02
224             	3.69552396e+02
225             	3.69423445e+02
226             	3.69321637e+02
227             	3.69225626e+02
228             	3.69103475e+02
229             	3.68970369e+02
230             	3.68833636e+02
231             	3.68705914e+02
232             	3.68593635e+02
233             	3.68503801e+02
234             	3.68445163e+02
235             	3.68422343e+02
236             	3.68435292e+02
237             	3.68511447e+02
238             	3.68603455e+02
239             	3.68706486e+02
240             	3.68843634e+02
241             	3.68997594e+02
242             	3.69127747e+02
243             	3.69258408e+02
244             	3.69386605e+02
245             	3.69490382e+02
246             	3.69534465e+02
247             	3.69509383e+02
248             	3.69403696e+02
249             	3.69257902e+02
250             	3.69061134e+02
251             	3.68848281e+02
252             	3.68634538e+02
253             	3.68426712e+02
254             	3.68290651e+02
255             	3.68201830e+02
256             	3.68158124e+02
257             	3.68182259e+02
258             	3.68258338e+02
259             	3.68379763e+02
260             	3.68532505e+02
261             	3.68706664e+02
262             	3.68886551e+02
263             	3.69064251e+02
264             	3.69235093e+02
265             	3.69410392e+02
266             	3.69560756e+02
267             	3.69710517e+02
268             	3.69827214e+02
269             	3.69912866e+02
270             	3.69982707e+02
271             	3.70010601e+02
272             	3.69991471e+02
273             	3.69925997e+02
274             	3.69827398e+02
275             	3.69698118e+02
276             	3.69560918e+02
277             	3.69449650e+02
278             	3.69341681e+02
279             	3.69246777e+02
280             	3.69183412e+02
281             	3.69154588e+02
282             	3.69149901e+02
283             	3.69156406e+02
284             	3.69170145e+02
285             	3.69194688e+02
286             	3.69219292e+02
287             	3.69248320e+02
288             	3.69291527e+02
289             	3.69350372e+02
290             	3.69416585e+02
291             	3.69491593e+02
292             	3.69565496e+02
293             	3.69635636e+02
294             	3.69693424e+02
295             	3.69728585e+02
296             	3.69738868e+02
297             	3.69714920e+02
298             	3.69668314e+02
299             	3.69608679e+02
300             	3.69537464e+02
301             	3.69458846e+02
302             	3.69378809e+02
303             	3.69312560e+02
304             	3.69272008e+02
305             	3.69244542e+02
306             	3.69228933e+02
307             	3.69228201e+02
308             	3.69232391e+02
309             	3.69225889e+02
310             	3.69211416e+02
311             	3.69191182e+02
312             	3.69165825e+02
313             	3.69139711e+02
314             	3.69122303e+02
315             	3.69122873e+02
316             	3.69133771e+02
317             	3.69155173e+02
318             	3.69188999e+02
319             	3.69228154e+02
320             	3.69262796e+02
321             	3.69286784e+02
322             	3.69301030e+02
323             	3.69304906e+02
324             	3.69294127e+02
325             	3.69273061e+02
326             	3.69246354e+02
327             	3.69219417e+02
328             	3.69200232e+02
329             	3.69191714e+02
330             	3.69187522e+02
331             	3.69191297e+02
332             	3.69201568e+02
333             	3.69212951e+02
334             	3.69220914e+02
335             	3.69224627e+02
336             	3.69223176e+02
337             	3.69213407e+02
338             	3.69197897e+02
339             	3.69178658e+02
340             	3.69158731e+02
341             	3.69139382e+02
342             	3.69128613e+02
343             	3.69122511e+02
344             	3.69121532e+02
345             	3.69127174e+02
346             	3.69138056e+02
347             	3.69151719e+02
348             	3.69160520e+02
349             	3.69169180e+02
350             	3.69175427e+02
351             	3.69175746e+02
352             	3.69172645e+02
353             	3.69168341e+02
354             	3.69167026e+02
355             	3.69163832e+02
356             	3.69162302e+02
357             	3.69164555e+02
358             	3.69167780e+02
359             	3.69174684e+02
360             	3.69183059e+02
361             	3.69191533e+02
362             	3.69198344e+02
363             	3.69203392e+02
364             	3.69206282e+02
365             	3.69204270e+02
366             	3.69202711e+02
367             	3.69200962e+02
368             	3.69198765e+02
369             	3.69197813e+02
370             	3.69194186e+02
371             	3.69185951e+02
372             	3.69179952e+02
373             	3.69173457e+02
374             	3.69161607e+02
375             	3.69144640e+02
376             	3.69123204e+02
377             	3.69106940e+02
378             	3.69100656e+02
379             	3.69097322e+02
380             	3.69099878e+02
381             	3.69113605e+02
382             	3.69137183e+02
383             	3.69168212e+02
384             	3.69204247e+02
385             	3.69242550e+02
386             	3.69278111e+02
387             	3.69299686e+02
388             	3.69309458e+02
389             	3.69313164e+02
390             	3.69306238e+02
391             	3.69285639e+02
392             	3.69255285e+02
393             	3.69224670e+02
394             	3.69201110e+02
395             	3.69183215e+02
396             	3.69170719e+02
397             	3.69168334e+02
398             	3.69178147e+02
399             	3.69198618e+02
400             	3.69227365e+02
401             	3.69259700e+02
402             	3.69290329e+02
403             	3.69309090e+02
404             	3.69317770e+02
405             	3.69317477e+02
406             	3.69307627e+02
407             	3.69283977e+02
408             	3.69248842e+02
409             	3.69208919e+02
410             	3.69170277e+02
411             	3.69141800e+02
412             	3.69125392e+02
413             	3.69123501e+02
414             	3.69135029e+02
415             	3.69160445e+02
416             	3.69202705e+02
417             	3.69260571e+02
418             	3.69310877e+02
419             	3.69347856e+02
420             	3.69366743e+02
421             	3.69371474e+02
422             	3.69355037e+02
423             	3.69313158e+02
424             	3.69263293e+02
425             	3.69226225e+02
426             	3.69204028e+02
427             	3.69190437e+02
428             	3.69198921e+02
429             	3.69233613e+02
430             	3.69282746e+02
431             	3.69327337e+02
432             	3.69351313e+02
433             	3.69356261e+02
434             	3.69346626e+02
435             	3.69305409e+02
436             	3.69244380e+02
437             	3.69185222e+02
438             	3.69141384e+02
439             	3.69123161e+02
440             	3.69123522e+02
441             	3.69154215e+02
442             	3.69204569e+02
443             	3.69251568e+02
444             	3.69291889e+02
445             	3.69310006e+02
446             	3.69310516e+02
447             	3.69281607e+02
448             	3.69218236e+02
449             	3.69146333e+02
450             	3.69085435e+02
451             	3.69045143e+02
452             	3.69016823e+02
453             	3.69015068e+02
454             	3.69054015e+02
455             	3.69127187e+02
456             	3.69198687e+02
457             	3.69248853e+02
458             	3.69307852e+02
459             	3.69359562e+02
460             	3.69380053e+02
461             	3.69370159e+02
462             	3.69337991e+02
463             	3.69309942e+02
464             	3.69281632e+02
465             	3.69251474e+02
466             	3.69240762e+02
467             	3.69249222e+02
468             	3.69279551e+02
469             	3.69324780e+02
470             	3.69363394e+02
471             	3.69393093e+02
472             	3.69429758e+02
473             	3.69459911e+02
474             	3.69468675e+02
475             	3.69456643e+02
476             	3.69424050e+02
477             	3.69388479e+02
478             	3.69354672e+02
479             	3.69319128e+02
480             	3.69296480e+02
481             	3.69280346e+02
482             	3.69275770e+02
483             	3.69285197e+02
484             	3.69307460e+02
485             	3.69341261e+02
486             	3.69375651e+02
487             	3.69413952e+02
488             	3.69452312e+02
489             	3.69479348e+02
490             	3.69489827e+02
491             	3.69479799e+02
492             	3.69457576e+02
493             	3.69421665e+02
494             	3.69373747e+02
495             	3.69318469e+02
496             	3.69264414e+02
497             	3.69214390e+02
498             	3.69185289e+02
499             	3.69172709e+02
500             	3.69168847e+02
501             	3.69180758e+02
502             	3.69200074e+02
503             	3.69228314e+02
504             	3.69260883e+02
505             	3.69290348e+02
506             	3.69314829e+02
507             	3.69335121e+02
508             	3.69349774e+02
509             	3.69361357e+02
510             	3.69369863e+02
511             	3.69373553e+02
512             	3.69373579e+02
513             	3.69362270e+02
514             	3.69347006e+02
515             	3.69328045e+02
516             	3.69301146e+02
517             	3.69269649e+02
518             	3.69238471e+02
519             	3.69209268e+02
520             	3.69180608e+02
521             	3.69157825e+02
522             	3.69139703e+02
523             	3.69130804e+02
524             	3.69134289e+02
525             	3.69141628e+02
526             	3.69153174e+02
527             	3.69183038e+02
528             	3.69217621e+02
529             	3.69254071e+02
530             	3.69296562e+02
531             	3.69345220e+02
532             	3.69394094e+02
533             	3.69421183e+02
534             	3.69423502e+02
535             	3.69417057e+02
536             	3.69391303e+02
537             	3.69345766e+02
538             	3.69288678e+02
539             	3.69229853e+02
540             	3.69179250e+02
541             	3.69139676e+02
542             	3.69113407e+02
543             	3.69105776e+02
544             	3.69118137e+02
545             	3.69147002e+02
546             	3.69171155e+02
547             	3.69202051e+02
548             	3.69239027e+02
549             	3.69272503e+02
550             	3.69287119e+02
551             	3.69285466e+02
552             	3.69278981e+02
553             	3.69259966e+02
554             	3.69224728e+02
555             	3.69184423e+02
556             	3.69149484e+02
557             	3.69129392e+02
558             	3.69117643e+02
559             	3.69118462e+02
560             	3.69141634e+02
561             	3.69186349e+02
562             	3.69242372e+02
563             	3.69290573e+02
564             	3.69323776e+02
565             	3.69355999e+02
566             	3.69375227e+02
567             	3.69372195e+02
568             	3.69346249e+02
569             	3.69300747e+02
570             	3.69244205e+02
571             	3.69181491e+02
572             	3.69142911e+02
573             	3.69110198e+02
574             	3.69087537e+02
575             	3.69090001e+02
576             	3.69109617e+02
577             	3.69148426e+02
578             	3.69202061e+02
579             	3.69264907e+02
580             	3.69327382e+02
581             	3.69375201e+02
582             	3.69391605e+02
583             	3.69393582e+02
584             	3.69376209e+02
585             	3.69331273e+02
586             	3.69271135e+02
587             	3.69209273e+02
588             	3.69166132e+02
589             	3.69140354e+02
590             	3.69126260e+02
591             	3.69134503e+02
592             	3.69165781e+02
593             	3.69211321e+02
594             	3.69266528e+02
595             	3.69323964e+02
596             	3.69377577e+02
597             	3.69424222e+02
598             	3.69434196e+02
599             	3.69428300e+02
600             	3.69409650e+02
601             	3.69367408e+02
602             	3.69309892e+02
603             	3.69242882e+02
604             	3.69182683e+02
605             	3.69141893e+02
606             	3.69118986e+02
607             	3.69107927e+02
608             	3.69115100e+02
609             	3.69143996e+02
610             	3.69189833e+02
611             	3.69245412e+02
612             	3.69288068e+02
613             	3.69332747e+02
614             	3.69372378e+02
615             	3.69384883e+02
616             	3.69384975e+02
617             	3.69378475e+02
618             	3.69358320e+02
619             	3.69329340e+02
620             	3.69298585e+02
621             	3.69270781e+02
