# Region        : cellZone component_4
# Cells         : 58
# Volume        : 1.00220797e-01
# Time          	volAverage(T)
1               	3.02110781e+02
2               	3.04168401e+02
3               	3.06043188e+02
4               	3.07784714e+02
5               	3.09439246e+02
6               	3.11026413e+02
7               	3.12554641e+02
8               	3.14027498e+02
9               	3.15454769e+02
10              	3.16854276e+02
11              	3.18219558e+02
12              	3.19527863e+02
13              	3.20730097e+02
14              	3.21832796e+02
15              	3.22873756e+02
16              	3.23850635e+02
17              	3.24771410e+02
18              	3.25663789e+02
19              	3.26556033e+02
20              	3.27446682e+02
21              	3.28335437e+02
22              	3.29249580e+02
23              	3.30173019e+02
24              	3.31089070e+02
25              	3.32023979e+02
26              	3.32966835e+02
27              	3.33915574e+02
28              	3.34854959e+02
29              	3.35789952e+02
30              	3.36706963e+02
31              	3.37593480e+02
32              	3.38461840e+02
33              	3.39209109e+02
34              	3.39750847e+02
35              	3.40098186e+02
36              	3.40255411e+02
37              	3.40248394e+02
38              	3.40058179e+02
39              	3.39949952e+02
40              	3.40238670e+02
41              	3.40507362e+02
42              	3.40735354e+02
43              	3.40943900e+02
44              	3.41190710e+02
45              	3.41488673e+02
46              	3.41754124e+02
47              	3.42092199e+02
48              	3.42225093e+02
49              	3.42091711e+02
50              	3.41737154e+02
51              	3.41669302e+02
52              	3.41700200e+02
53              	3.41766783e+02
54              	3.41831646e+02
55              	3.41930546e+02
56              	3.42051095e+02
57              	3.42211078e+02
58              	3.42390748e+02
59              	3.42573654e+02
60              	3.42768774e+02
61              	3.43039780e+02
62              	3.43084304e+02
63              	3.42926056e+02
64              	3.42562077e+02
65              	3.42241923e+02
66              	3.42071193e+02
67              	3.42045958e+02
68              	3.42071651e+02
69              	3.42218959e+02
70              	3.42401951e+02
71              	3.42651184e+02
72              	3.42872113e+02
73              	3.43069341e+02
74              	3.43223440e+02
75              	3.43373874e+02
76              	3.43543989e+02
77              	3.43739878e+02
78              	3.43976099e+02
79              	3.44078326e+02
80              	3.44010480e+02
81              	3.43736341e+02
82              	3.43435603e+02
83              	3.43384737e+02
84              	3.43376533e+02
85              	3.43310668e+02
86              	3.43218741e+02
87              	3.43143270e+02
88              	3.43074323e+02
89              	3.43062452e+02
90              	3.43103590e+02
91              	3.43172447e+02
92              	3.43243130e+02
93              	3.43232602e+02
94              	3.43078678e+02
95              	3.42864916e+02
96              	3.42721997e+02
97              	3.42641121e+02
98              	3.42537110e+02
99              	3.42404159e+02
100             	3.42272012e+02
101             	3.42160983e+02
102             	3.42091242e+02
103             	3.42018588e+02
104             	3.42004266e+02
105             	3.42049154e+02
106             	3.42099574e+02
107             	3.42048603e+02
108             	3.41982150e+02
109             	3.41952929e+02
110             	3.41917579e+02
111             	3.41880015e+02
112             	3.41829767e+02
113             	3.41766433e+02
114             	3.41690965e+02
115             	3.41648074e+02
116             	3.41611717e+02
117             	3.41589917e+02
118             	3.41596240e+02
119             	3.41651182e+02
120             	3.41737823e+02
121             	3.41861083e+02
122             	3.41982720e+02
123             	3.42091356e+02
124             	3.42182490e+02
125             	3.42273745e+02
126             	3.42384044e+02
127             	3.42507406e+02
128             	3.42655636e+02
129             	3.42809902e+02
130             	3.42941257e+02
131             	3.43041326e+02
132             	3.43110111e+02
133             	3.43165387e+02
134             	3.43218098e+02
135             	3.43275077e+02
136             	3.43347393e+02
137             	3.43439018e+02
138             	3.43556348e+02
139             	3.43682609e+02
140             	3.43823177e+02
141             	3.43976522e+02
142             	3.44117243e+02
143             	3.44243648e+02
144             	3.44366450e+02
145             	3.44492975e+02
146             	3.44614633e+02
147             	3.44697076e+02
148             	3.44807096e+02
149             	3.44931008e+02
150             	3.45039053e+02
151             	3.45134142e+02
152             	3.45224033e+02
153             	3.45312353e+02
154             	3.45387964e+02
155             	3.45461105e+02
156             	3.45551172e+02
157             	3.45662985e+02
158             	3.45819232e+02
159             	3.46020493e+02
160             	3.46169911e+02
161             	3.46273420e+02
162             	3.46417212e+02
163             	3.46573448e+02
164             	3.46698050e+02
165             	3.46781503e+02
166             	3.46834090e+02
167             	3.46871700e+02
168             	3.46902630e+02
169             	3.46942704e+02
170             	3.46988693e+02
171             	3.47036116e+02
172             	3.47103780e+02
173             	3.47174844e+02
174             	3.47270454e+02
175             	3.47373110e+02
176             	3.47471993e+02
177             	3.47564645e+02
178             	3.47653402e+02
179             	3.47745534e+02
180             	3.47850312e+02
181             	3.47961646e+02
182             	3.48077958e+02
183             	3.48195384e+02
184             	3.48302822e+02
185             	3.48401778e+02
186             	3.48473307e+02
187             	3.48544342e+02
188             	3.48601685e+02
189             	3.48642016e+02
190             	3.48673900e+02
191             	3.48700144e+02
192             	3.48724571e+02
193             	3.48753499e+02
194             	3.48792874e+02
195             	3.48837016e+02
196             	3.48888632e+02
197             	3.48952780e+02
198             	3.49024909e+02
199             	3.49102394e+02
200             	3.49183839e+02
201             	3.49278146e+02
202             	3.49377756e+02
203             	3.49475891e+02
204             	3.49580134e+02
205             	3.49675356e+02
206             	3.49763073e+02
207             	3.49834475e+02
208             	3.49901392e+02
209             	3.49951974e+02
210             	3.49986167e+02
211             	3.50008591e+02
212             	3.50020760e+02
213             	3.50024755e+02
214             	3.50026190e+02
215             	3.50032876e+02
216             	3.50051343e+02
217             	3.50084520e+02
218             	3.50120268e+02
219             	3.50173892e+02
220             	3.50247056e+02
221             	3.50330118e+02
222             	3.50419627e+02
223             	3.50490305e+02
224             	3.50558533e+02
225             	3.50626696e+02
226             	3.50684392e+02
227             	3.50728153e+02
228             	3.50761336e+02
229             	3.50789812e+02
230             	3.50815625e+02
231             	3.50839759e+02
232             	3.50859128e+02
233             	3.50876242e+02
234             	3.50890847e+02
235             	3.50903081e+02
236             	3.50913592e+02
237             	3.50925629e+02
238             	3.50941727e+02
239             	3.50963165e+02
240             	3.50991416e+02
241             	3.51022226e+02
242             	3.51052372e+02
243             	3.51082798e+02
244             	3.51110742e+02
245             	3.51136693e+02
246             	3.51160304e+02
247             	3.51180690e+02
248             	3.51186125e+02
249             	3.51195636e+02
250             	3.51205923e+02
251             	3.51211866e+02
252             	3.51215598e+02
253             	3.51219018e+02
254             	3.51221910e+02
255             	3.51225195e+02
256             	3.51231813e+02
257             	3.51241180e+02
258             	3.51255292e+02
259             	3.51277134e+02
260             	3.51297653e+02
261             	3.51319403e+02
262             	3.51347796e+02
263             	3.51379020e+02
264             	3.51407007e+02
265             	3.51432024e+02
266             	3.51453906e+02
267             	3.51474338e+02
268             	3.51487002e+02
269             	3.51498344e+02
270             	3.51502686e+02
271             	3.51507380e+02
272             	3.51507514e+02
273             	3.51500708e+02
274             	3.51488347e+02
275             	3.51473011e+02
276             	3.51458474e+02
277             	3.51444514e+02
278             	3.51435149e+02
279             	3.51432562e+02
280             	3.51438565e+02
281             	3.51451808e+02
282             	3.51463788e+02
283             	3.51479525e+02
284             	3.51501589e+02
285             	3.51527755e+02
286             	3.51551959e+02
287             	3.51574698e+02
288             	3.51579712e+02
289             	3.51590921e+02
290             	3.51600407e+02
291             	3.51604718e+02
292             	3.51603943e+02
293             	3.51596656e+02
294             	3.51585388e+02
295             	3.51572787e+02
296             	3.51560650e+02
297             	3.51549260e+02
298             	3.51537190e+02
299             	3.51530766e+02
300             	3.51532595e+02
301             	3.51533900e+02
302             	3.51540658e+02
303             	3.51554107e+02
304             	3.51566787e+02
305             	3.51585453e+02
306             	3.51594954e+02
307             	3.51607624e+02
308             	3.51618809e+02
309             	3.51625551e+02
310             	3.51627127e+02
311             	3.51624369e+02
312             	3.51619424e+02
313             	3.51615426e+02
314             	3.51611904e+02
315             	3.51609578e+02
316             	3.51609271e+02
317             	3.51610176e+02
318             	3.51611595e+02
319             	3.51613616e+02
320             	3.51617821e+02
321             	3.51623213e+02
322             	3.51629260e+02
323             	3.51635532e+02
324             	3.51641881e+02
325             	3.51646800e+02
326             	3.51653483e+02
327             	3.51660592e+02
328             	3.51665724e+02
329             	3.51668339e+02
330             	3.51668335e+02
331             	3.51668216e+02
332             	3.51660279e+02
333             	3.51651174e+02
334             	3.51642357e+02
335             	3.51632023e+02
336             	3.51620133e+02
337             	3.51608557e+02
338             	3.51598865e+02
339             	3.51591917e+02
340             	3.51592863e+02
341             	3.51600074e+02
342             	3.51610445e+02
343             	3.51626216e+02
344             	3.51647645e+02
345             	3.51671557e+02
346             	3.51697299e+02
347             	3.51723392e+02
348             	3.51734347e+02
349             	3.51748625e+02
350             	3.51761391e+02
351             	3.51768971e+02
352             	3.51769004e+02
353             	3.51762506e+02
354             	3.51751665e+02
355             	3.51738135e+02
356             	3.51723413e+02
357             	3.51708143e+02
358             	3.51695343e+02
359             	3.51683705e+02
360             	3.51672669e+02
361             	3.51661893e+02
362             	3.51656852e+02
363             	3.51653365e+02
364             	3.51647629e+02
365             	3.51646158e+02
366             	3.51651500e+02
367             	3.51660041e+02
368             	3.51666006e+02
369             	3.51670480e+02
370             	3.51673770e+02
371             	3.51675699e+02
372             	3.51674429e+02
373             	3.51669721e+02
374             	3.51662636e+02
375             	3.51654412e+02
376             	3.51646722e+02
377             	3.51642714e+02
378             	3.51640101e+02
379             	3.51639459e+02
380             	3.51641359e+02
381             	3.51645340e+02
382             	3.51652463e+02
383             	3.51663954e+02
384             	3.51676207e+02
385             	3.51687027e+02
386             	3.51698027e+02
387             	3.51711343e+02
388             	3.51724294e+02
389             	3.51734782e+02
390             	3.51743217e+02
391             	3.51749854e+02
392             	3.51753272e+02
393             	3.51752393e+02
394             	3.51746548e+02
395             	3.51741594e+02
396             	3.51734874e+02
397             	3.51726698e+02
398             	3.51717828e+02
399             	3.51708516e+02
400             	3.51698224e+02
401             	3.51687450e+02
402             	3.51677001e+02
403             	3.51668057e+02
404             	3.51662487e+02
405             	3.51658727e+02
406             	3.51657344e+02
407             	3.51658303e+02
408             	3.51661881e+02
409             	3.51668152e+02
410             	3.51676180e+02
411             	3.51685615e+02
412             	3.51695991e+02
413             	3.51707097e+02
414             	3.51718333e+02
415             	3.51729496e+02
416             	3.51740274e+02
417             	3.51750249e+02
418             	3.51759010e+02
419             	3.51766104e+02
420             	3.51772973e+02
421             	3.51780417e+02
422             	3.51785398e+02
423             	3.51791283e+02
424             	3.51794962e+02
425             	3.51797297e+02
426             	3.51798949e+02
427             	3.51799349e+02
428             	3.51797442e+02
429             	3.51790339e+02
430             	3.51782683e+02
431             	3.51772629e+02
432             	3.51762660e+02
433             	3.51752807e+02
434             	3.51742215e+02
435             	3.51732382e+02
436             	3.51724666e+02
437             	3.51719808e+02
438             	3.51717971e+02
439             	3.51718918e+02
440             	3.51721538e+02
441             	3.51728233e+02
442             	3.51736089e+02
443             	3.51744720e+02
444             	3.51754804e+02
445             	3.51766334e+02
446             	3.51781869e+02
447             	3.51797310e+02
448             	3.51812712e+02
449             	3.51827623e+02
450             	3.51841338e+02
451             	3.51853012e+02
452             	3.51862082e+02
453             	3.51864328e+02
454             	3.51864628e+02
455             	3.51862083e+02
456             	3.51856696e+02
457             	3.51848108e+02
458             	3.51837941e+02
459             	3.51826768e+02
460             	3.51816100e+02
461             	3.51805623e+02
462             	3.51796284e+02
463             	3.51787787e+02
464             	3.51780436e+02
465             	3.51774623e+02
466             	3.51772071e+02
467             	3.51770046e+02
468             	3.51769026e+02
469             	3.51770120e+02
470             	3.51773768e+02
471             	3.51778928e+02
472             	3.51785491e+02
473             	3.51793191e+02
474             	3.51800413e+02
475             	3.51806883e+02
476             	3.51813312e+02
477             	3.51819579e+02
478             	3.51824818e+02
479             	3.51828604e+02
480             	3.51831709e+02
481             	3.51833746e+02
482             	3.51835551e+02
483             	3.51836607e+02
484             	3.51837131e+02
485             	3.51836918e+02
486             	3.51835819e+02
487             	3.51833766e+02
488             	3.51829978e+02
489             	3.51825369e+02
490             	3.51821016e+02
491             	3.51817233e+02
492             	3.51813741e+02
493             	3.51807376e+02
494             	3.51801982e+02
495             	3.51797468e+02
496             	3.51793199e+02
497             	3.51789225e+02
498             	3.51785980e+02
499             	3.51783933e+02
500             	3.51782647e+02
501             	3.51782270e+02
502             	3.51782977e+02
503             	3.51784513e+02
504             	3.51786392e+02
505             	3.51788762e+02
506             	3.51792829e+02
507             	3.51796739e+02
508             	3.51800096e+02
509             	3.51802631e+02
510             	3.51804278e+02
511             	3.51804743e+02
512             	3.51803766e+02
513             	3.51801415e+02
514             	3.51797615e+02
515             	3.51792604e+02
516             	3.51786941e+02
517             	3.51781135e+02
518             	3.51775079e+02
519             	3.51769400e+02
520             	3.51764353e+02
521             	3.51760000e+02
522             	3.51753883e+02
523             	3.51749270e+02
524             	3.51745466e+02
525             	3.51741471e+02
526             	3.51737418e+02
527             	3.51733729e+02
528             	3.51730978e+02
529             	3.51730555e+02
530             	3.51731364e+02
531             	3.51733693e+02
532             	3.51739525e+02
533             	3.51746183e+02
534             	3.51753614e+02
535             	3.51761824e+02
536             	3.51770565e+02
537             	3.51779237e+02
538             	3.51787425e+02
539             	3.51794527e+02
540             	3.51800484e+02
541             	3.51804965e+02
542             	3.51807680e+02
543             	3.51808568e+02
544             	3.51807744e+02
545             	3.51805625e+02
546             	3.51802722e+02
547             	3.51798838e+02
548             	3.51794344e+02
549             	3.51787530e+02
550             	3.51781217e+02
551             	3.51775301e+02
552             	3.51769462e+02
553             	3.51763811e+02
554             	3.51758502e+02
555             	3.51753641e+02
556             	3.51749690e+02
557             	3.51746494e+02
558             	3.51744105e+02
559             	3.51742561e+02
560             	3.51742486e+02
561             	3.51744301e+02
562             	3.51747741e+02
563             	3.51751696e+02
564             	3.51756341e+02
565             	3.51761402e+02
566             	3.51765619e+02
567             	3.51769297e+02
568             	3.51772394e+02
569             	3.51774352e+02
570             	3.51775089e+02
571             	3.51775073e+02
572             	3.51773949e+02
573             	3.51772515e+02
574             	3.51770953e+02
575             	3.51768977e+02
576             	3.51766856e+02
577             	3.51764605e+02
578             	3.51761901e+02
579             	3.51759634e+02
580             	3.51757205e+02
581             	3.51755246e+02
582             	3.51753793e+02
583             	3.51753168e+02
584             	3.51753595e+02
585             	3.51754575e+02
586             	3.51756383e+02
587             	3.51758367e+02
588             	3.51760499e+02
589             	3.51763325e+02
590             	3.51766429e+02
591             	3.51769280e+02
592             	3.51771775e+02
593             	3.51774024e+02
594             	3.51776138e+02
595             	3.51778055e+02
596             	3.51779483e+02
597             	3.51780432e+02
598             	3.51780862e+02
599             	3.51780735e+02
600             	3.51779858e+02
601             	3.51778335e+02
602             	3.51775809e+02
603             	3.51772562e+02
604             	3.51768915e+02
605             	3.51765864e+02
606             	3.51761999e+02
607             	3.51758073e+02
608             	3.51754538e+02
609             	3.51751304e+02
610             	3.51748220e+02
611             	3.51745446e+02
612             	3.51742873e+02
613             	3.51740519e+02
614             	3.51738521e+02
615             	3.51737034e+02
616             	3.51736003e+02
617             	3.51735661e+02
618             	3.51736134e+02
619             	3.51737423e+02
620             	3.51739610e+02
621             	3.51742620e+02
