# Region        : cellZone component_0
# Cells         : 110
# Volume        : 1.69439323e-01
# Time          	volAverage(T)
1               	3.00341884e+02
2               	3.00679286e+02
3               	3.00992384e+02
4               	3.01288971e+02
5               	3.01577065e+02
6               	3.01858262e+02
7               	3.02134644e+02
8               	3.02407616e+02
9               	3.02678084e+02
10              	3.02944493e+02
11              	3.03200145e+02
12              	3.03445345e+02
13              	3.03682540e+02
14              	3.03912795e+02
15              	3.04143280e+02
16              	3.04371893e+02
17              	3.04599235e+02
18              	3.04822273e+02
19              	3.05039935e+02
20              	3.05251770e+02
21              	3.05457490e+02
22              	3.05657066e+02
23              	3.05856908e+02
24              	3.06058332e+02
25              	3.06260179e+02
26              	3.06463917e+02
27              	3.06664720e+02
28              	3.06861878e+02
29              	3.07053583e+02
30              	3.07237562e+02
31              	3.07410896e+02
32              	3.07579059e+02
33              	3.07744910e+02
34              	3.07909887e+02
35              	3.08074481e+02
36              	3.08237226e+02
37              	3.08406964e+02
38              	3.08580883e+02
39              	3.08753617e+02
40              	3.08922488e+02
41              	3.09090949e+02
42              	3.09258411e+02
43              	3.09425296e+02
44              	3.09593430e+02
45              	3.09758342e+02
46              	3.09923239e+02
47              	3.10086850e+02
48              	3.10241621e+02
49              	3.10387531e+02
50              	3.10520848e+02
51              	3.10659694e+02
52              	3.10810028e+02
53              	3.10955252e+02
54              	3.11101393e+02
55              	3.11242932e+02
56              	3.11390065e+02
57              	3.11537460e+02
58              	3.11686842e+02
59              	3.11835607e+02
60              	3.11973123e+02
61              	3.12097893e+02
62              	3.12214532e+02
63              	3.12325976e+02
64              	3.12439781e+02
65              	3.12566809e+02
66              	3.12693463e+02
67              	3.12822047e+02
68              	3.12950345e+02
69              	3.13082492e+02
70              	3.13212534e+02
71              	3.13344243e+02
72              	3.13480301e+02
73              	3.13612444e+02
74              	3.13738042e+02
75              	3.13857956e+02
76              	3.13967653e+02
77              	3.14057360e+02
78              	3.14143658e+02
79              	3.14231227e+02
80              	3.14323127e+02
81              	3.14423581e+02
82              	3.14523276e+02
83              	3.14627071e+02
84              	3.14727837e+02
85              	3.14842364e+02
86              	3.14945990e+02
87              	3.15043578e+02
88              	3.15138702e+02
89              	3.15237784e+02
90              	3.15333263e+02
91              	3.15422106e+02
92              	3.15505938e+02
93              	3.15584083e+02
94              	3.15664720e+02
95              	3.15750961e+02
96              	3.15840065e+02
97              	3.15928476e+02
98              	3.16020448e+02
99              	3.16114474e+02
100             	3.16210208e+02
101             	3.16308721e+02
102             	3.16401811e+02
103             	3.16496152e+02
104             	3.16583516e+02
105             	3.16668892e+02
106             	3.16756609e+02
107             	3.16834967e+02
108             	3.16918764e+02
109             	3.16998250e+02
110             	3.17076662e+02
111             	3.17152677e+02
112             	3.17224901e+02
113             	3.17291708e+02
114             	3.17356621e+02
115             	3.17423230e+02
116             	3.17490659e+02
117             	3.17561474e+02
118             	3.17632411e+02
119             	3.17706260e+02
120             	3.17780701e+02
121             	3.17858286e+02
122             	3.17923606e+02
123             	3.17991596e+02
124             	3.18054389e+02
125             	3.18115398e+02
126             	3.18173839e+02
127             	3.18228743e+02
128             	3.18279644e+02
129             	3.18331858e+02
130             	3.18386401e+02
131             	3.18444750e+02
132             	3.18504470e+02
133             	3.18565002e+02
134             	3.18626430e+02
135             	3.18682390e+02
136             	3.18746191e+02
137             	3.18810757e+02
138             	3.18864314e+02
139             	3.18912590e+02
140             	3.18958750e+02
141             	3.19000326e+02
142             	3.19045596e+02
143             	3.19093518e+02
144             	3.19143912e+02
145             	3.19196713e+02
146             	3.19248262e+02
147             	3.19308318e+02
148             	3.19358186e+02
149             	3.19408155e+02
150             	3.19453723e+02
151             	3.19497043e+02
152             	3.19534782e+02
153             	3.19560729e+02
154             	3.19592824e+02
155             	3.19626909e+02
156             	3.19663366e+02
157             	3.19701509e+02
158             	3.19745015e+02
159             	3.19788447e+02
160             	3.19840348e+02
161             	3.19889343e+02
162             	3.19928989e+02
163             	3.19967850e+02
164             	3.20001237e+02
165             	3.20021150e+02
166             	3.20043461e+02
167             	3.20065729e+02
168             	3.20089227e+02
169             	3.20116040e+02
170             	3.20152478e+02
171             	3.20187962e+02
172             	3.20241314e+02
173             	3.20282728e+02
174             	3.20317722e+02
175             	3.20350806e+02
176             	3.20377879e+02
177             	3.20384217e+02
178             	3.20393917e+02
179             	3.20416123e+02
180             	3.20431873e+02
181             	3.20448061e+02
182             	3.20480029e+02
183             	3.20513865e+02
184             	3.20556441e+02
185             	3.20596714e+02
186             	3.20627247e+02
187             	3.20660695e+02
188             	3.20684229e+02
189             	3.20701053e+02
190             	3.20722403e+02
191             	3.20740579e+02
192             	3.20757667e+02
193             	3.20778689e+02
194             	3.20808120e+02
195             	3.20836885e+02
196             	3.20880577e+02
197             	3.20915480e+02
198             	3.20939173e+02
199             	3.20958105e+02
200             	3.20971510e+02
201             	3.20989056e+02
202             	3.21011995e+02
203             	3.21027903e+02
204             	3.21046220e+02
205             	3.21064954e+02
206             	3.21085190e+02
207             	3.21110749e+02
208             	3.21136903e+02
209             	3.21164878e+02
210             	3.21199050e+02
211             	3.21238673e+02
212             	3.21273321e+02
213             	3.21306165e+02
214             	3.21336833e+02
215             	3.21348214e+02
216             	3.21353016e+02
217             	3.21358912e+02
218             	3.21370467e+02
219             	3.21384939e+02
220             	3.21402631e+02
221             	3.21425368e+02
222             	3.21452061e+02
223             	3.21483484e+02
224             	3.21513365e+02
225             	3.21535579e+02
226             	3.21540989e+02
227             	3.21549591e+02
228             	3.21556453e+02
229             	3.21566535e+02
230             	3.21576995e+02
231             	3.21591973e+02
232             	3.21602468e+02
233             	3.21617298e+02
234             	3.21634786e+02
235             	3.21654419e+02
236             	3.21673892e+02
237             	3.21694370e+02
238             	3.21713703e+02
239             	3.21732607e+02
240             	3.21740268e+02
241             	3.21745861e+02
242             	3.21755264e+02
243             	3.21764750e+02
244             	3.21776319e+02
245             	3.21783253e+02
246             	3.21795111e+02
247             	3.21806842e+02
248             	3.21819531e+02
249             	3.21835655e+02
250             	3.21849337e+02
251             	3.21868038e+02
252             	3.21886563e+02
253             	3.21903082e+02
254             	3.21913042e+02
255             	3.21925357e+02
256             	3.21935034e+02
257             	3.21937701e+02
258             	3.21947981e+02
259             	3.21963961e+02
260             	3.21968893e+02
261             	3.21982244e+02
262             	3.21997031e+02
263             	3.22017328e+02
264             	3.22042843e+02
265             	3.22069263e+02
266             	3.22093279e+02
267             	3.22109964e+02
268             	3.22116205e+02
269             	3.22107392e+02
270             	3.22103771e+02
271             	3.22102331e+02
272             	3.22104245e+02
273             	3.22115230e+02
274             	3.22130720e+02
275             	3.22143127e+02
276             	3.22164111e+02
277             	3.22185428e+02
278             	3.22203030e+02
279             	3.22208373e+02
280             	3.22208970e+02
281             	3.22211445e+02
282             	3.22214906e+02
283             	3.22214338e+02
284             	3.22216672e+02
285             	3.22220722e+02
286             	3.22227814e+02
287             	3.22241835e+02
288             	3.22257836e+02
289             	3.22272319e+02
290             	3.22286741e+02
291             	3.22309347e+02
292             	3.22324864e+02
293             	3.22331677e+02
294             	3.22337163e+02
295             	3.22342958e+02
296             	3.22340842e+02
297             	3.22339446e+02
298             	3.22338599e+02
299             	3.22337203e+02
300             	3.22342207e+02
301             	3.22344060e+02
302             	3.22355444e+02
303             	3.22367148e+02
304             	3.22383788e+02
305             	3.22404154e+02
306             	3.22429174e+02
307             	3.22448823e+02
308             	3.22450457e+02
309             	3.22453903e+02
310             	3.22455545e+02
311             	3.22453496e+02
312             	3.22455574e+02
313             	3.22463447e+02
314             	3.22469682e+02
315             	3.22479792e+02
316             	3.22485651e+02
317             	3.22492023e+02
318             	3.22508320e+02
319             	3.22527352e+02
320             	3.22537055e+02
321             	3.22551222e+02
322             	3.22561477e+02
323             	3.22572987e+02
324             	3.22579793e+02
325             	3.22580290e+02
326             	3.22573475e+02
327             	3.22568059e+02
328             	3.22566337e+02
329             	3.22569164e+02
330             	3.22578590e+02
331             	3.22583007e+02
332             	3.22592876e+02
333             	3.22606496e+02
334             	3.22618954e+02
335             	3.22638923e+02
336             	3.22657596e+02
337             	3.22663922e+02
338             	3.22671542e+02
339             	3.22675702e+02
340             	3.22669066e+02
341             	3.22668748e+02
342             	3.22668631e+02
343             	3.22671434e+02
344             	3.22676492e+02
345             	3.22685479e+02
346             	3.22695335e+02
347             	3.22704922e+02
348             	3.22707951e+02
349             	3.22714082e+02
350             	3.22720598e+02
351             	3.22724952e+02
352             	3.22729560e+02
353             	3.22731938e+02
354             	3.22740142e+02
355             	3.22748895e+02
356             	3.22756516e+02
357             	3.22754729e+02
358             	3.22751595e+02
359             	3.22755339e+02
360             	3.22752894e+02
361             	3.22753808e+02
362             	3.22754065e+02
363             	3.22754891e+02
364             	3.22753801e+02
365             	3.22753328e+02
366             	3.22753987e+02
367             	3.22755948e+02
368             	3.22760434e+02
369             	3.22766298e+02
370             	3.22768235e+02
371             	3.22775583e+02
372             	3.22784890e+02
373             	3.22787745e+02
374             	3.22792555e+02
375             	3.22799644e+02
376             	3.22797630e+02
377             	3.22794046e+02
378             	3.22794187e+02
379             	3.22792790e+02
380             	3.22792746e+02
381             	3.22795524e+02
382             	3.22798665e+02
383             	3.22798132e+02
384             	3.22798202e+02
385             	3.22799345e+02
386             	3.22795332e+02
387             	3.22797801e+02
388             	3.22799935e+02
389             	3.22807683e+02
390             	3.22816082e+02
391             	3.22817985e+02
392             	3.22821963e+02
393             	3.22827861e+02
394             	3.22829204e+02
395             	3.22823211e+02
396             	3.22824759e+02
397             	3.22827810e+02
398             	3.22817180e+02
399             	3.22807676e+02
400             	3.22801636e+02
401             	3.22797200e+02
402             	3.22794812e+02
403             	3.22794124e+02
404             	3.22795648e+02
405             	3.22798265e+02
406             	3.22801484e+02
407             	3.22805434e+02
408             	3.22809953e+02
409             	3.22808227e+02
410             	3.22809550e+02
411             	3.22812581e+02
412             	3.22818451e+02
413             	3.22822923e+02
414             	3.22826491e+02
415             	3.22828166e+02
416             	3.22829718e+02
417             	3.22831585e+02
418             	3.22833739e+02
419             	3.22838317e+02
420             	3.22832950e+02
421             	3.22830197e+02
422             	3.22828602e+02
423             	3.22827805e+02
424             	3.22826753e+02
425             	3.22826123e+02
426             	3.22826481e+02
427             	3.22828099e+02
428             	3.22831055e+02
429             	3.22834609e+02
430             	3.22839778e+02
431             	3.22840271e+02
432             	3.22844254e+02
433             	3.22849227e+02
434             	3.22855126e+02
435             	3.22849295e+02
436             	3.22847156e+02
437             	3.22844237e+02
438             	3.22842504e+02
439             	3.22842012e+02
440             	3.22843158e+02
441             	3.22845514e+02
442             	3.22848486e+02
443             	3.22851776e+02
444             	3.22854998e+02
445             	3.22858231e+02
446             	3.22861974e+02
447             	3.22864955e+02
448             	3.22867125e+02
449             	3.22865586e+02
450             	3.22868129e+02
451             	3.22872682e+02
452             	3.22877787e+02
453             	3.22882518e+02
454             	3.22872982e+02
455             	3.22871285e+02
456             	3.22870765e+02
457             	3.22869298e+02
458             	3.22868305e+02
459             	3.22868425e+02
460             	3.22868881e+02
461             	3.22869048e+02
462             	3.22868778e+02
463             	3.22867720e+02
464             	3.22867746e+02
465             	3.22870679e+02
466             	3.22873258e+02
467             	3.22878109e+02
468             	3.22878475e+02
469             	3.22882608e+02
470             	3.22887733e+02
471             	3.22893093e+02
472             	3.22897527e+02
473             	3.22891103e+02
474             	3.22887557e+02
475             	3.22884319e+02
476             	3.22882171e+02
477             	3.22881228e+02
478             	3.22881630e+02
479             	3.22882951e+02
480             	3.22884579e+02
481             	3.22886708e+02
482             	3.22889390e+02
483             	3.22893443e+02
484             	3.22897653e+02
485             	3.22901451e+02
486             	3.22905370e+02
487             	3.22910055e+02
488             	3.22907890e+02
489             	3.22908607e+02
490             	3.22912007e+02
491             	3.22916133e+02
492             	3.22920989e+02
493             	3.22915091e+02
494             	3.22912935e+02
495             	3.22911863e+02
496             	3.22911117e+02
497             	3.22910354e+02
498             	3.22910039e+02
499             	3.22910396e+02
500             	3.22911650e+02
501             	3.22914129e+02
502             	3.22917726e+02
503             	3.22922328e+02
504             	3.22921461e+02
505             	3.22926505e+02
506             	3.22932918e+02
507             	3.22936760e+02
508             	3.22937952e+02
509             	3.22938785e+02
510             	3.22940304e+02
511             	3.22942199e+02
512             	3.22944317e+02
513             	3.22947322e+02
514             	3.22950591e+02
515             	3.22953454e+02
516             	3.22953076e+02
517             	3.22951473e+02
518             	3.22950872e+02
519             	3.22950940e+02
520             	3.22951494e+02
521             	3.22953027e+02
522             	3.22955271e+02
523             	3.22958156e+02
524             	3.22961864e+02
525             	3.22959370e+02
526             	3.22960436e+02
527             	3.22963633e+02
528             	3.22966813e+02
529             	3.22970283e+02
530             	3.22968803e+02
531             	3.22969828e+02
532             	3.22971805e+02
533             	3.22973573e+02
534             	3.22974925e+02
535             	3.22977119e+02
536             	3.22974410e+02
537             	3.22974715e+02
538             	3.22976265e+02
539             	3.22977914e+02
540             	3.22976764e+02
541             	3.22975304e+02
542             	3.22974324e+02
543             	3.22973911e+02
544             	3.22974592e+02
545             	3.22976589e+02
546             	3.22974403e+02
547             	3.22975715e+02
548             	3.22978262e+02
549             	3.22980961e+02
550             	3.22983682e+02
551             	3.22979951e+02
552             	3.22979240e+02
553             	3.22979876e+02
554             	3.22978866e+02
555             	3.22978528e+02
556             	3.22978603e+02
557             	3.22978548e+02
558             	3.22978948e+02
559             	3.22979735e+02
560             	3.22980543e+02
561             	3.22982041e+02
562             	3.22983301e+02
563             	3.22984447e+02
564             	3.22985711e+02
565             	3.22986848e+02
566             	3.22987714e+02
567             	3.22983742e+02
568             	3.22982847e+02
569             	3.22983307e+02
570             	3.22984429e+02
571             	3.22985270e+02
572             	3.22985658e+02
573             	3.22985602e+02
574             	3.22984970e+02
575             	3.22984228e+02
576             	3.22982895e+02
577             	3.22982573e+02
578             	3.22982616e+02
579             	3.22982475e+02
580             	3.22982482e+02
581             	3.22981589e+02
582             	3.22981118e+02
583             	3.22981813e+02
584             	3.22983219e+02
585             	3.22979245e+02
586             	3.22981144e+02
587             	3.22976987e+02
588             	3.22976671e+02
589             	3.22973447e+02
590             	3.22970328e+02
591             	3.22967919e+02
592             	3.22966442e+02
593             	3.22965738e+02
594             	3.22966556e+02
595             	3.22968705e+02
596             	3.22967457e+02
597             	3.22967910e+02
598             	3.22968559e+02
599             	3.22970020e+02
600             	3.22972194e+02
601             	3.22975008e+02
602             	3.22978449e+02
603             	3.22982255e+02
604             	3.22979501e+02
605             	3.22974677e+02
606             	3.22975107e+02
607             	3.22972504e+02
608             	3.22968369e+02
609             	3.22964660e+02
610             	3.22962222e+02
611             	3.22960339e+02
612             	3.22960221e+02
613             	3.22960500e+02
614             	3.22961300e+02
615             	3.22962904e+02
616             	3.22960384e+02
617             	3.22960891e+02
618             	3.22962318e+02
619             	3.22962536e+02
620             	3.22962548e+02
621             	3.22962314e+02
