# Region        : cellZone pcb
# Cells         : 596
# Volume        : 1.11976455e+00
# Time          	volAverage(T)
1               	3.00007866e+02
2               	3.00022646e+02
3               	3.00042823e+02
4               	3.00068117e+02
5               	3.00096971e+02
6               	3.00129944e+02
7               	3.00166373e+02
8               	3.00206442e+02
9               	3.00249902e+02
10              	3.00296737e+02
11              	3.00347315e+02
12              	3.00400856e+02
13              	3.00457441e+02
14              	3.00516248e+02
15              	3.00577664e+02
16              	3.00642016e+02
17              	3.00707575e+02
18              	3.00776293e+02
19              	3.00845621e+02
20              	3.00915781e+02
21              	3.00988025e+02
22              	3.01062301e+02
23              	3.01137409e+02
24              	3.01212393e+02
25              	3.01289540e+02
26              	3.01367875e+02
27              	3.01447555e+02
28              	3.01528263e+02
29              	3.01610906e+02
30              	3.01693853e+02
31              	3.01780083e+02
32              	3.01868129e+02
33              	3.01956350e+02
34              	3.02044682e+02
35              	3.02132777e+02
36              	3.02220878e+02
37              	3.02307816e+02
38              	3.02395326e+02
39              	3.02483219e+02
40              	3.02571487e+02
41              	3.02659890e+02
42              	3.02749025e+02
43              	3.02837697e+02
44              	3.02927268e+02
45              	3.03017237e+02
46              	3.03106607e+02
47              	3.03195107e+02
48              	3.03283695e+02
49              	3.03372579e+02
50              	3.03462493e+02
51              	3.03551755e+02
52              	3.03639642e+02
53              	3.03727263e+02
54              	3.03813519e+02
55              	3.03898146e+02
56              	3.03982699e+02
57              	3.04066073e+02
58              	3.04152165e+02
59              	3.04237987e+02
60              	3.04324929e+02
61              	3.04410928e+02
62              	3.04495812e+02
63              	3.04580921e+02
64              	3.04666169e+02
65              	3.04749344e+02
66              	3.04832990e+02
67              	3.04915404e+02
68              	3.04994856e+02
69              	3.05074168e+02
70              	3.05151610e+02
71              	3.05230210e+02
72              	3.05310144e+02
73              	3.05389757e+02
74              	3.05468026e+02
75              	3.05547266e+02
76              	3.05623579e+02
77              	3.05698189e+02
78              	3.05773756e+02
79              	3.05849212e+02
80              	3.05922433e+02
81              	3.05994951e+02
82              	3.06067367e+02
83              	3.06138411e+02
84              	3.06208070e+02
85              	3.06274910e+02
86              	3.06343445e+02
87              	3.06412248e+02
88              	3.06480159e+02
89              	3.06549038e+02
90              	3.06616599e+02
91              	3.06684875e+02
92              	3.06753079e+02
93              	3.06824205e+02
94              	3.06893167e+02
95              	3.06960317e+02
96              	3.07027898e+02
97              	3.07096289e+02
98              	3.07164523e+02
99              	3.07231467e+02
100             	3.07297055e+02
101             	3.07360785e+02
102             	3.07424444e+02
103             	3.07487441e+02
104             	3.07551856e+02
105             	3.07613770e+02
106             	3.07673468e+02
107             	3.07730604e+02
108             	3.07786669e+02
109             	3.07843199e+02
110             	3.07899235e+02
111             	3.07955536e+02
112             	3.08011804e+02
113             	3.08067243e+02
114             	3.08123101e+02
115             	3.08179353e+02
116             	3.08235118e+02
117             	3.08290020e+02
118             	3.08344771e+02
119             	3.08399203e+02
120             	3.08452739e+02
121             	3.08504332e+02
122             	3.08555351e+02
123             	3.08605866e+02
124             	3.08655011e+02
125             	3.08703417e+02
126             	3.08751323e+02
127             	3.08798828e+02
128             	3.08846150e+02
129             	3.08893385e+02
130             	3.08940501e+02
131             	3.08987462e+02
132             	3.09034714e+02
133             	3.09082197e+02
134             	3.09130279e+02
135             	3.09178558e+02
136             	3.09227004e+02
137             	3.09274963e+02
138             	3.09322456e+02
139             	3.09369828e+02
140             	3.09416337e+02
141             	3.09462613e+02
142             	3.09508267e+02
143             	3.09552920e+02
144             	3.09596503e+02
145             	3.09639138e+02
146             	3.09680923e+02
147             	3.09721969e+02
148             	3.09762385e+02
149             	3.09802341e+02
150             	3.09841855e+02
151             	3.09881101e+02
152             	3.09919756e+02
153             	3.09958108e+02
154             	3.09996231e+02
155             	3.10034042e+02
156             	3.10071290e+02
157             	3.10108418e+02
158             	3.10145284e+02
159             	3.10182016e+02
160             	3.10218647e+02
161             	3.10255225e+02
162             	3.10291624e+02
163             	3.10327534e+02
164             	3.10362757e+02
165             	3.10397432e+02
166             	3.10431556e+02
167             	3.10465072e+02
168             	3.10498055e+02
169             	3.10530572e+02
170             	3.10562594e+02
171             	3.10594163e+02
172             	3.10625354e+02
173             	3.10656197e+02
174             	3.10686579e+02
175             	3.10716510e+02
176             	3.10746014e+02
177             	3.10775093e+02
178             	3.10803755e+02
179             	3.10832075e+02
180             	3.10860040e+02
181             	3.10887687e+02
182             	3.10915102e+02
183             	3.10942333e+02
184             	3.10969361e+02
185             	3.10996232e+02
186             	3.11022857e+02
187             	3.11049288e+02
188             	3.11075506e+02
189             	3.11101469e+02
190             	3.11127136e+02
191             	3.11152484e+02
192             	3.11177553e+02
193             	3.11202303e+02
194             	3.11226719e+02
195             	3.11250819e+02
196             	3.11274619e+02
197             	3.11298125e+02
198             	3.11321336e+02
199             	3.11344270e+02
200             	3.11366928e+02
201             	3.11389297e+02
202             	3.11411366e+02
203             	3.11433130e+02
204             	3.11454608e+02
205             	3.11475820e+02
206             	3.11496790e+02
207             	3.11517564e+02
208             	3.11538177e+02
209             	3.11558584e+02
210             	3.11578801e+02
211             	3.11598798e+02
212             	3.11618562e+02
213             	3.11638085e+02
214             	3.11657346e+02
215             	3.11676355e+02
216             	3.11695134e+02
217             	3.11713701e+02
218             	3.11732013e+02
219             	3.11750071e+02
220             	3.11767885e+02
221             	3.11785454e+02
222             	3.11802762e+02
223             	3.11819814e+02
224             	3.11836614e+02
225             	3.11853165e+02
226             	3.11869466e+02
227             	3.11885531e+02
228             	3.11901349e+02
229             	3.11916962e+02
230             	3.11932345e+02
231             	3.11947526e+02
232             	3.11962509e+02
233             	3.11977307e+02
234             	3.11991941e+02
235             	3.12006407e+02
236             	3.12020701e+02
237             	3.12034833e+02
238             	3.12048806e+02
239             	3.12062612e+02
240             	3.12076246e+02
241             	3.12089708e+02
242             	3.12103002e+02
243             	3.12116141e+02
244             	3.12129133e+02
245             	3.12141966e+02
246             	3.12154640e+02
247             	3.12167146e+02
248             	3.12179486e+02
249             	3.12191664e+02
250             	3.12203672e+02
251             	3.12215513e+02
252             	3.12227192e+02
253             	3.12238714e+02
254             	3.12250076e+02
255             	3.12261285e+02
256             	3.12272347e+02
257             	3.12283258e+02
258             	3.12294022e+02
259             	3.12304641e+02
260             	3.12315121e+02
261             	3.12325477e+02
262             	3.12335697e+02
263             	3.12345783e+02
264             	3.12355746e+02
265             	3.12365595e+02
266             	3.12375326e+02
267             	3.12384933e+02
268             	3.12394420e+02
269             	3.12403776e+02
270             	3.12413030e+02
271             	3.12422170e+02
272             	3.12431191e+02
273             	3.12440086e+02
274             	3.12448877e+02
275             	3.12457550e+02
276             	3.12466108e+02
277             	3.12474552e+02
278             	3.12482878e+02
279             	3.12491092e+02
280             	3.12499192e+02
281             	3.12507174e+02
282             	3.12515043e+02
283             	3.12522810e+02
284             	3.12530462e+02
285             	3.12538009e+02
286             	3.12545464e+02
287             	3.12552821e+02
288             	3.12560086e+02
289             	3.12567267e+02
290             	3.12574364e+02
291             	3.12581372e+02
292             	3.12588291e+02
293             	3.12595116e+02
294             	3.12601848e+02
295             	3.12608496e+02
296             	3.12615061e+02
297             	3.12621537e+02
298             	3.12627926e+02
299             	3.12634227e+02
300             	3.12640446e+02
301             	3.12646580e+02
302             	3.12652632e+02
303             	3.12658607e+02
304             	3.12664504e+02
305             	3.12670319e+02
306             	3.12676055e+02
307             	3.12681717e+02
308             	3.12687307e+02
309             	3.12692831e+02
310             	3.12698284e+02
311             	3.12703667e+02
312             	3.12708986e+02
313             	3.12714244e+02
314             	3.12719440e+02
315             	3.12724578e+02
316             	3.12729658e+02
317             	3.12734680e+02
318             	3.12739646e+02
319             	3.12744557e+02
320             	3.12749405e+02
321             	3.12754185e+02
322             	3.12758909e+02
323             	3.12763581e+02
324             	3.12768195e+02
325             	3.12772750e+02
326             	3.12777242e+02
327             	3.12781678e+02
328             	3.12786060e+02
329             	3.12790389e+02
330             	3.12794658e+02
331             	3.12798875e+02
332             	3.12803042e+02
333             	3.12807160e+02
334             	3.12811233e+02
335             	3.12815257e+02
336             	3.12819236e+02
337             	3.12823172e+02
338             	3.12827065e+02
339             	3.12830915e+02
340             	3.12834726e+02
341             	3.12838495e+02
342             	3.12842225e+02
343             	3.12845918e+02
344             	3.12849572e+02
345             	3.12853189e+02
346             	3.12856769e+02
347             	3.12860308e+02
348             	3.12863812e+02
349             	3.12867280e+02
350             	3.12870711e+02
351             	3.12874105e+02
352             	3.12877463e+02
353             	3.12880781e+02
354             	3.12884068e+02
355             	3.12887322e+02
356             	3.12890542e+02
357             	3.12893727e+02
358             	3.12896877e+02
359             	3.12899989e+02
360             	3.12903067e+02
361             	3.12906112e+02
362             	3.12909118e+02
363             	3.12912091e+02
364             	3.12915032e+02
365             	3.12917943e+02
366             	3.12920828e+02
367             	3.12923681e+02
368             	3.12926505e+02
369             	3.12929302e+02
370             	3.12932076e+02
371             	3.12934824e+02
372             	3.12937550e+02
373             	3.12940252e+02
374             	3.12942931e+02
375             	3.12945586e+02
376             	3.12948214e+02
377             	3.12950819e+02
378             	3.12953402e+02
379             	3.12955960e+02
380             	3.12958494e+02
381             	3.12961005e+02
382             	3.12963492e+02
383             	3.12965955e+02
384             	3.12968394e+02
385             	3.12970808e+02
386             	3.12973196e+02
387             	3.12975561e+02
388             	3.12977904e+02
389             	3.12980222e+02
390             	3.12982518e+02
391             	3.12984792e+02
392             	3.12987042e+02
393             	3.12989275e+02
394             	3.12991490e+02
395             	3.12993683e+02
396             	3.12995859e+02
397             	3.12998018e+02
398             	3.13000160e+02
399             	3.13002284e+02
400             	3.13004395e+02
401             	3.13006484e+02
402             	3.13008557e+02
403             	3.13010614e+02
404             	3.13012653e+02
405             	3.13014675e+02
406             	3.13016681e+02
407             	3.13018672e+02
408             	3.13020650e+02
409             	3.13022614e+02
410             	3.13024563e+02
411             	3.13026496e+02
412             	3.13028417e+02
413             	3.13030321e+02
414             	3.13032212e+02
415             	3.13034085e+02
416             	3.13035941e+02
417             	3.13037782e+02
418             	3.13039608e+02
419             	3.13041416e+02
420             	3.13043209e+02
421             	3.13044986e+02
422             	3.13046748e+02
423             	3.13048497e+02
424             	3.13050232e+02
425             	3.13051952e+02
426             	3.13053658e+02
427             	3.13055350e+02
428             	3.13057026e+02
429             	3.13058686e+02
430             	3.13060332e+02
431             	3.13061963e+02
432             	3.13063580e+02
433             	3.13065185e+02
434             	3.13066776e+02
435             	3.13068355e+02
436             	3.13069923e+02
437             	3.13071478e+02
438             	3.13073024e+02
439             	3.13074558e+02
440             	3.13076080e+02
441             	3.13077591e+02
442             	3.13079092e+02
443             	3.13080581e+02
444             	3.13082059e+02
445             	3.13083525e+02
446             	3.13084980e+02
447             	3.13086423e+02
448             	3.13087859e+02
449             	3.13089284e+02
450             	3.13090701e+02
451             	3.13092110e+02
452             	3.13093509e+02
453             	3.13094899e+02
454             	3.13096281e+02
455             	3.13097655e+02
456             	3.13099019e+02
457             	3.13100375e+02
458             	3.13101721e+02
459             	3.13103058e+02
460             	3.13104386e+02
461             	3.13105702e+02
462             	3.13107008e+02
463             	3.13108304e+02
464             	3.13109589e+02
465             	3.13110864e+02
466             	3.13112130e+02
467             	3.13113385e+02
468             	3.13114631e+02
469             	3.13115867e+02
470             	3.13117093e+02
471             	3.13118310e+02
472             	3.13119518e+02
473             	3.13120716e+02
474             	3.13121905e+02
475             	3.13123086e+02
476             	3.13124256e+02
477             	3.13125418e+02
478             	3.13126572e+02
479             	3.13127716e+02
480             	3.13128852e+02
481             	3.13129980e+02
482             	3.13131098e+02
483             	3.13132208e+02
484             	3.13133312e+02
485             	3.13134406e+02
486             	3.13135492e+02
487             	3.13136572e+02
488             	3.13137644e+02
489             	3.13138708e+02
490             	3.13139766e+02
491             	3.13140815e+02
492             	3.13141858e+02
493             	3.13142894e+02
494             	3.13143923e+02
495             	3.13144945e+02
496             	3.13145961e+02
497             	3.13146969e+02
498             	3.13147970e+02
499             	3.13148966e+02
500             	3.13149954e+02
501             	3.13150936e+02
502             	3.13151913e+02
503             	3.13152881e+02
504             	3.13153844e+02
505             	3.13154800e+02
506             	3.13155749e+02
507             	3.13156691e+02
508             	3.13157628e+02
509             	3.13158557e+02
510             	3.13159480e+02
511             	3.13160396e+02
512             	3.13161305e+02
513             	3.13162208e+02
514             	3.13163106e+02
515             	3.13163996e+02
516             	3.13164881e+02
517             	3.13165761e+02
518             	3.13166633e+02
519             	3.13167500e+02
520             	3.13168362e+02
521             	3.13169217e+02
522             	3.13170067e+02
523             	3.13170912e+02
524             	3.13171751e+02
525             	3.13172584e+02
526             	3.13173412e+02
527             	3.13174234e+02
528             	3.13175051e+02
529             	3.13175863e+02
530             	3.13176668e+02
531             	3.13177468e+02
532             	3.13178263e+02
533             	3.13179052e+02
534             	3.13179836e+02
535             	3.13180615e+02
536             	3.13181387e+02
537             	3.13182156e+02
538             	3.13182919e+02
539             	3.13183676e+02
540             	3.13184429e+02
541             	3.13185177e+02
542             	3.13185920e+02
543             	3.13186658e+02
544             	3.13187391e+02
545             	3.13188119e+02
546             	3.13188842e+02
547             	3.13189560e+02
548             	3.13190272e+02
549             	3.13190979e+02
550             	3.13191682e+02
551             	3.13192378e+02
552             	3.13193069e+02
553             	3.13193756e+02
554             	3.13194437e+02
555             	3.13195114e+02
556             	3.13195787e+02
557             	3.13196455e+02
558             	3.13197118e+02
559             	3.13197779e+02
560             	3.13198434e+02
561             	3.13199085e+02
562             	3.13199734e+02
563             	3.13200377e+02
564             	3.13201016e+02
565             	3.13201651e+02
566             	3.13202281e+02
567             	3.13202907e+02
568             	3.13203529e+02
569             	3.13204145e+02
570             	3.13204757e+02
571             	3.13205365e+02
572             	3.13205968e+02
573             	3.13206567e+02
574             	3.13207163e+02
575             	3.13207754e+02
576             	3.13208341e+02
577             	3.13208926e+02
578             	3.13209506e+02
579             	3.13210082e+02
580             	3.13210655e+02
581             	3.13211224e+02
582             	3.13211789e+02
583             	3.13212351e+02
584             	3.13212908e+02
585             	3.13213462e+02
586             	3.13214014e+02
587             	3.13214561e+02
588             	3.13215105e+02
589             	3.13215646e+02
590             	3.13216182e+02
591             	3.13216715e+02
592             	3.13217246e+02
593             	3.13217772e+02
594             	3.13218294e+02
595             	3.13218814e+02
596             	3.13219329e+02
597             	3.13219841e+02
598             	3.13220351e+02
599             	3.13220857e+02
600             	3.13221360e+02
601             	3.13221861e+02
602             	3.13222358e+02
603             	3.13222852e+02
604             	3.13223345e+02
605             	3.13223833e+02
606             	3.13224318e+02
607             	3.13224801e+02
608             	3.13225279e+02
609             	3.13225754e+02
610             	3.13226227e+02
611             	3.13226695e+02
612             	3.13227160e+02
613             	3.13227623e+02
614             	3.13228082e+02
615             	3.13228538e+02
616             	3.13228993e+02
617             	3.13229444e+02
618             	3.13229892e+02
619             	3.13230338e+02
620             	3.13230782e+02
621             	3.13231222e+02
