# Region        : cellZone component_3
# Cells         : 115
# Volume        : 2.15720823e-01
# Time          	volAverage(T)
1               	3.02561519e+02
2               	3.05024821e+02
3               	3.06716233e+02
4               	3.07900402e+02
5               	3.09153947e+02
6               	3.10628286e+02
7               	3.12065133e+02
8               	3.13258201e+02
9               	3.14295882e+02
10              	3.15335469e+02
11              	3.16375469e+02
12              	3.17346290e+02
13              	3.18230940e+02
14              	3.19095829e+02
15              	3.19915235e+02
16              	3.20722837e+02
17              	3.21512708e+02
18              	3.22334817e+02
19              	3.23131285e+02
20              	3.23893121e+02
21              	3.24596118e+02
22              	3.25204355e+02
23              	3.25748906e+02
24              	3.26309493e+02
25              	3.26857966e+02
26              	3.27367381e+02
27              	3.27793192e+02
28              	3.28146302e+02
29              	3.28454109e+02
30              	3.28719298e+02
31              	3.28938259e+02
32              	3.29103270e+02
33              	3.29225081e+02
34              	3.29343234e+02
35              	3.29488876e+02
36              	3.29654534e+02
37              	3.29829781e+02
38              	3.30032823e+02
39              	3.30259002e+02
40              	3.30445132e+02
41              	3.30574960e+02
42              	3.30681784e+02
43              	3.30745752e+02
44              	3.30762727e+02
45              	3.30762212e+02
46              	3.30740304e+02
47              	3.30731983e+02
48              	3.30763736e+02
49              	3.30853197e+02
50              	3.30962950e+02
51              	3.31086779e+02
52              	3.31222508e+02
53              	3.31412805e+02
54              	3.31592989e+02
55              	3.31716632e+02
56              	3.31760152e+02
57              	3.31786241e+02
58              	3.31832412e+02
59              	3.31907027e+02
60              	3.31953723e+02
61              	3.31993829e+02
62              	3.32059281e+02
63              	3.32201754e+02
64              	3.32380020e+02
65              	3.32559795e+02
66              	3.32741345e+02
67              	3.32957238e+02
68              	3.33139137e+02
69              	3.33251918e+02
70              	3.33287858e+02
71              	3.33309108e+02
72              	3.33352481e+02
73              	3.33422248e+02
74              	3.33475060e+02
75              	3.33481875e+02
76              	3.33475702e+02
77              	3.33527350e+02
78              	3.33605710e+02
79              	3.33677172e+02
80              	3.33716482e+02
81              	3.33763586e+02
82              	3.33849636e+02
83              	3.33952964e+02
84              	3.34024347e+02
85              	3.34063631e+02
86              	3.34111832e+02
87              	3.34194880e+02
88              	3.34256219e+02
89              	3.34276369e+02
90              	3.34275181e+02
91              	3.34302701e+02
92              	3.34355419e+02
93              	3.34417322e+02
94              	3.34459469e+02
95              	3.34503987e+02
96              	3.34592944e+02
97              	3.34714321e+02
98              	3.34796857e+02
99              	3.34856605e+02
100             	3.34913032e+02
101             	3.34995003e+02
102             	3.35073258e+02
103             	3.35101772e+02
104             	3.35093337e+02
105             	3.35101368e+02
106             	3.35140008e+02
107             	3.35170209e+02
108             	3.35177623e+02
109             	3.35179528e+02
110             	3.35222349e+02
111             	3.35304927e+02
112             	3.35376797e+02
113             	3.35428084e+02
114             	3.35484975e+02
115             	3.35568131e+02
116             	3.35639005e+02
117             	3.35678549e+02
118             	3.35674607e+02
119             	3.35665837e+02
120             	3.35681626e+02
121             	3.35702370e+02
122             	3.35685742e+02
123             	3.35648666e+02
124             	3.35647393e+02
125             	3.35688649e+02
126             	3.35743745e+02
127             	3.35766633e+02
128             	3.35799428e+02
129             	3.35863987e+02
130             	3.35956696e+02
131             	3.36031619e+02
132             	3.36063764e+02
133             	3.36081952e+02
134             	3.36125024e+02
135             	3.36184316e+02
136             	3.36220300e+02
137             	3.36225363e+02
138             	3.36236588e+02
139             	3.36276451e+02
140             	3.36321802e+02
141             	3.36334270e+02
142             	3.36318669e+02
143             	3.36315689e+02
144             	3.36335867e+02
145             	3.36352157e+02
146             	3.36336160e+02
147             	3.36302679e+02
148             	3.36294125e+02
149             	3.36316103e+02
150             	3.36332979e+02
151             	3.36320347e+02
152             	3.36302818e+02
153             	3.36322436e+02
154             	3.36372865e+02
155             	3.36416245e+02
156             	3.36441344e+02
157             	3.36471988e+02
158             	3.36531834e+02
159             	3.36603487e+02
160             	3.36651057e+02
161             	3.36672327e+02
162             	3.36694957e+02
163             	3.36733506e+02
164             	3.36762866e+02
165             	3.36761484e+02
166             	3.36742670e+02
167             	3.36737221e+02
168             	3.36753813e+02
169             	3.36764824e+02
170             	3.36754900e+02
171             	3.36743861e+02
172             	3.36756405e+02
173             	3.36789067e+02
174             	3.36814160e+02
175             	3.36821780e+02
176             	3.36832552e+02
177             	3.36865958e+02
178             	3.36912026e+02
179             	3.36947316e+02
180             	3.36966801e+02
181             	3.36986262e+02
182             	3.37019535e+02
183             	3.37057065e+02
184             	3.37078738e+02
185             	3.37085132e+02
186             	3.37092936e+02
187             	3.37108999e+02
188             	3.37121138e+02
189             	3.37119600e+02
190             	3.37111337e+02
191             	3.37111370e+02
192             	3.37121032e+02
193             	3.37127710e+02
194             	3.37124888e+02
195             	3.37122708e+02
196             	3.37132141e+02
197             	3.37150351e+02
198             	3.37167337e+02
199             	3.37179367e+02
200             	3.37191528e+02
201             	3.37211635e+02
202             	3.37238299e+02
203             	3.37262694e+02
204             	3.37281287e+02
205             	3.37300148e+02
206             	3.37322582e+02
207             	3.37342504e+02
208             	3.37354441e+02
209             	3.37359602e+02
210             	3.37366109e+02
211             	3.37376407e+02
212             	3.37385522e+02
213             	3.37389741e+02
214             	3.37392425e+02
215             	3.37400173e+02
216             	3.37412894e+02
217             	3.37424244e+02
218             	3.37432929e+02
219             	3.37440742e+02
220             	3.37454040e+02
221             	3.37470359e+02
222             	3.37484314e+02
223             	3.37495169e+02
224             	3.37506100e+02
225             	3.37521329e+02
226             	3.37536239e+02
227             	3.37546128e+02
228             	3.37550655e+02
229             	3.37554262e+02
230             	3.37558944e+02
231             	3.37562069e+02
232             	3.37561027e+02
233             	3.37558269e+02
234             	3.37557085e+02
235             	3.37558561e+02
236             	3.37560886e+02
237             	3.37563469e+02
238             	3.37568342e+02
239             	3.37576662e+02
240             	3.37587821e+02
241             	3.37599173e+02
242             	3.37609824e+02
243             	3.37621159e+02
244             	3.37631961e+02
245             	3.37643240e+02
246             	3.37654092e+02
247             	3.37662860e+02
248             	3.37670224e+02
249             	3.37676273e+02
250             	3.37679597e+02
251             	3.37678984e+02
252             	3.37676101e+02
253             	3.37672487e+02
254             	3.37669887e+02
255             	3.37668784e+02
256             	3.37667715e+02
257             	3.37667537e+02
258             	3.37669776e+02
259             	3.37674512e+02
260             	3.37680427e+02
261             	3.37686772e+02
262             	3.37693143e+02
263             	3.37700981e+02
264             	3.37710739e+02
265             	3.37721129e+02
266             	3.37731037e+02
267             	3.37738567e+02
268             	3.37746027e+02
269             	3.37753971e+02
270             	3.37760384e+02
271             	3.37764830e+02
272             	3.37768048e+02
273             	3.37769913e+02
274             	3.37770815e+02
275             	3.37770231e+02
276             	3.37768327e+02
277             	3.37765973e+02
278             	3.37763757e+02
279             	3.37761779e+02
280             	3.37759720e+02
281             	3.37758232e+02
282             	3.37758397e+02
283             	3.37760245e+02
284             	3.37762581e+02
285             	3.37764992e+02
286             	3.37767629e+02
287             	3.37771479e+02
288             	3.37776001e+02
289             	3.37779810e+02
290             	3.37782839e+02
291             	3.37786052e+02
292             	3.37789751e+02
293             	3.37793457e+02
294             	3.37796828e+02
295             	3.37799252e+02
296             	3.37801728e+02
297             	3.37804280e+02
298             	3.37805940e+02
299             	3.37806313e+02
300             	3.37806041e+02
301             	3.37805848e+02
302             	3.37805525e+02
303             	3.37804673e+02
304             	3.37803105e+02
305             	3.37801771e+02
306             	3.37801116e+02
307             	3.37800630e+02
308             	3.37799946e+02
309             	3.37799636e+02
310             	3.37800229e+02
311             	3.37801711e+02
312             	3.37803447e+02
313             	3.37804652e+02
314             	3.37805086e+02
315             	3.37805834e+02
316             	3.37807285e+02
317             	3.37808881e+02
318             	3.37809903e+02
319             	3.37810413e+02
320             	3.37810472e+02
321             	3.37810480e+02
322             	3.37810605e+02
323             	3.37810727e+02
324             	3.37810801e+02
325             	3.37810739e+02
326             	3.37810602e+02
327             	3.37810637e+02
328             	3.37810852e+02
329             	3.37811106e+02
330             	3.37811706e+02
331             	3.37812642e+02
332             	3.37814094e+02
333             	3.37815439e+02
334             	3.37816709e+02
335             	3.37818778e+02
336             	3.37821665e+02
337             	3.37824574e+02
338             	3.37826802e+02
339             	3.37828073e+02
340             	3.37828679e+02
341             	3.37828911e+02
342             	3.37828888e+02
343             	3.37828362e+02
344             	3.37827427e+02
345             	3.37826515e+02
346             	3.37825795e+02
347             	3.37825301e+02
348             	3.37825107e+02
349             	3.37825149e+02
350             	3.37825600e+02
351             	3.37825692e+02
352             	3.37825758e+02
353             	3.37826950e+02
354             	3.37828965e+02
355             	3.37831050e+02
356             	3.37832632e+02
357             	3.37834028e+02
358             	3.37835201e+02
359             	3.37835961e+02
360             	3.37836268e+02
361             	3.37836192e+02
362             	3.37835637e+02
363             	3.37834557e+02
364             	3.37833206e+02
365             	3.37831916e+02
366             	3.37830846e+02
367             	3.37830132e+02
368             	3.37829829e+02
369             	3.37829965e+02
370             	3.37830581e+02
371             	3.37831727e+02
372             	3.37832974e+02
373             	3.37833806e+02
374             	3.37835048e+02
375             	3.37837257e+02
376             	3.37839736e+02
377             	3.37841648e+02
378             	3.37842649e+02
379             	3.37843116e+02
380             	3.37843325e+02
381             	3.37843147e+02
382             	3.37842574e+02
383             	3.37841761e+02
384             	3.37840965e+02
385             	3.37840293e+02
386             	3.37839894e+02
387             	3.37839805e+02
388             	3.37840057e+02
389             	3.37840180e+02
390             	3.37840761e+02
391             	3.37841656e+02
392             	3.37842816e+02
393             	3.37844283e+02
394             	3.37845748e+02
395             	3.37847195e+02
396             	3.37848608e+02
397             	3.37849766e+02
398             	3.37850369e+02
399             	3.37850378e+02
400             	3.37849886e+02
401             	3.37848962e+02
402             	3.37847586e+02
403             	3.37846029e+02
404             	3.37844078e+02
405             	3.37842072e+02
406             	3.37840531e+02
407             	3.37839534e+02
408             	3.37839002e+02
409             	3.37838841e+02
410             	3.37838901e+02
411             	3.37839375e+02
412             	3.37840034e+02
413             	3.37840530e+02
414             	3.37841192e+02
415             	3.37842259e+02
416             	3.37843259e+02
417             	3.37843792e+02
418             	3.37843822e+02
419             	3.37843517e+02
420             	3.37843065e+02
421             	3.37842552e+02
422             	3.37841720e+02
423             	3.37840855e+02
424             	3.37840315e+02
425             	3.37840171e+02
426             	3.37840390e+02
427             	3.37840781e+02
428             	3.37841448e+02
429             	3.37842244e+02
430             	3.37843244e+02
431             	3.37844147e+02
432             	3.37844966e+02
433             	3.37845871e+02
434             	3.37846756e+02
435             	3.37847371e+02
436             	3.37847548e+02
437             	3.37847440e+02
438             	3.37847039e+02
439             	3.37846319e+02
440             	3.37845268e+02
441             	3.37843963e+02
442             	3.37842703e+02
443             	3.37841645e+02
444             	3.37840869e+02
445             	3.37840256e+02
446             	3.37839910e+02
447             	3.37839905e+02
448             	3.37840034e+02
449             	3.37840518e+02
450             	3.37841303e+02
451             	3.37842231e+02
452             	3.37842870e+02
453             	3.37843532e+02
454             	3.37844298e+02
455             	3.37844957e+02
456             	3.37845279e+02
457             	3.37845123e+02
458             	3.37844658e+02
459             	3.37843878e+02
460             	3.37842887e+02
461             	3.37841807e+02
462             	3.37840904e+02
463             	3.37840194e+02
464             	3.37839610e+02
465             	3.37839240e+02
466             	3.37839180e+02
467             	3.37839529e+02
468             	3.37840213e+02
469             	3.37841090e+02
470             	3.37842251e+02
471             	3.37843830e+02
472             	3.37845552e+02
473             	3.37847063e+02
474             	3.37848338e+02
475             	3.37849451e+02
476             	3.37850246e+02
477             	3.37850622e+02
478             	3.37850559e+02
479             	3.37850032e+02
480             	3.37849193e+02
481             	3.37848128e+02
482             	3.37846934e+02
483             	3.37845633e+02
484             	3.37844278e+02
485             	3.37842954e+02
486             	3.37841777e+02
487             	3.37840879e+02
488             	3.37840303e+02
489             	3.37839982e+02
490             	3.37840026e+02
491             	3.37840381e+02
492             	3.37840965e+02
493             	3.37841716e+02
494             	3.37842609e+02
495             	3.37843575e+02
496             	3.37844615e+02
497             	3.37845760e+02
498             	3.37846869e+02
499             	3.37847983e+02
500             	3.37849056e+02
501             	3.37849968e+02
502             	3.37850567e+02
503             	3.37850929e+02
504             	3.37851221e+02
505             	3.37851394e+02
506             	3.37851330e+02
507             	3.37851122e+02
508             	3.37850889e+02
509             	3.37850613e+02
510             	3.37850261e+02
511             	3.37849828e+02
512             	3.37849388e+02
513             	3.37849004e+02
514             	3.37848750e+02
515             	3.37848563e+02
516             	3.37848453e+02
517             	3.37848503e+02
518             	3.37848936e+02
519             	3.37849679e+02
520             	3.37850551e+02
521             	3.37851416e+02
522             	3.37852323e+02
523             	3.37853207e+02
524             	3.37853922e+02
525             	3.37854458e+02
526             	3.37854926e+02
527             	3.37855402e+02
528             	3.37855896e+02
529             	3.37856324e+02
530             	3.37856639e+02
531             	3.37856875e+02
532             	3.37856977e+02
533             	3.37856888e+02
534             	3.37856543e+02
535             	3.37856002e+02
536             	3.37855354e+02
537             	3.37854702e+02
538             	3.37854024e+02
539             	3.37853337e+02
540             	3.37852779e+02
541             	3.37852489e+02
542             	3.37852479e+02
543             	3.37852674e+02
544             	3.37853123e+02
545             	3.37853728e+02
546             	3.37854128e+02
547             	3.37854670e+02
548             	3.37855351e+02
549             	3.37855966e+02
550             	3.37856407e+02
551             	3.37856565e+02
552             	3.37856465e+02
553             	3.37856157e+02
554             	3.37855691e+02
555             	3.37855108e+02
556             	3.37854432e+02
557             	3.37853624e+02
558             	3.37852875e+02
559             	3.37852146e+02
560             	3.37851530e+02
561             	3.37850955e+02
562             	3.37850645e+02
563             	3.37850575e+02
564             	3.37850722e+02
565             	3.37851075e+02
566             	3.37851565e+02
567             	3.37852253e+02
568             	3.37852991e+02
569             	3.37853802e+02
570             	3.37854645e+02
571             	3.37855386e+02
572             	3.37855990e+02
573             	3.37856477e+02
574             	3.37856818e+02
575             	3.37856951e+02
576             	3.37856811e+02
577             	3.37856525e+02
578             	3.37856122e+02
579             	3.37855557e+02
580             	3.37854947e+02
581             	3.37854430e+02
582             	3.37854154e+02
583             	3.37854144e+02
584             	3.37854415e+02
585             	3.37854909e+02
586             	3.37855524e+02
587             	3.37856058e+02
588             	3.37856718e+02
589             	3.37857520e+02
590             	3.37858171e+02
591             	3.37858567e+02
592             	3.37858725e+02
593             	3.37858741e+02
594             	3.37858612e+02
595             	3.37858395e+02
596             	3.37858099e+02
597             	3.37857728e+02
598             	3.37857204e+02
599             	3.37856513e+02
600             	3.37855798e+02
601             	3.37855055e+02
602             	3.37854275e+02
603             	3.37853501e+02
604             	3.37852842e+02
605             	3.37852388e+02
606             	3.37852133e+02
607             	3.37852155e+02
608             	3.37852305e+02
609             	3.37852641e+02
610             	3.37853157e+02
611             	3.37853784e+02
612             	3.37854477e+02
613             	3.37855195e+02
614             	3.37855926e+02
615             	3.37856586e+02
616             	3.37857047e+02
617             	3.37857426e+02
618             	3.37857669e+02
619             	3.37857725e+02
620             	3.37857635e+02
621             	3.37857377e+02
