# Region        : cellZone component_1
# Cells         : 400
# Volume        : 8.22487992e-01
# Time          	volAverage(T)
1               	3.00188739e+02
2               	3.00375910e+02
3               	3.00553312e+02
4               	3.00723574e+02
5               	3.00889301e+02
6               	3.01051952e+02
7               	3.01211779e+02
8               	3.01369171e+02
9               	3.01524802e+02
10              	3.01678476e+02
11              	3.01830239e+02
12              	3.01980367e+02
13              	3.02128372e+02
14              	3.02274458e+02
15              	3.02419269e+02
16              	3.02560934e+02
17              	3.02701645e+02
18              	3.02841393e+02
19              	3.02980996e+02
20              	3.03119678e+02
21              	3.03258336e+02
22              	3.03396648e+02
23              	3.03534705e+02
24              	3.03667134e+02
25              	3.03799045e+02
26              	3.03927846e+02
27              	3.04055462e+02
28              	3.04180061e+02
29              	3.04301388e+02
30              	3.04420701e+02
31              	3.04537222e+02
32              	3.04649471e+02
33              	3.04761374e+02
34              	3.04874105e+02
35              	3.04986306e+02
36              	3.05097783e+02
37              	3.05209162e+02
38              	3.05318640e+02
39              	3.05426945e+02
40              	3.05532566e+02
41              	3.05636013e+02
42              	3.05737958e+02
43              	3.05838742e+02
44              	3.05938947e+02
45              	3.06037616e+02
46              	3.06134474e+02
47              	3.06232606e+02
48              	3.06328868e+02
49              	3.06421823e+02
50              	3.06510534e+02
51              	3.06596629e+02
52              	3.06679448e+02
53              	3.06764229e+02
54              	3.06845907e+02
55              	3.06927516e+02
56              	3.07007165e+02
57              	3.07082283e+02
58              	3.07156597e+02
59              	3.07230049e+02
60              	3.07300000e+02
61              	3.07365706e+02
62              	3.07429650e+02
63              	3.07492677e+02
64              	3.07558065e+02
65              	3.07622866e+02
66              	3.07688082e+02
67              	3.07753801e+02
68              	3.07818194e+02
69              	3.07884954e+02
70              	3.07953556e+02
71              	3.08016869e+02
72              	3.08080304e+02
73              	3.08142456e+02
74              	3.08204377e+02
75              	3.08266377e+02
76              	3.08328870e+02
77              	3.08392434e+02
78              	3.08457575e+02
79              	3.08523396e+02
80              	3.08588284e+02
81              	3.08651583e+02
82              	3.08711757e+02
83              	3.08768963e+02
84              	3.08823597e+02
85              	3.08876353e+02
86              	3.08927746e+02
87              	3.08979326e+02
88              	3.09033332e+02
89              	3.09086220e+02
90              	3.09139708e+02
91              	3.09193420e+02
92              	3.09245946e+02
93              	3.09299577e+02
94              	3.09351350e+02
95              	3.09402492e+02
96              	3.09452262e+02
97              	3.09503058e+02
98              	3.09551983e+02
99              	3.09601014e+02
100             	3.09650098e+02
101             	3.09698990e+02
102             	3.09748670e+02
103             	3.09798957e+02
104             	3.09845625e+02
105             	3.09891064e+02
106             	3.09933951e+02
107             	3.09976806e+02
108             	3.10017497e+02
109             	3.10059865e+02
110             	3.10100467e+02
111             	3.10143419e+02
112             	3.10187113e+02
113             	3.10233350e+02
114             	3.10278121e+02
115             	3.10321841e+02
116             	3.10364930e+02
117             	3.10406884e+02
118             	3.10448438e+02
119             	3.10487814e+02
120             	3.10526384e+02
121             	3.10564242e+02
122             	3.10602406e+02
123             	3.10641358e+02
124             	3.10680625e+02
125             	3.10719955e+02
126             	3.10758524e+02
127             	3.10795897e+02
128             	3.10832577e+02
129             	3.10868385e+02
130             	3.10903395e+02
131             	3.10937664e+02
132             	3.10972031e+02
133             	3.11005794e+02
134             	3.11040135e+02
135             	3.11075422e+02
136             	3.11109758e+02
137             	3.11143890e+02
138             	3.11177437e+02
139             	3.11210565e+02
140             	3.11242937e+02
141             	3.11274572e+02
142             	3.11304637e+02
143             	3.11334850e+02
144             	3.11365287e+02
145             	3.11395276e+02
146             	3.11426208e+02
147             	3.11457246e+02
148             	3.11488514e+02
149             	3.11518996e+02
150             	3.11549048e+02
151             	3.11578281e+02
152             	3.11606930e+02
153             	3.11635066e+02
154             	3.11661709e+02
155             	3.11688312e+02
156             	3.11714825e+02
157             	3.11742129e+02
158             	3.11769114e+02
159             	3.11795988e+02
160             	3.11822405e+02
161             	3.11848957e+02
162             	3.11874983e+02
163             	3.11900768e+02
164             	3.11926547e+02
165             	3.11951766e+02
166             	3.11976429e+02
167             	3.12000615e+02
168             	3.12023843e+02
169             	3.12047001e+02
170             	3.12070988e+02
171             	3.12094342e+02
172             	3.12117498e+02
173             	3.12140324e+02
174             	3.12163039e+02
175             	3.12185260e+02
176             	3.12207422e+02
177             	3.12229467e+02
178             	3.12250979e+02
179             	3.12272145e+02
180             	3.12293104e+02
181             	3.12313695e+02
182             	3.12333831e+02
183             	3.12354185e+02
184             	3.12374958e+02
185             	3.12394850e+02
186             	3.12414831e+02
187             	3.12434621e+02
188             	3.12454123e+02
189             	3.12473300e+02
190             	3.12492333e+02
191             	3.12510833e+02
192             	3.12529488e+02
193             	3.12547958e+02
194             	3.12566410e+02
195             	3.12584764e+02
196             	3.12603058e+02
197             	3.12621231e+02
198             	3.12639332e+02
199             	3.12657064e+02
200             	3.12675328e+02
201             	3.12693223e+02
202             	3.12710336e+02
203             	3.12727128e+02
204             	3.12744267e+02
205             	3.12760512e+02
206             	3.12776471e+02
207             	3.12792403e+02
208             	3.12808414e+02
209             	3.12824261e+02
210             	3.12839607e+02
211             	3.12855239e+02
212             	3.12870280e+02
213             	3.12885704e+02
214             	3.12900855e+02
215             	3.12915307e+02
216             	3.12929665e+02
217             	3.12943851e+02
218             	3.12957794e+02
219             	3.12971460e+02
220             	3.12984998e+02
221             	3.12998818e+02
222             	3.13011854e+02
223             	3.13025063e+02
224             	3.13039009e+02
225             	3.13052898e+02
226             	3.13066772e+02
227             	3.13080541e+02
228             	3.13094050e+02
229             	3.13107320e+02
230             	3.13120023e+02
231             	3.13132507e+02
232             	3.13144444e+02
233             	3.13156227e+02
234             	3.13167633e+02
235             	3.13178733e+02
236             	3.13189391e+02
237             	3.13200007e+02
238             	3.13210596e+02
239             	3.13220862e+02
240             	3.13231559e+02
241             	3.13242394e+02
242             	3.13253308e+02
243             	3.13264654e+02
244             	3.13276082e+02
245             	3.13286931e+02
246             	3.13298044e+02
247             	3.13308899e+02
248             	3.13319063e+02
249             	3.13329289e+02
250             	3.13339427e+02
251             	3.13349578e+02
252             	3.13359515e+02
253             	3.13369245e+02
254             	3.13378603e+02
255             	3.13387849e+02
256             	3.13397324e+02
257             	3.13407035e+02
258             	3.13416566e+02
259             	3.13426613e+02
260             	3.13436930e+02
261             	3.13446784e+02
262             	3.13456951e+02
263             	3.13467293e+02
264             	3.13477649e+02
265             	3.13487822e+02
266             	3.13497708e+02
267             	3.13507358e+02
268             	3.13515745e+02
269             	3.13524312e+02
270             	3.13532840e+02
271             	3.13541379e+02
272             	3.13549658e+02
273             	3.13557487e+02
274             	3.13564959e+02
275             	3.13572267e+02
276             	3.13579569e+02
277             	3.13586920e+02
278             	3.13593721e+02
279             	3.13600981e+02
280             	3.13608669e+02
281             	3.13616696e+02
282             	3.13624841e+02
283             	3.13632738e+02
284             	3.13639708e+02
285             	3.13647031e+02
286             	3.13654527e+02
287             	3.13661989e+02
288             	3.13669477e+02
289             	3.13675828e+02
290             	3.13682161e+02
291             	3.13688328e+02
292             	3.13694224e+02
293             	3.13699822e+02
294             	3.13705252e+02
295             	3.13710734e+02
296             	3.13716504e+02
297             	3.13722557e+02
298             	3.13728729e+02
299             	3.13735074e+02
300             	3.13741631e+02
301             	3.13748496e+02
302             	3.13754177e+02
303             	3.13759966e+02
304             	3.13765906e+02
305             	3.13771852e+02
306             	3.13777680e+02
307             	3.13783424e+02
308             	3.13789057e+02
309             	3.13794563e+02
310             	3.13799925e+02
311             	3.13805165e+02
312             	3.13810096e+02
313             	3.13814280e+02
314             	3.13818461e+02
315             	3.13822762e+02
316             	3.13827137e+02
317             	3.13831466e+02
318             	3.13836063e+02
319             	3.13840776e+02
320             	3.13844924e+02
321             	3.13849291e+02
322             	3.13853781e+02
323             	3.13858097e+02
324             	3.13862365e+02
325             	3.13866753e+02
326             	3.13871004e+02
327             	3.13875031e+02
328             	3.13879190e+02
329             	3.13883446e+02
330             	3.13887724e+02
331             	3.13891894e+02
332             	3.13896070e+02
333             	3.13900248e+02
334             	3.13904477e+02
335             	3.13908716e+02
336             	3.13912937e+02
337             	3.13917129e+02
338             	3.13921278e+02
339             	3.13925352e+02
340             	3.13929247e+02
341             	3.13933096e+02
342             	3.13937033e+02
343             	3.13940997e+02
344             	3.13944791e+02
345             	3.13948376e+02
346             	3.13951825e+02
347             	3.13955603e+02
348             	3.13959559e+02
349             	3.13963565e+02
350             	3.13967475e+02
351             	3.13971096e+02
352             	3.13974560e+02
353             	3.13978078e+02
354             	3.13981461e+02
355             	3.13984839e+02
356             	3.13988242e+02
357             	3.13991611e+02
358             	3.13995045e+02
359             	3.13998389e+02
360             	3.14001826e+02
361             	3.14005290e+02
362             	3.14008770e+02
363             	3.14012079e+02
364             	3.14015340e+02
365             	3.14018573e+02
366             	3.14021814e+02
367             	3.14025038e+02
368             	3.14028146e+02
369             	3.14031185e+02
370             	3.14034203e+02
371             	3.14037167e+02
372             	3.14040146e+02
373             	3.14043115e+02
374             	3.14046037e+02
375             	3.14049062e+02
376             	3.14052119e+02
377             	3.14054920e+02
378             	3.14057534e+02
379             	3.14060124e+02
380             	3.14062866e+02
381             	3.14065580e+02
382             	3.14068280e+02
383             	3.14070858e+02
384             	3.14073545e+02
385             	3.14076188e+02
386             	3.14078830e+02
387             	3.14081334e+02
388             	3.14083668e+02
389             	3.14086155e+02
390             	3.14088497e+02
391             	3.14090840e+02
392             	3.14093235e+02
393             	3.14095645e+02
394             	3.14097926e+02
395             	3.14100224e+02
396             	3.14102418e+02
397             	3.14104480e+02
398             	3.14106608e+02
399             	3.14108717e+02
400             	3.14110766e+02
401             	3.14112875e+02
402             	3.14114956e+02
403             	3.14116834e+02
404             	3.14118763e+02
405             	3.14120654e+02
406             	3.14122520e+02
407             	3.14124318e+02
408             	3.14126181e+02
409             	3.14128123e+02
410             	3.14130163e+02
411             	3.14132228e+02
412             	3.14134244e+02
413             	3.14136267e+02
414             	3.14138317e+02
415             	3.14140228e+02
416             	3.14142123e+02
417             	3.14144046e+02
418             	3.14145876e+02
419             	3.14147675e+02
420             	3.14149513e+02
421             	3.14151436e+02
422             	3.14153228e+02
423             	3.14155005e+02
424             	3.14156848e+02
425             	3.14158612e+02
426             	3.14160294e+02
427             	3.14162047e+02
428             	3.14163793e+02
429             	3.14165527e+02
430             	3.14167075e+02
431             	3.14168651e+02
432             	3.14170299e+02
433             	3.14171962e+02
434             	3.14173538e+02
435             	3.14175144e+02
436             	3.14176797e+02
437             	3.14178422e+02
438             	3.14179926e+02
439             	3.14181489e+02
440             	3.14183020e+02
441             	3.14184412e+02
442             	3.14185809e+02
443             	3.14187261e+02
444             	3.14188682e+02
445             	3.14189973e+02
446             	3.14191278e+02
447             	3.14192536e+02
448             	3.14193772e+02
449             	3.14195004e+02
450             	3.14196252e+02
451             	3.14197545e+02
452             	3.14198788e+02
453             	3.14200112e+02
454             	3.14201361e+02
455             	3.14202567e+02
456             	3.14203812e+02
457             	3.14205028e+02
458             	3.14206228e+02
459             	3.14207434e+02
460             	3.14208615e+02
461             	3.14209864e+02
462             	3.14211109e+02
463             	3.14212287e+02
464             	3.14213446e+02
465             	3.14214587e+02
466             	3.14215743e+02
467             	3.14216982e+02
468             	3.14218156e+02
469             	3.14219318e+02
470             	3.14220392e+02
471             	3.14221455e+02
472             	3.14222519e+02
473             	3.14223545e+02
474             	3.14224600e+02
475             	3.14225731e+02
476             	3.14226874e+02
477             	3.14228015e+02
478             	3.14229153e+02
479             	3.14230202e+02
480             	3.14231217e+02
481             	3.14232230e+02
482             	3.14233261e+02
483             	3.14234238e+02
484             	3.14235205e+02
485             	3.14236156e+02
486             	3.14237138e+02
487             	3.14238098e+02
488             	3.14239074e+02
489             	3.14240050e+02
490             	3.14241066e+02
491             	3.14242027e+02
492             	3.14242979e+02
493             	3.14243958e+02
494             	3.14244850e+02
495             	3.14245744e+02
496             	3.14246623e+02
497             	3.14247475e+02
498             	3.14248281e+02
499             	3.14249065e+02
500             	3.14249833e+02
501             	3.14250626e+02
502             	3.14251431e+02
503             	3.14252220e+02
504             	3.14253002e+02
505             	3.14253766e+02
506             	3.14254511e+02
507             	3.14255241e+02
508             	3.14255953e+02
509             	3.14256669e+02
510             	3.14257373e+02
511             	3.14258073e+02
512             	3.14258773e+02
513             	3.14259468e+02
514             	3.14260161e+02
515             	3.14260849e+02
516             	3.14261524e+02
517             	3.14262195e+02
518             	3.14262865e+02
519             	3.14263522e+02
520             	3.14264169e+02
521             	3.14264800e+02
522             	3.14265428e+02
523             	3.14266037e+02
524             	3.14266646e+02
525             	3.14267248e+02
526             	3.14267852e+02
527             	3.14268455e+02
528             	3.14269055e+02
529             	3.14269659e+02
530             	3.14270262e+02
531             	3.14270863e+02
532             	3.14271457e+02
533             	3.14272059e+02
534             	3.14272610e+02
535             	3.14273173e+02
536             	3.14273747e+02
537             	3.14274319e+02
538             	3.14274890e+02
539             	3.14275445e+02
540             	3.14275990e+02
541             	3.14276525e+02
542             	3.14277052e+02
543             	3.14277579e+02
544             	3.14278106e+02
545             	3.14278627e+02
546             	3.14279148e+02
547             	3.14279664e+02
548             	3.14280181e+02
549             	3.14280697e+02
550             	3.14281210e+02
551             	3.14281717e+02
552             	3.14282216e+02
553             	3.14282711e+02
554             	3.14283198e+02
555             	3.14283677e+02
556             	3.14284131e+02
557             	3.14284586e+02
558             	3.14285036e+02
559             	3.14285485e+02
560             	3.14285925e+02
561             	3.14286359e+02
562             	3.14286771e+02
563             	3.14287181e+02
564             	3.14287596e+02
565             	3.14288010e+02
566             	3.14288416e+02
567             	3.14288816e+02
568             	3.14289221e+02
569             	3.14289616e+02
570             	3.14290009e+02
571             	3.14290403e+02
572             	3.14290800e+02
573             	3.14291191e+02
574             	3.14291589e+02
575             	3.14291989e+02
576             	3.14292389e+02
577             	3.14292789e+02
578             	3.14293184e+02
579             	3.14293572e+02
580             	3.14293956e+02
581             	3.14294336e+02
582             	3.14294712e+02
583             	3.14295081e+02
584             	3.14295450e+02
585             	3.14295816e+02
586             	3.14296174e+02
587             	3.14296531e+02
588             	3.14296891e+02
589             	3.14297253e+02
590             	3.14297611e+02
591             	3.14297962e+02
592             	3.14298316e+02
593             	3.14298660e+02
594             	3.14299003e+02
595             	3.14299335e+02
596             	3.14299662e+02
597             	3.14299984e+02
598             	3.14300307e+02
599             	3.14300626e+02
600             	3.14300939e+02
601             	3.14301252e+02
602             	3.14301561e+02
603             	3.14301864e+02
604             	3.14302161e+02
605             	3.14302458e+02
606             	3.14302755e+02
607             	3.14303048e+02
608             	3.14303336e+02
609             	3.14303627e+02
610             	3.14303917e+02
611             	3.14304206e+02
612             	3.14304491e+02
613             	3.14304777e+02
614             	3.14305064e+02
615             	3.14305349e+02
616             	3.14305628e+02
617             	3.14305907e+02
618             	3.14306184e+02
619             	3.14306457e+02
620             	3.14306723e+02
621             	3.14306987e+02
