# Region        : cellZone component_4
# Cells         : 158
# Volume        : 3.00670440e-01
# Time          	volAverage(T)
1               	3.00725139e+02
2               	3.01439226e+02
3               	3.02056496e+02
4               	3.02610290e+02
5               	3.03145482e+02
6               	3.03676928e+02
7               	3.04199091e+02
8               	3.04708219e+02
9               	3.05210204e+02
10              	3.05690157e+02
11              	3.06147325e+02
12              	3.06592827e+02
13              	3.07022996e+02
14              	3.07435851e+02
15              	3.07848415e+02
16              	3.08249910e+02
17              	3.08642290e+02
18              	3.09021062e+02
19              	3.09384880e+02
20              	3.09710794e+02
21              	3.10055159e+02
22              	3.10399129e+02
23              	3.10722213e+02
24              	3.11024186e+02
25              	3.11317309e+02
26              	3.11604602e+02
27              	3.11881581e+02
28              	3.12159795e+02
29              	3.12418351e+02
30              	3.12667838e+02
31              	3.12924402e+02
32              	3.13134099e+02
33              	3.13283455e+02
34              	3.13406867e+02
35              	3.13523847e+02
36              	3.13645485e+02
37              	3.13773125e+02
38              	3.13887212e+02
39              	3.14056495e+02
40              	3.14227514e+02
41              	3.14388770e+02
42              	3.14526520e+02
43              	3.14665030e+02
44              	3.14799682e+02
45              	3.14950405e+02
46              	3.15114020e+02
47              	3.15265013e+02
48              	3.15356762e+02
49              	3.15416747e+02
50              	3.15475858e+02
51              	3.15538263e+02
52              	3.15609600e+02
53              	3.15739594e+02
54              	3.15889129e+02
55              	3.16037756e+02
56              	3.16179893e+02
57              	3.16316796e+02
58              	3.16461707e+02
59              	3.16604616e+02
60              	3.16749592e+02
61              	3.16891713e+02
62              	3.17035135e+02
63              	3.17162712e+02
64              	3.17279170e+02
65              	3.17376412e+02
66              	3.17476079e+02
67              	3.17574214e+02
68              	3.17678376e+02
69              	3.17775589e+02
70              	3.17852485e+02
71              	3.17905288e+02
72              	3.17936144e+02
73              	3.17987788e+02
74              	3.18049432e+02
75              	3.18128403e+02
76              	3.18216162e+02
77              	3.18302842e+02
78              	3.18385253e+02
79              	3.18487374e+02
80              	3.18596133e+02
81              	3.18701048e+02
82              	3.18807109e+02
83              	3.18915119e+02
84              	3.19021896e+02
85              	3.19122819e+02
86              	3.19214132e+02
87              	3.19288908e+02
88              	3.19351132e+02
89              	3.19404047e+02
90              	3.19450172e+02
91              	3.19489707e+02
92              	3.19527799e+02
93              	3.19572892e+02
94              	3.19614086e+02
95              	3.19662595e+02
96              	3.19711367e+02
97              	3.19768137e+02
98              	3.19819291e+02
99              	3.19867209e+02
100             	3.19913432e+02
101             	3.19957546e+02
102             	3.20002505e+02
103             	3.20048947e+02
104             	3.20096954e+02
105             	3.20147063e+02
106             	3.20200054e+02
107             	3.20257210e+02
108             	3.20307476e+02
109             	3.20353273e+02
110             	3.20391771e+02
111             	3.20426806e+02
112             	3.20460374e+02
113             	3.20493089e+02
114             	3.20523912e+02
115             	3.20551705e+02
116             	3.20583528e+02
117             	3.20617866e+02
118             	3.20651301e+02
119             	3.20689880e+02
120             	3.20728013e+02
121             	3.20771801e+02
122             	3.20818861e+02
123             	3.20869641e+02
124             	3.20921983e+02
125             	3.20972874e+02
126             	3.21019298e+02
127             	3.21065505e+02
128             	3.21109487e+02
129             	3.21145880e+02
130             	3.21178026e+02
131             	3.21207645e+02
132             	3.21236044e+02
133             	3.21262852e+02
134             	3.21288166e+02
135             	3.21311780e+02
136             	3.21334934e+02
137             	3.21358661e+02
138             	3.21382937e+02
139             	3.21410492e+02
140             	3.21439462e+02
141             	3.21466839e+02
142             	3.21492772e+02
143             	3.21512359e+02
144             	3.21525113e+02
145             	3.21529525e+02
146             	3.21535326e+02
147             	3.21539697e+02
148             	3.21536844e+02
149             	3.21533774e+02
150             	3.21528641e+02
151             	3.21528257e+02
152             	3.21530492e+02
153             	3.21543080e+02
154             	3.21558788e+02
155             	3.21581666e+02
156             	3.21603603e+02
157             	3.21625297e+02
158             	3.21645235e+02
159             	3.21662149e+02
160             	3.21674091e+02
161             	3.21678149e+02
162             	3.21684135e+02
163             	3.21694919e+02
164             	3.21712887e+02
165             	3.21732334e+02
166             	3.21756706e+02
167             	3.21785389e+02
168             	3.21816307e+02
169             	3.21848822e+02
170             	3.21885069e+02
171             	3.21921579e+02
172             	3.21950184e+02
173             	3.21981455e+02
174             	3.22016541e+02
175             	3.22049629e+02
176             	3.22080987e+02
177             	3.22112523e+02
178             	3.22145623e+02
179             	3.22177956e+02
180             	3.22209904e+02
181             	3.22241696e+02
182             	3.22273598e+02
183             	3.22305405e+02
184             	3.22337009e+02
185             	3.22369109e+02
186             	3.22401913e+02
187             	3.22434101e+02
188             	3.22464965e+02
189             	3.22493036e+02
190             	3.22519001e+02
191             	3.22543488e+02
192             	3.22567342e+02
193             	3.22590824e+02
194             	3.22613540e+02
195             	3.22635819e+02
196             	3.22658340e+02
197             	3.22681792e+02
198             	3.22706322e+02
199             	3.22732360e+02
200             	3.22759435e+02
201             	3.22786943e+02
202             	3.22813037e+02
203             	3.22838410e+02
204             	3.22863880e+02
205             	3.22888508e+02
206             	3.22911659e+02
207             	3.22934284e+02
208             	3.22956568e+02
209             	3.22977750e+02
210             	3.22997814e+02
211             	3.23016500e+02
212             	3.23035065e+02
213             	3.23053069e+02
214             	3.23071017e+02
215             	3.23089050e+02
216             	3.23106858e+02
217             	3.23124527e+02
218             	3.23142050e+02
219             	3.23159201e+02
220             	3.23176477e+02
221             	3.23193528e+02
222             	3.23209652e+02
223             	3.23224809e+02
224             	3.23239890e+02
225             	3.23255033e+02
226             	3.23269967e+02
227             	3.23284777e+02
228             	3.23299337e+02
229             	3.23313587e+02
230             	3.23327755e+02
231             	3.23341927e+02
232             	3.23355633e+02
233             	3.23368951e+02
234             	3.23381997e+02
235             	3.23395328e+02
236             	3.23408688e+02
237             	3.23422431e+02
238             	3.23436116e+02
239             	3.23449637e+02
240             	3.23463183e+02
241             	3.23477102e+02
242             	3.23490951e+02
243             	3.23504069e+02
244             	3.23516619e+02
245             	3.23529010e+02
246             	3.23540923e+02
247             	3.23552265e+02
248             	3.23564308e+02
249             	3.23576402e+02
250             	3.23587944e+02
251             	3.23599499e+02
252             	3.23611115e+02
253             	3.23622025e+02
254             	3.23632476e+02
255             	3.23642512e+02
256             	3.23652357e+02
257             	3.23662226e+02
258             	3.23672493e+02
259             	3.23682999e+02
260             	3.23693838e+02
261             	3.23704096e+02
262             	3.23714250e+02
263             	3.23724599e+02
264             	3.23734739e+02
265             	3.23743451e+02
266             	3.23751905e+02
267             	3.23760322e+02
268             	3.23768326e+02
269             	3.23775923e+02
270             	3.23783243e+02
271             	3.23790216e+02
272             	3.23797617e+02
273             	3.23805463e+02
274             	3.23813130e+02
275             	3.23820685e+02
276             	3.23828324e+02
277             	3.23836212e+02
278             	3.23844030e+02
279             	3.23852073e+02
280             	3.23859948e+02
281             	3.23868282e+02
282             	3.23876391e+02
283             	3.23883981e+02
284             	3.23891645e+02
285             	3.23899263e+02
286             	3.23907058e+02
287             	3.23915236e+02
288             	3.23923263e+02
289             	3.23931221e+02
290             	3.23938875e+02
291             	3.23946192e+02
292             	3.23953532e+02
293             	3.23960892e+02
294             	3.23967949e+02
295             	3.23974801e+02
296             	3.23981417e+02
297             	3.23987648e+02
298             	3.23993554e+02
299             	3.23999370e+02
300             	3.24005105e+02
301             	3.24010796e+02
302             	3.24016507e+02
303             	3.24021963e+02
304             	3.24027091e+02
305             	3.24031967e+02
306             	3.24036806e+02
307             	3.24041502e+02
308             	3.24045981e+02
309             	3.24050344e+02
310             	3.24054808e+02
311             	3.24059165e+02
312             	3.24063540e+02
313             	3.24068066e+02
314             	3.24072727e+02
315             	3.24077292e+02
316             	3.24081770e+02
317             	3.24086397e+02
318             	3.24091432e+02
319             	3.24096613e+02
320             	3.24101821e+02
321             	3.24107017e+02
322             	3.24112222e+02
323             	3.24117376e+02
324             	3.24122145e+02
325             	3.24126401e+02
326             	3.24130480e+02
327             	3.24134210e+02
328             	3.24137638e+02
329             	3.24141168e+02
330             	3.24144407e+02
331             	3.24147532e+02
332             	3.24150669e+02
333             	3.24154014e+02
334             	3.24157528e+02
335             	3.24160852e+02
336             	3.24164380e+02
337             	3.24167781e+02
338             	3.24170891e+02
339             	3.24173615e+02
340             	3.24176150e+02
341             	3.24178739e+02
342             	3.24181209e+02
343             	3.24183693e+02
344             	3.24186322e+02
345             	3.24189163e+02
346             	3.24191988e+02
347             	3.24194665e+02
348             	3.24197504e+02
349             	3.24200072e+02
350             	3.24202885e+02
351             	3.24205807e+02
352             	3.24208649e+02
353             	3.24211355e+02
354             	3.24213968e+02
355             	3.24216400e+02
356             	3.24218757e+02
357             	3.24220962e+02
358             	3.24223143e+02
359             	3.24225234e+02
360             	3.24227173e+02
361             	3.24229021e+02
362             	3.24230880e+02
363             	3.24232726e+02
364             	3.24234376e+02
365             	3.24235938e+02
366             	3.24237449e+02
367             	3.24238925e+02
368             	3.24240299e+02
369             	3.24241449e+02
370             	3.24242554e+02
371             	3.24243664e+02
372             	3.24244841e+02
373             	3.24245950e+02
374             	3.24247080e+02
375             	3.24248273e+02
376             	3.24249531e+02
377             	3.24250782e+02
378             	3.24251996e+02
379             	3.24253386e+02
380             	3.24254830e+02
381             	3.24256268e+02
382             	3.24257733e+02
383             	3.24259313e+02
384             	3.24260905e+02
385             	3.24262517e+02
386             	3.24264194e+02
387             	3.24265970e+02
388             	3.24267812e+02
389             	3.24269737e+02
390             	3.24271636e+02
391             	3.24273505e+02
392             	3.24275365e+02
393             	3.24277143e+02
394             	3.24278852e+02
395             	3.24280700e+02
396             	3.24282437e+02
397             	3.24284101e+02
398             	3.24285792e+02
399             	3.24287526e+02
400             	3.24289194e+02
401             	3.24290835e+02
402             	3.24292386e+02
403             	3.24293861e+02
404             	3.24295260e+02
405             	3.24296554e+02
406             	3.24297762e+02
407             	3.24298876e+02
408             	3.24299873e+02
409             	3.24300747e+02
410             	3.24301580e+02
411             	3.24302377e+02
412             	3.24303144e+02
413             	3.24303887e+02
414             	3.24304634e+02
415             	3.24305351e+02
416             	3.24306058e+02
417             	3.24306721e+02
418             	3.24307330e+02
419             	3.24307921e+02
420             	3.24308460e+02
421             	3.24308907e+02
422             	3.24309438e+02
423             	3.24310017e+02
424             	3.24310597e+02
425             	3.24311234e+02
426             	3.24311861e+02
427             	3.24312601e+02
428             	3.24313445e+02
429             	3.24314350e+02
430             	3.24315282e+02
431             	3.24316241e+02
432             	3.24317211e+02
433             	3.24318187e+02
434             	3.24319203e+02
435             	3.24320267e+02
436             	3.24321351e+02
437             	3.24322469e+02
438             	3.24323670e+02
439             	3.24324780e+02
440             	3.24325843e+02
441             	3.24326920e+02
442             	3.24327958e+02
443             	3.24328913e+02
444             	3.24329810e+02
445             	3.24330657e+02
446             	3.24331409e+02
447             	3.24332073e+02
448             	3.24332853e+02
449             	3.24333570e+02
450             	3.24334252e+02
451             	3.24334876e+02
452             	3.24335341e+02
453             	3.24335686e+02
454             	3.24336072e+02
455             	3.24336515e+02
456             	3.24336872e+02
457             	3.24337133e+02
458             	3.24337335e+02
459             	3.24337454e+02
460             	3.24337611e+02
461             	3.24337815e+02
462             	3.24338028e+02
463             	3.24338173e+02
464             	3.24338364e+02
465             	3.24338545e+02
466             	3.24338738e+02
467             	3.24339000e+02
468             	3.24339321e+02
469             	3.24339719e+02
470             	3.24340213e+02
471             	3.24340753e+02
472             	3.24341276e+02
473             	3.24341805e+02
474             	3.24342360e+02
475             	3.24342929e+02
476             	3.24343511e+02
477             	3.24344023e+02
478             	3.24344579e+02
479             	3.24345115e+02
480             	3.24345676e+02
481             	3.24346213e+02
482             	3.24346693e+02
483             	3.24347110e+02
484             	3.24347492e+02
485             	3.24347866e+02
486             	3.24348211e+02
487             	3.24348567e+02
488             	3.24348891e+02
489             	3.24349173e+02
490             	3.24349415e+02
491             	3.24349585e+02
492             	3.24349705e+02
493             	3.24349768e+02
494             	3.24349881e+02
495             	3.24350023e+02
496             	3.24350181e+02
497             	3.24350327e+02
498             	3.24350446e+02
499             	3.24350578e+02
500             	3.24350699e+02
501             	3.24350840e+02
502             	3.24350998e+02
503             	3.24351166e+02
504             	3.24351331e+02
505             	3.24351550e+02
506             	3.24351807e+02
507             	3.24352061e+02
508             	3.24352342e+02
509             	3.24352641e+02
510             	3.24352954e+02
511             	3.24353293e+02
512             	3.24353652e+02
513             	3.24354042e+02
514             	3.24354412e+02
515             	3.24354783e+02
516             	3.24355167e+02
517             	3.24355506e+02
518             	3.24355782e+02
519             	3.24356030e+02
520             	3.24356275e+02
521             	3.24356568e+02
522             	3.24356872e+02
523             	3.24357203e+02
524             	3.24357484e+02
525             	3.24357743e+02
526             	3.24357969e+02
527             	3.24358163e+02
528             	3.24358354e+02
529             	3.24358502e+02
530             	3.24358615e+02
531             	3.24358710e+02
532             	3.24358785e+02
533             	3.24358868e+02
534             	3.24358893e+02
535             	3.24358919e+02
536             	3.24358921e+02
537             	3.24358913e+02
538             	3.24358909e+02
539             	3.24358912e+02
540             	3.24358949e+02
541             	3.24358979e+02
542             	3.24358999e+02
543             	3.24359046e+02
544             	3.24359127e+02
545             	3.24359216e+02
546             	3.24359271e+02
547             	3.24359334e+02
548             	3.24359379e+02
549             	3.24359420e+02
550             	3.24359473e+02
551             	3.24359604e+02
552             	3.24359820e+02
553             	3.24360006e+02
554             	3.24360168e+02
555             	3.24360354e+02
556             	3.24360519e+02
557             	3.24360685e+02
558             	3.24360839e+02
559             	3.24360980e+02
560             	3.24361127e+02
561             	3.24361250e+02
562             	3.24361325e+02
563             	3.24361364e+02
564             	3.24361379e+02
565             	3.24361376e+02
566             	3.24361380e+02
567             	3.24361389e+02
568             	3.24361399e+02
569             	3.24361415e+02
570             	3.24361444e+02
571             	3.24361458e+02
572             	3.24361410e+02
573             	3.24361373e+02
574             	3.24361387e+02
575             	3.24361425e+02
576             	3.24361433e+02
577             	3.24361466e+02
578             	3.24361545e+02
579             	3.24361647e+02
580             	3.24361770e+02
581             	3.24361895e+02
582             	3.24361985e+02
583             	3.24362079e+02
584             	3.24362180e+02
585             	3.24362280e+02
586             	3.24362379e+02
587             	3.24362484e+02
588             	3.24362612e+02
589             	3.24362759e+02
590             	3.24362928e+02
591             	3.24363115e+02
592             	3.24363282e+02
593             	3.24363444e+02
594             	3.24363668e+02
595             	3.24363913e+02
596             	3.24364181e+02
597             	3.24364407e+02
598             	3.24364602e+02
599             	3.24364776e+02
600             	3.24364904e+02
601             	3.24364995e+02
602             	3.24365084e+02
603             	3.24365168e+02
604             	3.24365225e+02
605             	3.24365267e+02
606             	3.24365299e+02
607             	3.24365339e+02
608             	3.24365401e+02
609             	3.24365455e+02
610             	3.24365515e+02
611             	3.24365551e+02
612             	3.24365546e+02
613             	3.24365561e+02
614             	3.24365561e+02
615             	3.24365532e+02
616             	3.24365465e+02
617             	3.24365386e+02
618             	3.24365340e+02
619             	3.24365329e+02
620             	3.24365351e+02
621             	3.24365382e+02
