# Region        : cellZone component_3
# Cells         : 22
# Volume        : 2.69013724e-02
# Time          	volAverage(T)
1               	3.02272077e+02
2               	3.04456911e+02
3               	3.06381681e+02
4               	3.08181216e+02
5               	3.09905861e+02
6               	3.11573167e+02
7               	3.13198113e+02
8               	3.14811289e+02
9               	3.16408553e+02
10              	3.17980191e+02
11              	3.19509848e+02
12              	3.21000780e+02
13              	3.22400382e+02
14              	3.23761013e+02
15              	3.25064088e+02
16              	3.26354978e+02
17              	3.27641997e+02
18              	3.28878571e+02
19              	3.30046839e+02
20              	3.31124580e+02
21              	3.32100113e+02
22              	3.33020390e+02
23              	3.33898988e+02
24              	3.34629397e+02
25              	3.35250429e+02
26              	3.35779312e+02
27              	3.36229108e+02
28              	3.36666746e+02
29              	3.37072077e+02
30              	3.37486917e+02
31              	3.37923962e+02
32              	3.38384693e+02
33              	3.38793230e+02
34              	3.39179754e+02
35              	3.39585216e+02
36              	3.39969813e+02
37              	3.40305747e+02
38              	3.40715425e+02
39              	3.41015357e+02
40              	3.41297530e+02
41              	3.41485502e+02
42              	3.41631601e+02
43              	3.41799876e+02
44              	3.41920855e+02
45              	3.42047171e+02
46              	3.42142193e+02
47              	3.42292272e+02
48              	3.42533302e+02
49              	3.42802955e+02
50              	3.43125376e+02
51              	3.43375288e+02
52              	3.43631561e+02
53              	3.43913859e+02
54              	3.44168841e+02
55              	3.44438050e+02
56              	3.44701697e+02
57              	3.45043256e+02
58              	3.45302026e+02
59              	3.45470821e+02
60              	3.45709829e+02
61              	3.45901796e+02
62              	3.46173144e+02
63              	3.46421600e+02
64              	3.46604911e+02
65              	3.46741447e+02
66              	3.46864007e+02
67              	3.46896860e+02
68              	3.47117286e+02
69              	3.47373455e+02
70              	3.47618996e+02
71              	3.47829679e+02
72              	3.48002858e+02
73              	3.48104728e+02
74              	3.48270309e+02
75              	3.48464559e+02
76              	3.48645715e+02
77              	3.48799574e+02
78              	3.48948236e+02
79              	3.49090898e+02
80              	3.49255258e+02
81              	3.49455715e+02
82              	3.49658191e+02
83              	3.49979026e+02
84              	3.50271608e+02
85              	3.50534933e+02
86              	3.50816874e+02
87              	3.51078750e+02
88              	3.51367780e+02
89              	3.51719451e+02
90              	3.52097302e+02
91              	3.52465834e+02
92              	3.52758646e+02
93              	3.53004232e+02
94              	3.53303761e+02
95              	3.53520977e+02
96              	3.53705868e+02
97              	3.53912616e+02
98              	3.54131800e+02
99              	3.54371744e+02
100             	3.54616371e+02
101             	3.54822483e+02
102             	3.55009379e+02
103             	3.55246757e+02
104             	3.55473313e+02
105             	3.55615357e+02
106             	3.55717336e+02
107             	3.55788403e+02
108             	3.55958378e+02
109             	3.56000993e+02
110             	3.56013010e+02
111             	3.56032100e+02
112             	3.55952795e+02
113             	3.55960526e+02
114             	3.55884131e+02
115             	3.55806785e+02
116             	3.55676732e+02
117             	3.55517646e+02
118             	3.55453191e+02
119             	3.55419484e+02
120             	3.55414256e+02
121             	3.55387650e+02
122             	3.55426985e+02
123             	3.55517446e+02
124             	3.55706220e+02
125             	3.55779064e+02
126             	3.55891213e+02
127             	3.56018705e+02
128             	3.56019797e+02
129             	3.56035305e+02
130             	3.56097349e+02
131             	3.56167433e+02
132             	3.56211860e+02
133             	3.56226463e+02
134             	3.56293383e+02
135             	3.56277919e+02
136             	3.56185939e+02
137             	3.56086569e+02
138             	3.55983328e+02
139             	3.55846511e+02
140             	3.55695294e+02
141             	3.55562728e+02
142             	3.55453594e+02
143             	3.55343981e+02
144             	3.55244628e+02
145             	3.55177802e+02
146             	3.55109210e+02
147             	3.55128369e+02
148             	3.55211376e+02
149             	3.55209346e+02
150             	3.55256938e+02
151             	3.55312676e+02
152             	3.55359359e+02
153             	3.55387455e+02
154             	3.55445636e+02
155             	3.55556375e+02
156             	3.55647065e+02
157             	3.55699447e+02
158             	3.55733355e+02
159             	3.55719658e+02
160             	3.55705180e+02
161             	3.55715937e+02
162             	3.55746604e+02
163             	3.55742969e+02
164             	3.55779168e+02
165             	3.55850240e+02
166             	3.55811762e+02
167             	3.55801096e+02
168             	3.55813608e+02
169             	3.55819941e+02
170             	3.55831807e+02
171             	3.55860044e+02
172             	3.55900511e+02
173             	3.55923995e+02
174             	3.55922548e+02
175             	3.55895686e+02
176             	3.55871540e+02
177             	3.55859833e+02
178             	3.55858545e+02
179             	3.55868591e+02
180             	3.55907677e+02
181             	3.55959576e+02
182             	3.56022626e+02
183             	3.56107740e+02
184             	3.56212416e+02
185             	3.56340272e+02
186             	3.56394181e+02
187             	3.56502966e+02
188             	3.56574129e+02
189             	3.56678619e+02
190             	3.56729377e+02
191             	3.56812801e+02
192             	3.56919258e+02
193             	3.57048004e+02
194             	3.57159292e+02
195             	3.57232781e+02
196             	3.57284840e+02
197             	3.57322348e+02
198             	3.57342422e+02
199             	3.57356854e+02
200             	3.57379282e+02
201             	3.57418852e+02
202             	3.57486812e+02
203             	3.57495576e+02
204             	3.57526181e+02
205             	3.57614786e+02
206             	3.57656423e+02
207             	3.57738671e+02
208             	3.57843170e+02
209             	3.57953681e+02
210             	3.58092236e+02
211             	3.58243339e+02
212             	3.58348175e+02
213             	3.58482122e+02
214             	3.58559880e+02
215             	3.58672104e+02
216             	3.58731070e+02
217             	3.58811716e+02
218             	3.58851194e+02
219             	3.58904256e+02
220             	3.58960303e+02
221             	3.59001459e+02
222             	3.59016768e+02
223             	3.59007401e+02
224             	3.58990277e+02
225             	3.58982437e+02
226             	3.58987203e+02
227             	3.58949477e+02
228             	3.58964124e+02
229             	3.58948302e+02
230             	3.58990717e+02
231             	3.58990056e+02
232             	3.59048850e+02
233             	3.59081011e+02
234             	3.59167035e+02
235             	3.59222972e+02
236             	3.59276145e+02
237             	3.59329077e+02
238             	3.59380548e+02
239             	3.59475307e+02
240             	3.59535997e+02
241             	3.59637059e+02
242             	3.59682474e+02
243             	3.59764354e+02
244             	3.59784684e+02
245             	3.59802903e+02
246             	3.59844843e+02
247             	3.59844256e+02
248             	3.59866593e+02
249             	3.59861804e+02
250             	3.59873814e+02
251             	3.59900685e+02
252             	3.59890050e+02
253             	3.59924405e+02
254             	3.59913693e+02
255             	3.59904430e+02
256             	3.59897714e+02
257             	3.59955336e+02
258             	3.59967633e+02
259             	3.60023499e+02
260             	3.60122154e+02
261             	3.60168103e+02
262             	3.60249770e+02
263             	3.60285500e+02
264             	3.60355454e+02
265             	3.60386262e+02
266             	3.60450894e+02
267             	3.60505806e+02
268             	3.60537537e+02
269             	3.60614050e+02
270             	3.60633643e+02
271             	3.60699637e+02
272             	3.60711187e+02
273             	3.60721400e+02
274             	3.60790866e+02
275             	3.60824286e+02
276             	3.60922229e+02
277             	3.60965552e+02
278             	3.61059276e+02
279             	3.61101723e+02
280             	3.61182826e+02
281             	3.61216898e+02
282             	3.61277957e+02
283             	3.61299181e+02
284             	3.61351840e+02
285             	3.61353550e+02
286             	3.61384788e+02
287             	3.61381061e+02
288             	3.61422079e+02
289             	3.61403377e+02
290             	3.61434129e+02
291             	3.61415300e+02
292             	3.61449756e+02
293             	3.61434837e+02
294             	3.61479657e+02
295             	3.61526527e+02
296             	3.61522093e+02
297             	3.61579860e+02
298             	3.61590872e+02
299             	3.61597464e+02
300             	3.61605879e+02
301             	3.61614372e+02
302             	3.61677255e+02
303             	3.61693858e+02
304             	3.61755386e+02
305             	3.61766228e+02
306             	3.61814438e+02
307             	3.61814280e+02
308             	3.61845399e+02
309             	3.61842817e+02
310             	3.61881208e+02
311             	3.61863177e+02
312             	3.61889462e+02
313             	3.61869986e+02
314             	3.61903637e+02
315             	3.61886013e+02
316             	3.61927389e+02
317             	3.61923991e+02
318             	3.61982250e+02
319             	3.61990801e+02
320             	3.61998434e+02
321             	3.62063047e+02
322             	3.62078874e+02
323             	3.62143776e+02
324             	3.62154734e+02
325             	3.62210027e+02
326             	3.62208186e+02
327             	3.62247157e+02
328             	3.62233790e+02
329             	3.62256265e+02
330             	3.62238891e+02
331             	3.62267113e+02
332             	3.62241014e+02
333             	3.62257073e+02
334             	3.62229642e+02
335             	3.62201455e+02
336             	3.62173371e+02
337             	3.62203937e+02
338             	3.62235926e+02
339             	3.62204455e+02
340             	3.62233568e+02
341             	3.62202080e+02
342             	3.62220244e+02
343             	3.62196024e+02
344             	3.62214351e+02
345             	3.62205736e+02
346             	3.62245275e+02
347             	3.62235839e+02
348             	3.62275076e+02
349             	3.62261985e+02
350             	3.62300402e+02
351             	3.62289725e+02
352             	3.62336803e+02
353             	3.62327647e+02
354             	3.62380045e+02
355             	3.62377987e+02
356             	3.62373709e+02
357             	3.62427112e+02
358             	3.62428551e+02
359             	3.62488703e+02
360             	3.62488588e+02
361             	3.62536203e+02
362             	3.62584140e+02
363             	3.62629291e+02
364             	3.62615762e+02
365             	3.62649355e+02
366             	3.62628796e+02
367             	3.62652026e+02
368             	3.62624981e+02
369             	3.62643544e+02
370             	3.62619483e+02
371             	3.62645937e+02
372             	3.62618892e+02
373             	3.62645792e+02
374             	3.62621351e+02
375             	3.62659161e+02
376             	3.62636690e+02
377             	3.62674745e+02
378             	3.62655123e+02
379             	3.62697684e+02
380             	3.62678833e+02
381             	3.62713120e+02
382             	3.62692958e+02
383             	3.62722494e+02
384             	3.62703498e+02
385             	3.62728783e+02
386             	3.62713591e+02
387             	3.62742454e+02
388             	3.62722769e+02
389             	3.62749658e+02
390             	3.62729723e+02
391             	3.62771799e+02
392             	3.62747160e+02
393             	3.62776631e+02
394             	3.62752013e+02
395             	3.62783411e+02
396             	3.62760877e+02
397             	3.62790280e+02
398             	3.62772424e+02
399             	3.62805598e+02
400             	3.62787213e+02
401             	3.62818217e+02
402             	3.62799594e+02
403             	3.62830707e+02
404             	3.62809670e+02
405             	3.62838256e+02
406             	3.62816423e+02
407             	3.62846676e+02
408             	3.62823801e+02
409             	3.62856495e+02
410             	3.62832917e+02
411             	3.62863783e+02
412             	3.62840443e+02
413             	3.62878452e+02
414             	3.62854979e+02
415             	3.62881934e+02
416             	3.62860010e+02
417             	3.62887124e+02
418             	3.62864694e+02
419             	3.62892720e+02
420             	3.62869487e+02
421             	3.62896843e+02
422             	3.62875223e+02
423             	3.62851335e+02
424             	3.62879620e+02
425             	3.62855490e+02
426             	3.62883726e+02
427             	3.62856465e+02
428             	3.62881485e+02
429             	3.62854334e+02
430             	3.62880691e+02
431             	3.62853511e+02
432             	3.62879549e+02
433             	3.62854502e+02
434             	3.62883158e+02
435             	3.62859464e+02
436             	3.62888616e+02
437             	3.62867765e+02
438             	3.62898350e+02
439             	3.62876231e+02
440             	3.62906766e+02
441             	3.62882003e+02
442             	3.62908745e+02
443             	3.62884967e+02
444             	3.62912157e+02
445             	3.62885575e+02
446             	3.62908177e+02
447             	3.62880247e+02
448             	3.62899858e+02
449             	3.62872396e+02
450             	3.62895896e+02
451             	3.62867233e+02
452             	3.62891314e+02
453             	3.62864179e+02
454             	3.62835789e+02
455             	3.62809283e+02
456             	3.62783524e+02
457             	3.62758914e+02
458             	3.62735376e+02
459             	3.62713004e+02
460             	3.62691568e+02
461             	3.62670983e+02
462             	3.62651382e+02
463             	3.62632474e+02
464             	3.62614098e+02
465             	3.62596378e+02
466             	3.62579307e+02
467             	3.62563059e+02
468             	3.62547053e+02
469             	3.62531393e+02
470             	3.62516085e+02
471             	3.62501242e+02
472             	3.62487015e+02
473             	3.62473352e+02
474             	3.62460107e+02
475             	3.62447522e+02
476             	3.62435442e+02
477             	3.62423872e+02
478             	3.62412748e+02
479             	3.62401976e+02
480             	3.62391656e+02
481             	3.62381719e+02
482             	3.62372061e+02
483             	3.62362593e+02
484             	3.62353336e+02
485             	3.62344208e+02
486             	3.62335240e+02
487             	3.62326555e+02
488             	3.62318069e+02
489             	3.62310036e+02
490             	3.62302129e+02
491             	3.62294334e+02
492             	3.62286728e+02
493             	3.62279505e+02
494             	3.62272494e+02
495             	3.62265807e+02
496             	3.62259410e+02
497             	3.62253299e+02
498             	3.62247514e+02
499             	3.62242056e+02
500             	3.62236798e+02
501             	3.62231821e+02
502             	3.62227062e+02
503             	3.62222410e+02
504             	3.62217870e+02
505             	3.62213458e+02
506             	3.62209212e+02
507             	3.62205005e+02
508             	3.62200841e+02
509             	3.62196661e+02
510             	3.62192577e+02
511             	3.62188562e+02
512             	3.62184704e+02
513             	3.62180967e+02
514             	3.62177411e+02
515             	3.62173863e+02
516             	3.62170505e+02
517             	3.62167331e+02
518             	3.62164270e+02
519             	3.62161339e+02
520             	3.62158549e+02
521             	3.62155813e+02
522             	3.62153151e+02
523             	3.62150674e+02
524             	3.62148274e+02
525             	3.62145917e+02
526             	3.62143621e+02
527             	3.62141330e+02
528             	3.62139129e+02
529             	3.62137039e+02
530             	3.62135011e+02
531             	3.62133008e+02
532             	3.62131204e+02
533             	3.62129467e+02
534             	3.62127825e+02
535             	3.62126307e+02
536             	3.62124820e+02
537             	3.62123379e+02
538             	3.62121953e+02
539             	3.62120523e+02
540             	3.62119103e+02
541             	3.62117714e+02
542             	3.62116248e+02
543             	3.62114779e+02
544             	3.62113405e+02
545             	3.62112010e+02
546             	3.62110580e+02
547             	3.62109203e+02
548             	3.62107847e+02
549             	3.62106574e+02
550             	3.62105442e+02
551             	3.62104331e+02
552             	3.62103292e+02
553             	3.62102223e+02
554             	3.62101209e+02
555             	3.62100322e+02
556             	3.62099547e+02
557             	3.62098778e+02
558             	3.62098052e+02
559             	3.62097390e+02
560             	3.62096675e+02
561             	3.62095952e+02
562             	3.62095279e+02
563             	3.62094627e+02
564             	3.62093911e+02
565             	3.62093180e+02
566             	3.62092398e+02
567             	3.62091627e+02
568             	3.62090949e+02
569             	3.62090265e+02
570             	3.62089558e+02
571             	3.62088976e+02
572             	3.62088425e+02
573             	3.62087906e+02
574             	3.62087506e+02
575             	3.62087118e+02
576             	3.62086776e+02
577             	3.62086493e+02
578             	3.62086150e+02
579             	3.62085788e+02
580             	3.62085476e+02
581             	3.62085052e+02
582             	3.62084593e+02
583             	3.62084138e+02
584             	3.62083679e+02
585             	3.62083175e+02
586             	3.62082690e+02
587             	3.62082183e+02
588             	3.62081696e+02
589             	3.62081315e+02
590             	3.62080928e+02
591             	3.62080604e+02
592             	3.62080382e+02
593             	3.62080071e+02
594             	3.62079858e+02
595             	3.62079747e+02
596             	3.62079625e+02
597             	3.62079526e+02
598             	3.62079422e+02
599             	3.62079249e+02
600             	3.62079083e+02
601             	3.62079054e+02
602             	3.62078909e+02
603             	3.62078728e+02
604             	3.62078574e+02
605             	3.62078422e+02
606             	3.62078260e+02
607             	3.62078101e+02
608             	3.62077811e+02
609             	3.62077568e+02
610             	3.62077412e+02
611             	3.62077160e+02
612             	3.62076975e+02
613             	3.62076859e+02
614             	3.62076714e+02
615             	3.62076581e+02
616             	3.62076504e+02
617             	3.62076368e+02
618             	3.62076218e+02
619             	3.62076201e+02
620             	3.62076060e+02
621             	3.62075871e+02
