# Region        : cellZone fluid
# Cells         : 9732
# Volume        : 1.87391503e+01
# Time          	volAverage(T)
1               	3.00000117e+02
2               	3.00000202e+02
3               	3.00001141e+02
4               	3.00002112e+02
5               	3.00002378e+02
6               	3.00002725e+02
7               	3.00003148e+02
8               	3.00003623e+02
9               	3.00004266e+02
10              	3.00005077e+02
11              	3.00006009e+02
12              	3.00006771e+02
13              	3.00008073e+02
14              	3.00009120e+02
15              	3.00010766e+02
16              	3.00012080e+02
17              	3.00012760e+02
18              	3.00013574e+02
19              	3.00014672e+02
20              	3.00015651e+02
21              	3.00017095e+02
22              	3.00018852e+02
23              	3.00020511e+02
24              	3.00022191e+02
25              	3.00023653e+02
26              	3.00025057e+02
27              	3.00026170e+02
28              	3.00027405e+02
29              	3.00028407e+02
30              	3.00030512e+02
31              	3.00032005e+02
32              	3.00033689e+02
33              	3.00035613e+02
34              	3.00036997e+02
35              	3.00039332e+02
36              	3.00041018e+02
37              	3.00043079e+02
38              	3.00045249e+02
39              	3.00046763e+02
40              	3.00048341e+02
41              	3.00049983e+02
42              	3.00052486e+02
43              	3.00055070e+02
44              	3.00057110e+02
45              	3.00060285e+02
46              	3.00061579e+02
47              	3.00063503e+02
48              	3.00065993e+02
49              	3.00066759e+02
50              	3.00067794e+02
51              	3.00069091e+02
52              	3.00070793e+02
53              	3.00072101e+02
54              	3.00074973e+02
55              	3.00076772e+02
56              	3.00078909e+02
57              	3.00080762e+02
58              	3.00082567e+02
59              	3.00084122e+02
60              	3.00085382e+02
61              	3.00086304e+02
62              	3.00087854e+02
63              	3.00089124e+02
64              	3.00090641e+02
65              	3.00092048e+02
66              	3.00093557e+02
67              	3.00094629e+02
68              	3.00095726e+02
69              	3.00097410e+02
70              	3.00098617e+02
71              	3.00099148e+02
72              	3.00100559e+02
73              	3.00101471e+02
74              	3.00102497e+02
75              	3.00104122e+02
76              	3.00104707e+02
77              	3.00105750e+02
78              	3.00107399e+02
79              	3.00108843e+02
80              	3.00110352e+02
81              	3.00112113e+02
82              	3.00113447e+02
83              	3.00114032e+02
84              	3.00115050e+02
85              	3.00117829e+02
86              	3.00120115e+02
87              	3.00120219e+02
88              	3.00121085e+02
89              	3.00122034e+02
90              	3.00123350e+02
91              	3.00124589e+02
92              	3.00126251e+02
93              	3.00127888e+02
94              	3.00128285e+02
95              	3.00129066e+02
96              	3.00129574e+02
97              	3.00129930e+02
98              	3.00130395e+02
99              	3.00130864e+02
100             	3.00131424e+02
101             	3.00131981e+02
102             	3.00132107e+02
103             	3.00132584e+02
104             	3.00133648e+02
105             	3.00134132e+02
106             	3.00134575e+02
107             	3.00134708e+02
108             	3.00135115e+02
109             	3.00135400e+02
110             	3.00137305e+02
111             	3.00139402e+02
112             	3.00138789e+02
113             	3.00139510e+02
114             	3.00139386e+02
115             	3.00140346e+02
116             	3.00140488e+02
117             	3.00141659e+02
118             	3.00142066e+02
119             	3.00143174e+02
120             	3.00143197e+02
121             	3.00143735e+02
122             	3.00144527e+02
123             	3.00145007e+02
124             	3.00145245e+02
125             	3.00145688e+02
126             	3.00145344e+02
127             	3.00145804e+02
128             	3.00146024e+02
129             	3.00146662e+02
130             	3.00146980e+02
131             	3.00147037e+02
132             	3.00147345e+02
133             	3.00147860e+02
134             	3.00148632e+02
135             	3.00149058e+02
136             	3.00149224e+02
137             	3.00149661e+02
138             	3.00150306e+02
139             	3.00151537e+02
140             	3.00151550e+02
141             	3.00151555e+02
142             	3.00151726e+02
143             	3.00151617e+02
144             	3.00151614e+02
145             	3.00151474e+02
146             	3.00151152e+02
147             	3.00150728e+02
148             	3.00150836e+02
149             	3.00150797e+02
150             	3.00150576e+02
151             	3.00150434e+02
152             	3.00150396e+02
153             	3.00150533e+02
154             	3.00150924e+02
155             	3.00151087e+02
156             	3.00150729e+02
157             	3.00150495e+02
158             	3.00150307e+02
159             	3.00150104e+02
160             	3.00149819e+02
161             	3.00149719e+02
162             	3.00149630e+02
163             	3.00149610e+02
164             	3.00149654e+02
165             	3.00149460e+02
166             	3.00149431e+02
167             	3.00149617e+02
168             	3.00149741e+02
169             	3.00149661e+02
170             	3.00149402e+02
171             	3.00149504e+02
172             	3.00149463e+02
173             	3.00149285e+02
174             	3.00149077e+02
175             	3.00148878e+02
176             	3.00148962e+02
177             	3.00149217e+02
178             	3.00148893e+02
179             	3.00148881e+02
180             	3.00148929e+02
181             	3.00148934e+02
182             	3.00148965e+02
183             	3.00149016e+02
184             	3.00148903e+02
185             	3.00149199e+02
186             	3.00149428e+02
187             	3.00149650e+02
188             	3.00149903e+02
189             	3.00150015e+02
190             	3.00150198e+02
191             	3.00151057e+02
192             	3.00150933e+02
193             	3.00150779e+02
194             	3.00150718e+02
195             	3.00150524e+02
196             	3.00150458e+02
197             	3.00150462e+02
198             	3.00150472e+02
199             	3.00150510e+02
200             	3.00150577e+02
201             	3.00150576e+02
202             	3.00150626e+02
203             	3.00150769e+02
204             	3.00150840e+02
205             	3.00150871e+02
206             	3.00150809e+02
207             	3.00150641e+02
208             	3.00150598e+02
209             	3.00150521e+02
210             	3.00150365e+02
211             	3.00150303e+02
212             	3.00150377e+02
213             	3.00150334e+02
214             	3.00150247e+02
215             	3.00150186e+02
216             	3.00150155e+02
217             	3.00150205e+02
218             	3.00150242e+02
219             	3.00150081e+02
220             	3.00150034e+02
221             	3.00149869e+02
222             	3.00149798e+02
223             	3.00149727e+02
224             	3.00149782e+02
225             	3.00149844e+02
226             	3.00149935e+02
227             	3.00150015e+02
228             	3.00150109e+02
229             	3.00150238e+02
230             	3.00150549e+02
231             	3.00150644e+02
232             	3.00150867e+02
233             	3.00150896e+02
234             	3.00150978e+02
235             	3.00151093e+02
236             	3.00151191e+02
237             	3.00151223e+02
238             	3.00151231e+02
239             	3.00151250e+02
240             	3.00151311e+02
241             	3.00151338e+02
242             	3.00151397e+02
243             	3.00151389e+02
244             	3.00151412e+02
245             	3.00151425e+02
246             	3.00151365e+02
247             	3.00151221e+02
248             	3.00151148e+02
249             	3.00151096e+02
250             	3.00151050e+02
251             	3.00150985e+02
252             	3.00151075e+02
253             	3.00151052e+02
254             	3.00151053e+02
255             	3.00151087e+02
256             	3.00151163e+02
257             	3.00151204e+02
258             	3.00151255e+02
259             	3.00151291e+02
260             	3.00151394e+02
261             	3.00151441e+02
262             	3.00151492e+02
263             	3.00151507e+02
264             	3.00151549e+02
265             	3.00151620e+02
266             	3.00151662e+02
267             	3.00151664e+02
268             	3.00151671e+02
269             	3.00151659e+02
270             	3.00151696e+02
271             	3.00151683e+02
272             	3.00151666e+02
273             	3.00151600e+02
274             	3.00151560e+02
275             	3.00151517e+02
276             	3.00151491e+02
277             	3.00151403e+02
278             	3.00151431e+02
279             	3.00151460e+02
280             	3.00151514e+02
281             	3.00151577e+02
282             	3.00151610e+02
283             	3.00151621e+02
284             	3.00151686e+02
285             	3.00151718e+02
286             	3.00151765e+02
287             	3.00151797e+02
288             	3.00151843e+02
289             	3.00151859e+02
290             	3.00151902e+02
291             	3.00151934e+02
292             	3.00151999e+02
293             	3.00152053e+02
294             	3.00152126e+02
295             	3.00152151e+02
296             	3.00152267e+02
297             	3.00152345e+02
298             	3.00152375e+02
299             	3.00152404e+02
300             	3.00152463e+02
301             	3.00152489e+02
302             	3.00152518e+02
303             	3.00152524e+02
304             	3.00152536e+02
305             	3.00152531e+02
306             	3.00152531e+02
307             	3.00152513e+02
308             	3.00152508e+02
309             	3.00152494e+02
310             	3.00152507e+02
311             	3.00152498e+02
312             	3.00152522e+02
313             	3.00152531e+02
314             	3.00152543e+02
315             	3.00152553e+02
316             	3.00152591e+02
317             	3.00152599e+02
318             	3.00152640e+02
319             	3.00152685e+02
320             	3.00152773e+02
321             	3.00152758e+02
322             	3.00152797e+02
323             	3.00152835e+02
324             	3.00152870e+02
325             	3.00152840e+02
326             	3.00152849e+02
327             	3.00152885e+02
328             	3.00152966e+02
329             	3.00153008e+02
330             	3.00153038e+02
331             	3.00153046e+02
332             	3.00153082e+02
333             	3.00153093e+02
334             	3.00153140e+02
335             	3.00153156e+02
336             	3.00153164e+02
337             	3.00153171e+02
338             	3.00153192e+02
339             	3.00153154e+02
340             	3.00153176e+02
341             	3.00153175e+02
342             	3.00153206e+02
343             	3.00153217e+02
344             	3.00153243e+02
345             	3.00153254e+02
346             	3.00153286e+02
347             	3.00153289e+02
348             	3.00153323e+02
349             	3.00153383e+02
350             	3.00153443e+02
351             	3.00153462e+02
352             	3.00153486e+02
353             	3.00153474e+02
354             	3.00153493e+02
355             	3.00153505e+02
356             	3.00153527e+02
357             	3.00153532e+02
358             	3.00153566e+02
359             	3.00153602e+02
360             	3.00153601e+02
361             	3.00153621e+02
362             	3.00153621e+02
363             	3.00153614e+02
364             	3.00153632e+02
365             	3.00153619e+02
366             	3.00153623e+02
367             	3.00153620e+02
368             	3.00153649e+02
369             	3.00153647e+02
370             	3.00153672e+02
371             	3.00153649e+02
372             	3.00153689e+02
373             	3.00153718e+02
374             	3.00153746e+02
375             	3.00153762e+02
376             	3.00153796e+02
377             	3.00153803e+02
378             	3.00153836e+02
379             	3.00153848e+02
380             	3.00153870e+02
381             	3.00153879e+02
382             	3.00153907e+02
383             	3.00153907e+02
384             	3.00153931e+02
385             	3.00153927e+02
386             	3.00153951e+02
387             	3.00153934e+02
388             	3.00153947e+02
389             	3.00153940e+02
390             	3.00153975e+02
391             	3.00153993e+02
392             	3.00154008e+02
393             	3.00153968e+02
394             	3.00153990e+02
395             	3.00154008e+02
396             	3.00154039e+02
397             	3.00154040e+02
398             	3.00154054e+02
399             	3.00154055e+02
400             	3.00154072e+02
401             	3.00154069e+02
402             	3.00154078e+02
403             	3.00154081e+02
404             	3.00154080e+02
405             	3.00154091e+02
406             	3.00154091e+02
407             	3.00154070e+02
408             	3.00154089e+02
409             	3.00154086e+02
410             	3.00154092e+02
411             	3.00154086e+02
412             	3.00154098e+02
413             	3.00154083e+02
414             	3.00154084e+02
415             	3.00154070e+02
416             	3.00154093e+02
417             	3.00154109e+02
418             	3.00154127e+02
419             	3.00154129e+02
420             	3.00154161e+02
421             	3.00154157e+02
422             	3.00154179e+02
423             	3.00154188e+02
424             	3.00154212e+02
425             	3.00154211e+02
426             	3.00154236e+02
427             	3.00154227e+02
428             	3.00154241e+02
429             	3.00154240e+02
430             	3.00154253e+02
431             	3.00154252e+02
432             	3.00154271e+02
433             	3.00154261e+02
434             	3.00154278e+02
435             	3.00154273e+02
436             	3.00154283e+02
437             	3.00154280e+02
438             	3.00154297e+02
439             	3.00154286e+02
440             	3.00154303e+02
441             	3.00154301e+02
442             	3.00154311e+02
443             	3.00154300e+02
444             	3.00154327e+02
445             	3.00154320e+02
446             	3.00154340e+02
447             	3.00154337e+02
448             	3.00154345e+02
449             	3.00154339e+02
450             	3.00154352e+02
451             	3.00154332e+02
452             	3.00154335e+02
453             	3.00154322e+02
454             	3.00154327e+02
455             	3.00154326e+02
456             	3.00154334e+02
457             	3.00154317e+02
458             	3.00154329e+02
459             	3.00154321e+02
460             	3.00154332e+02
461             	3.00154323e+02
462             	3.00154335e+02
463             	3.00154319e+02
464             	3.00154334e+02
465             	3.00154324e+02
466             	3.00154329e+02
467             	3.00154323e+02
468             	3.00154341e+02
469             	3.00154335e+02
470             	3.00154357e+02
471             	3.00154358e+02
472             	3.00154371e+02
473             	3.00154368e+02
474             	3.00154381e+02
475             	3.00154366e+02
476             	3.00154379e+02
477             	3.00154371e+02
478             	3.00154381e+02
479             	3.00154376e+02
480             	3.00154392e+02
481             	3.00154379e+02
482             	3.00154396e+02
483             	3.00154390e+02
484             	3.00154402e+02
485             	3.00154406e+02
486             	3.00154412e+02
487             	3.00154394e+02
488             	3.00154407e+02
489             	3.00154396e+02
490             	3.00154405e+02
491             	3.00154399e+02
492             	3.00154417e+02
493             	3.00154406e+02
494             	3.00154423e+02
495             	3.00154420e+02
496             	3.00154430e+02
497             	3.00154427e+02
498             	3.00154437e+02
499             	3.00154426e+02
500             	3.00154442e+02
501             	3.00154436e+02
502             	3.00154441e+02
503             	3.00154433e+02
504             	3.00154445e+02
505             	3.00154429e+02
506             	3.00154442e+02
507             	3.00154434e+02
508             	3.00154438e+02
509             	3.00154430e+02
510             	3.00154442e+02
511             	3.00154425e+02
512             	3.00154437e+02
513             	3.00154428e+02
514             	3.00154431e+02
515             	3.00154422e+02
516             	3.00154434e+02
517             	3.00154418e+02
518             	3.00154430e+02
519             	3.00154421e+02
520             	3.00154423e+02
521             	3.00154415e+02
522             	3.00154428e+02
523             	3.00154415e+02
524             	3.00154430e+02
525             	3.00154426e+02
526             	3.00154434e+02
527             	3.00154430e+02
528             	3.00154447e+02
529             	3.00154434e+02
530             	3.00154451e+02
531             	3.00154448e+02
532             	3.00154457e+02
533             	3.00154454e+02
534             	3.00154465e+02
535             	3.00154454e+02
536             	3.00154471e+02
537             	3.00154465e+02
538             	3.00154470e+02
539             	3.00154463e+02
540             	3.00154476e+02
541             	3.00154462e+02
542             	3.00154476e+02
543             	3.00154468e+02
544             	3.00154472e+02
545             	3.00154464e+02
546             	3.00154478e+02
547             	3.00154463e+02
548             	3.00154471e+02
549             	3.00154462e+02
550             	3.00154467e+02
551             	3.00154459e+02
552             	3.00154473e+02
553             	3.00154460e+02
554             	3.00154474e+02
555             	3.00154469e+02
556             	3.00154475e+02
557             	3.00154468e+02
558             	3.00154479e+02
559             	3.00154464e+02
560             	3.00154477e+02
561             	3.00154469e+02
562             	3.00154475e+02
563             	3.00154468e+02
564             	3.00154483e+02
565             	3.00154470e+02
566             	3.00154483e+02
567             	3.00154476e+02
568             	3.00154482e+02
569             	3.00154474e+02
570             	3.00154486e+02
571             	3.00154470e+02
572             	3.00154482e+02
573             	3.00154473e+02
574             	3.00154478e+02
575             	3.00154469e+02
576             	3.00154480e+02
577             	3.00154466e+02
578             	3.00154479e+02
579             	3.00154471e+02
580             	3.00154477e+02
581             	3.00154469e+02
582             	3.00154482e+02
583             	3.00154468e+02
584             	3.00154480e+02
585             	3.00154472e+02
586             	3.00154478e+02
587             	3.00154471e+02
588             	3.00154486e+02
589             	3.00154472e+02
590             	3.00154487e+02
591             	3.00154480e+02
592             	3.00154487e+02
593             	3.00154480e+02
594             	3.00154495e+02
595             	3.00154481e+02
596             	3.00154495e+02
597             	3.00154489e+02
598             	3.00154495e+02
599             	3.00154489e+02
600             	3.00154502e+02
601             	3.00154487e+02
602             	3.00154500e+02
603             	3.00154492e+02
604             	3.00154497e+02
605             	3.00154490e+02
606             	3.00154502e+02
607             	3.00154487e+02
608             	3.00154500e+02
609             	3.00154492e+02
610             	3.00154497e+02
611             	3.00154489e+02
612             	3.00154502e+02
613             	3.00154486e+02
614             	3.00154499e+02
615             	3.00154491e+02
616             	3.00154496e+02
617             	3.00154488e+02
618             	3.00154501e+02
619             	3.00154486e+02
620             	3.00154499e+02
621             	3.00154492e+02
