# Region        : cellZone component_1
# Cells         : 70
# Volume        : 6.82938517e-02
# Time          	volAverage(T)
1               	3.03783566e+02
2               	3.07482173e+02
3               	3.10634295e+02
4               	3.13377485e+02
5               	3.15875272e+02
6               	3.18211646e+02
7               	3.20432404e+02
8               	3.22542008e+02
9               	3.24570734e+02
10              	3.26527729e+02
11              	3.28419723e+02
12              	3.30251804e+02
13              	3.32022975e+02
14              	3.33730983e+02
15              	3.35380058e+02
16              	3.37048902e+02
17              	3.38796954e+02
18              	3.40573011e+02
19              	3.42214279e+02
20              	3.43728843e+02
21              	3.45156640e+02
22              	3.46460027e+02
23              	3.47680619e+02
24              	3.48757241e+02
25              	3.49677976e+02
26              	3.50460222e+02
27              	3.51155913e+02
28              	3.51808741e+02
29              	3.52441968e+02
30              	3.53098565e+02
31              	3.53885822e+02
32              	3.54765232e+02
33              	3.55686826e+02
34              	3.56689395e+02
35              	3.57660921e+02
36              	3.58561102e+02
37              	3.59363763e+02
38              	3.60061588e+02
39              	3.60667555e+02
40              	3.61195312e+02
41              	3.61675702e+02
42              	3.62154020e+02
43              	3.62699819e+02
44              	3.63368441e+02
45              	3.64139025e+02
46              	3.64971749e+02
47              	3.65799076e+02
48              	3.66565237e+02
49              	3.67233851e+02
50              	3.67783570e+02
51              	3.68207826e+02
52              	3.68521007e+02
53              	3.68751358e+02
54              	3.68943473e+02
55              	3.69127799e+02
56              	3.69340292e+02
57              	3.69624907e+02
58              	3.69999361e+02
59              	3.70462505e+02
60              	3.70979619e+02
61              	3.71503938e+02
62              	3.72018849e+02
63              	3.72484446e+02
64              	3.72883939e+02
65              	3.73211244e+02
66              	3.73470475e+02
67              	3.73679079e+02
68              	3.73861285e+02
69              	3.74030601e+02
70              	3.74206507e+02
71              	3.74407376e+02
72              	3.74640240e+02
73              	3.74910049e+02
74              	3.75206988e+02
75              	3.75521962e+02
76              	3.75818075e+02
77              	3.76084190e+02
78              	3.76314198e+02
79              	3.76492687e+02
80              	3.76617030e+02
81              	3.76695345e+02
82              	3.76751025e+02
83              	3.76798320e+02
84              	3.76851606e+02
85              	3.76920657e+02
86              	3.77015920e+02
87              	3.77134403e+02
88              	3.77276207e+02
89              	3.77441684e+02
90              	3.77622347e+02
91              	3.77808336e+02
92              	3.77992427e+02
93              	3.78158917e+02
94              	3.78309673e+02
95              	3.78440522e+02
96              	3.78547167e+02
97              	3.78639068e+02
98              	3.78719546e+02
99              	3.78787648e+02
100             	3.78854711e+02
101             	3.78929401e+02
102             	3.79020860e+02
103             	3.79118239e+02
104             	3.79217401e+02
105             	3.79314097e+02
106             	3.79401365e+02
107             	3.79471742e+02
108             	3.79517619e+02
109             	3.79544060e+02
110             	3.79553578e+02
111             	3.79551124e+02
112             	3.79542407e+02
113             	3.79535372e+02
114             	3.79541034e+02
115             	3.79567064e+02
116             	3.79618308e+02
117             	3.79693042e+02
118             	3.79791609e+02
119             	3.79907385e+02
120             	3.80014863e+02
121             	3.80103822e+02
122             	3.80163990e+02
123             	3.80188894e+02
124             	3.80178934e+02
125             	3.80138497e+02
126             	3.80079756e+02
127             	3.80016977e+02
128             	3.79958607e+02
129             	3.79916348e+02
130             	3.79893155e+02
131             	3.79886699e+02
132             	3.79886203e+02
133             	3.79886162e+02
134             	3.79887529e+02
135             	3.79882993e+02
136             	3.79872216e+02
137             	3.79862065e+02
138             	3.79856796e+02
139             	3.79864987e+02
140             	3.79894107e+02
141             	3.79944693e+02
142             	3.80015951e+02
143             	3.80096244e+02
144             	3.80175193e+02
145             	3.80246421e+02
146             	3.80306700e+02
147             	3.80357885e+02
148             	3.80398523e+02
149             	3.80427236e+02
150             	3.80447224e+02
151             	3.80464772e+02
152             	3.80483033e+02
153             	3.80507706e+02
154             	3.80539919e+02
155             	3.80574912e+02
156             	3.80610912e+02
157             	3.80644814e+02
158             	3.80672091e+02
159             	3.80690829e+02
160             	3.80701451e+02
161             	3.80702736e+02
162             	3.80700987e+02
163             	3.80695490e+02
164             	3.80691418e+02
165             	3.80695674e+02
166             	3.80707272e+02
167             	3.80727872e+02
168             	3.80758363e+02
169             	3.80797100e+02
170             	3.80836728e+02
171             	3.80875512e+02
172             	3.80908969e+02
173             	3.80935814e+02
174             	3.80958831e+02
175             	3.80976747e+02
176             	3.80989476e+02
177             	3.81000716e+02
178             	3.81010783e+02
179             	3.81021454e+02
180             	3.81033857e+02
181             	3.81047086e+02
182             	3.81061392e+02
183             	3.81075799e+02
184             	3.81088265e+02
185             	3.81097045e+02
186             	3.81101645e+02
187             	3.81104056e+02
188             	3.81103032e+02
189             	3.81097118e+02
190             	3.81086999e+02
191             	3.81075148e+02
192             	3.81066490e+02
193             	3.81063034e+02
194             	3.81062504e+02
195             	3.81065783e+02
196             	3.81072155e+02
197             	3.81078286e+02
198             	3.81082885e+02
199             	3.81085843e+02
200             	3.81086042e+02
201             	3.81082266e+02
202             	3.81076331e+02
203             	3.81070421e+02
204             	3.81065296e+02
205             	3.81061696e+02
206             	3.81060277e+02
207             	3.81061093e+02
208             	3.81063530e+02
209             	3.81067139e+02
210             	3.81071168e+02
211             	3.81074388e+02
212             	3.81075617e+02
213             	3.81075246e+02
214             	3.81076265e+02
215             	3.81079086e+02
216             	3.81084610e+02
217             	3.81092222e+02
218             	3.81100661e+02
219             	3.81110932e+02
220             	3.81122726e+02
221             	3.81135915e+02
222             	3.81149044e+02
223             	3.81161817e+02
224             	3.81174010e+02
225             	3.81181207e+02
226             	3.81184089e+02
227             	3.81180912e+02
228             	3.81171347e+02
229             	3.81155626e+02
230             	3.81136938e+02
231             	3.81116745e+02
232             	3.81096830e+02
233             	3.81079254e+02
234             	3.81065686e+02
235             	3.81056947e+02
236             	3.81053017e+02
237             	3.81052724e+02
238             	3.81054138e+02
239             	3.81056391e+02
240             	3.81058688e+02
241             	3.81060398e+02
242             	3.81061235e+02
243             	3.81061371e+02
244             	3.81061512e+02
245             	3.81061910e+02
246             	3.81062978e+02
247             	3.81065855e+02
248             	3.81071708e+02
249             	3.81079785e+02
250             	3.81086927e+02
251             	3.81093696e+02
252             	3.81098574e+02
253             	3.81099587e+02
254             	3.81099193e+02
255             	3.81097614e+02
256             	3.81094903e+02
257             	3.81092175e+02
258             	3.81090704e+02
259             	3.81092680e+02
260             	3.81096487e+02
261             	3.81102362e+02
262             	3.81110095e+02
263             	3.81118579e+02
264             	3.81126132e+02
265             	3.81133889e+02
266             	3.81142132e+02
267             	3.81151437e+02
268             	3.81161124e+02
269             	3.81170890e+02
270             	3.81180061e+02
271             	3.81188108e+02
272             	3.81194927e+02
273             	3.81201375e+02
274             	3.81207359e+02
275             	3.81212651e+02
276             	3.81216884e+02
277             	3.81220115e+02
278             	3.81221315e+02
279             	3.81219522e+02
280             	3.81214647e+02
281             	3.81207316e+02
282             	3.81197201e+02
283             	3.81184822e+02
284             	3.81173293e+02
285             	3.81164817e+02
286             	3.81159821e+02
287             	3.81158166e+02
288             	3.81158864e+02
289             	3.81161675e+02
290             	3.81166727e+02
291             	3.81172130e+02
292             	3.81176344e+02
293             	3.81179096e+02
294             	3.81178715e+02
295             	3.81176022e+02
296             	3.81172089e+02
297             	3.81166685e+02
298             	3.81161056e+02
299             	3.81155271e+02
300             	3.81149554e+02
301             	3.81144803e+02
302             	3.81141200e+02
303             	3.81138197e+02
304             	3.81135552e+02
305             	3.81133583e+02
306             	3.81131779e+02
307             	3.81129936e+02
308             	3.81128196e+02
309             	3.81127150e+02
310             	3.81127592e+02
311             	3.81129858e+02
312             	3.81132966e+02
313             	3.81136616e+02
314             	3.81139983e+02
315             	3.81142842e+02
316             	3.81144469e+02
317             	3.81144540e+02
318             	3.81142944e+02
319             	3.81139341e+02
320             	3.81133807e+02
321             	3.81126984e+02
322             	3.81119846e+02
323             	3.81113493e+02
324             	3.81110047e+02
325             	3.81110023e+02
326             	3.81113644e+02
327             	3.81120033e+02
328             	3.81128152e+02
329             	3.81136411e+02
330             	3.81143972e+02
331             	3.81149885e+02
332             	3.81153148e+02
333             	3.81153462e+02
334             	3.81151096e+02
335             	3.81147061e+02
336             	3.81142291e+02
337             	3.81137551e+02
338             	3.81134264e+02
339             	3.81132976e+02
340             	3.81134191e+02
341             	3.81138098e+02
342             	3.81144334e+02
343             	3.81152307e+02
344             	3.81161189e+02
345             	3.81170223e+02
346             	3.81178598e+02
347             	3.81185810e+02
348             	3.81191671e+02
349             	3.81196215e+02
350             	3.81197527e+02
351             	3.81196337e+02
352             	3.81192314e+02
353             	3.81185715e+02
354             	3.81177374e+02
355             	3.81168548e+02
356             	3.81161425e+02
357             	3.81156742e+02
358             	3.81155360e+02
359             	3.81157706e+02
360             	3.81163093e+02
361             	3.81170127e+02
362             	3.81178482e+02
363             	3.81186485e+02
364             	3.81192095e+02
365             	3.81194875e+02
366             	3.81193706e+02
367             	3.81189031e+02
368             	3.81182111e+02
369             	3.81173620e+02
370             	3.81165161e+02
371             	3.81158495e+02
372             	3.81155169e+02
373             	3.81155681e+02
374             	3.81159933e+02
375             	3.81167286e+02
376             	3.81174692e+02
377             	3.81181524e+02
378             	3.81185583e+02
379             	3.81185940e+02
380             	3.81181795e+02
381             	3.81174404e+02
382             	3.81165633e+02
383             	3.81158790e+02
384             	3.81154787e+02
385             	3.81154808e+02
386             	3.81159072e+02
387             	3.81164599e+02
388             	3.81171819e+02
389             	3.81179398e+02
390             	3.81186082e+02
391             	3.81190745e+02
392             	3.81193044e+02
393             	3.81192421e+02
394             	3.81188806e+02
395             	3.81182596e+02
396             	3.81174598e+02
397             	3.81167525e+02
398             	3.81162077e+02
399             	3.81159117e+02
400             	3.81159018e+02
401             	3.81160461e+02
402             	3.81163412e+02
403             	3.81167173e+02
404             	3.81170895e+02
405             	3.81173914e+02
406             	3.81175661e+02
407             	3.81176192e+02
408             	3.81175473e+02
409             	3.81173979e+02
410             	3.81172161e+02
411             	3.81170443e+02
412             	3.81169432e+02
413             	3.81169381e+02
414             	3.81170173e+02
415             	3.81171649e+02
416             	3.81173535e+02
417             	3.81175379e+02
418             	3.81176896e+02
419             	3.81178104e+02
420             	3.81179139e+02
421             	3.81179986e+02
422             	3.81180849e+02
423             	3.81181835e+02
424             	3.81183048e+02
425             	3.81184573e+02
426             	3.81186482e+02
427             	3.81187778e+02
428             	3.81187875e+02
429             	3.81186588e+02
430             	3.81183603e+02
431             	3.81178785e+02
432             	3.81172741e+02
433             	3.81167679e+02
434             	3.81164068e+02
435             	3.81162785e+02
436             	3.81163935e+02
437             	3.81167249e+02
438             	3.81171017e+02
439             	3.81174722e+02
440             	3.81177480e+02
441             	3.81178570e+02
442             	3.81177477e+02
443             	3.81175000e+02
444             	3.81171368e+02
445             	3.81167110e+02
446             	3.81162792e+02
447             	3.81159107e+02
448             	3.81156626e+02
449             	3.81155687e+02
450             	3.81156477e+02
451             	3.81158847e+02
452             	3.81162391e+02
453             	3.81165723e+02
454             	3.81168393e+02
455             	3.81169974e+02
456             	3.81170165e+02
457             	3.81168951e+02
458             	3.81166817e+02
459             	3.81164543e+02
460             	3.81162581e+02
461             	3.81161347e+02
462             	3.81161034e+02
463             	3.81161550e+02
464             	3.81162784e+02
465             	3.81164702e+02
466             	3.81167087e+02
467             	3.81169693e+02
468             	3.81172423e+02
469             	3.81175410e+02
470             	3.81178443e+02
471             	3.81181635e+02
472             	3.81184288e+02
473             	3.81186393e+02
474             	3.81187698e+02
475             	3.81188035e+02
476             	3.81187381e+02
477             	3.81186379e+02
478             	3.81185103e+02
479             	3.81183679e+02
480             	3.81182328e+02
481             	3.81181422e+02
482             	3.81181253e+02
483             	3.81181889e+02
484             	3.81183085e+02
485             	3.81184297e+02
486             	3.81185512e+02
487             	3.81186538e+02
488             	3.81186957e+02
489             	3.81186486e+02
490             	3.81185540e+02
491             	3.81184103e+02
492             	3.81182410e+02
493             	3.81180832e+02
494             	3.81179608e+02
495             	3.81178932e+02
496             	3.81178898e+02
497             	3.81179399e+02
498             	3.81180202e+02
499             	3.81180960e+02
500             	3.81181610e+02
501             	3.81181921e+02
502             	3.81181888e+02
503             	3.81181548e+02
504             	3.81180988e+02
505             	3.81180319e+02
506             	3.81179507e+02
507             	3.81178716e+02
508             	3.81177965e+02
509             	3.81177131e+02
510             	3.81176360e+02
511             	3.81175872e+02
512             	3.81175799e+02
513             	3.81176166e+02
514             	3.81176979e+02
515             	3.81178262e+02
516             	3.81180002e+02
517             	3.81182083e+02
518             	3.81184219e+02
519             	3.81186058e+02
520             	3.81187338e+02
521             	3.81188099e+02
522             	3.81188214e+02
523             	3.81188119e+02
524             	3.81187928e+02
525             	3.81187796e+02
526             	3.81187909e+02
527             	3.81188429e+02
528             	3.81189310e+02
529             	3.81190229e+02
530             	3.81191134e+02
531             	3.81191748e+02
532             	3.81191895e+02
533             	3.81191428e+02
534             	3.81190277e+02
535             	3.81188615e+02
536             	3.81186807e+02
537             	3.81184930e+02
538             	3.81183146e+02
539             	3.81181610e+02
540             	3.81180644e+02
541             	3.81180380e+02
542             	3.81180717e+02
543             	3.81181517e+02
544             	3.81182611e+02
545             	3.81183972e+02
546             	3.81185494e+02
547             	3.81187029e+02
548             	3.81188410e+02
549             	3.81189443e+02
550             	3.81189911e+02
551             	3.81189837e+02
552             	3.81189218e+02
553             	3.81188169e+02
554             	3.81186821e+02
555             	3.81185250e+02
556             	3.81183456e+02
557             	3.81181886e+02
558             	3.81180526e+02
559             	3.81179573e+02
560             	3.81179316e+02
561             	3.81179722e+02
562             	3.81180525e+02
563             	3.81181564e+02
564             	3.81182689e+02
565             	3.81183547e+02
566             	3.81183889e+02
567             	3.81183711e+02
568             	3.81183199e+02
569             	3.81182603e+02
570             	3.81182059e+02
571             	3.81181762e+02
572             	3.81181843e+02
573             	3.81182235e+02
574             	3.81182635e+02
575             	3.81183127e+02
576             	3.81183576e+02
577             	3.81183849e+02
578             	3.81183878e+02
579             	3.81183556e+02
580             	3.81182897e+02
581             	3.81182031e+02
582             	3.81180975e+02
583             	3.81179818e+02
584             	3.81178765e+02
585             	3.81178043e+02
586             	3.81177879e+02
587             	3.81178385e+02
588             	3.81179531e+02
589             	3.81181227e+02
590             	3.81183122e+02
591             	3.81184707e+02
592             	3.81185889e+02
593             	3.81186513e+02
594             	3.81186510e+02
595             	3.81185904e+02
596             	3.81184830e+02
597             	3.81183472e+02
598             	3.81182095e+02
599             	3.81180846e+02
600             	3.81179815e+02
601             	3.81179095e+02
602             	3.81178752e+02
603             	3.81178680e+02
604             	3.81178879e+02
605             	3.81179353e+02
606             	3.81179973e+02
607             	3.81180663e+02
608             	3.81181441e+02
609             	3.81182318e+02
610             	3.81183177e+02
611             	3.81183780e+02
612             	3.81184085e+02
613             	3.81184007e+02
614             	3.81183664e+02
615             	3.81183170e+02
616             	3.81182469e+02
617             	3.81181870e+02
618             	3.81181454e+02
619             	3.81181373e+02
620             	3.81181756e+02
621             	3.81182558e+02
