# Region        : cellZone component_1
# Cells         : 112
# Volume        : 2.13751867e-01
# Time          	volAverage(T)
1               	3.02911429e+02
2               	3.05764005e+02
3               	3.08344500e+02
4               	3.10738360e+02
5               	3.13033471e+02
6               	3.15263405e+02
7               	3.17439228e+02
8               	3.19575239e+02
9               	3.21695199e+02
10              	3.23790955e+02
11              	3.25803611e+02
12              	3.27716334e+02
13              	3.29530136e+02
14              	3.31299257e+02
15              	3.33023309e+02
16              	3.34683614e+02
17              	3.36295169e+02
18              	3.37888382e+02
19              	3.39425267e+02
20              	3.40928094e+02
21              	3.42355577e+02
22              	3.43718064e+02
23              	3.45113052e+02
24              	3.46537927e+02
25              	3.48013894e+02
26              	3.49519196e+02
27              	3.51043655e+02
28              	3.52555268e+02
29              	3.54006674e+02
30              	3.55391765e+02
31              	3.56722340e+02
32              	3.57924683e+02
33              	3.59002422e+02
34              	3.60010308e+02
35              	3.60953167e+02
36              	3.61781583e+02
37              	3.62541638e+02
38              	3.63234711e+02
39              	3.63863483e+02
40              	3.64515315e+02
41              	3.65371961e+02
42              	3.66264473e+02
43              	3.67111010e+02
44              	3.67927366e+02
45              	3.68752986e+02
46              	3.69591505e+02
47              	3.70414639e+02
48              	3.71225908e+02
49              	3.72014507e+02
50              	3.72773789e+02
51              	3.73572316e+02
52              	3.74438255e+02
53              	3.75010999e+02
54              	3.75319142e+02
55              	3.75527815e+02
56              	3.75848521e+02
57              	3.76219627e+02
58              	3.76564637e+02
59              	3.76868960e+02
60              	3.77140069e+02
61              	3.77385156e+02
62              	3.77621803e+02
63              	3.77853371e+02
64              	3.78082609e+02
65              	3.78331729e+02
66              	3.78603751e+02
67              	3.78878896e+02
68              	3.79178922e+02
69              	3.79456398e+02
70              	3.79656619e+02
71              	3.79790361e+02
72              	3.79880872e+02
73              	3.80036529e+02
74              	3.80239769e+02
75              	3.80439207e+02
76              	3.80627435e+02
77              	3.80805584e+02
78              	3.80974435e+02
79              	3.81137096e+02
80              	3.81295582e+02
81              	3.81331894e+02
82              	3.81378244e+02
83              	3.81446280e+02
84              	3.81521813e+02
85              	3.81598188e+02
86              	3.81676936e+02
87              	3.81758144e+02
88              	3.81841283e+02
89              	3.81924688e+02
90              	3.82011355e+02
91              	3.82101850e+02
92              	3.82197725e+02
93              	3.82294751e+02
94              	3.82394427e+02
95              	3.82498411e+02
96              	3.82598645e+02
97              	3.82695738e+02
98              	3.82797238e+02
99              	3.82916502e+02
100             	3.83043712e+02
101             	3.83159976e+02
102             	3.83264569e+02
103             	3.83557754e+02
104             	3.83924168e+02
105             	3.84260476e+02
106             	3.84547612e+02
107             	3.84810018e+02
108             	3.85059065e+02
109             	3.85298046e+02
110             	3.85517036e+02
111             	3.85750109e+02
112             	3.85950373e+02
113             	3.86144578e+02
114             	3.86290521e+02
115             	3.86438644e+02
116             	3.86546365e+02
117             	3.86641754e+02
118             	3.86670197e+02
119             	3.86669456e+02
120             	3.86632033e+02
121             	3.86554610e+02
122             	3.86444776e+02
123             	3.86318657e+02
124             	3.86182224e+02
125             	3.86043291e+02
126             	3.85908974e+02
127             	3.85783791e+02
128             	3.85671578e+02
129             	3.85580360e+02
130             	3.85509273e+02
131             	3.85458433e+02
132             	3.85429952e+02
133             	3.85417503e+02
134             	3.85417027e+02
135             	3.85427197e+02
136             	3.85451964e+02
137             	3.85477430e+02
138             	3.85510849e+02
139             	3.85552087e+02
140             	3.85599560e+02
141             	3.85637035e+02
142             	3.85673854e+02
143             	3.85710486e+02
144             	3.85765343e+02
145             	3.85836490e+02
146             	3.85907414e+02
147             	3.85993622e+02
148             	3.86096576e+02
149             	3.86208740e+02
150             	3.86318940e+02
151             	3.86435713e+02
152             	3.86574371e+02
153             	3.86716232e+02
154             	3.86856110e+02
155             	3.86993625e+02
156             	3.87123975e+02
157             	3.87248891e+02
158             	3.87360306e+02
159             	3.87463392e+02
160             	3.87551536e+02
161             	3.87622462e+02
162             	3.87658062e+02
163             	3.87674309e+02
164             	3.87669848e+02
165             	3.87644158e+02
166             	3.87601775e+02
167             	3.87550885e+02
168             	3.87499983e+02
169             	3.87456859e+02
170             	3.87418513e+02
171             	3.87378810e+02
172             	3.87350840e+02
173             	3.87340129e+02
174             	3.87351250e+02
175             	3.87369018e+02
176             	3.87411429e+02
177             	3.87458361e+02
178             	3.87525668e+02
179             	3.87610480e+02
180             	3.87691025e+02
181             	3.87780349e+02
182             	3.87890890e+02
183             	3.88015481e+02
184             	3.88127858e+02
185             	3.88238522e+02
186             	3.88371469e+02
187             	3.88499875e+02
188             	3.88629303e+02
189             	3.88760916e+02
190             	3.88881399e+02
191             	3.88983436e+02
192             	3.89057470e+02
193             	3.89125187e+02
194             	3.89193361e+02
195             	3.89253479e+02
196             	3.89301511e+02
197             	3.89335324e+02
198             	3.89353320e+02
199             	3.89366264e+02
200             	3.89375725e+02
201             	3.89388737e+02
202             	3.89402836e+02
203             	3.89419554e+02
204             	3.89436877e+02
205             	3.89450189e+02
206             	3.89455619e+02
207             	3.89463469e+02
208             	3.89465394e+02
209             	3.89466540e+02
210             	3.89468136e+02
211             	3.89471800e+02
212             	3.89481844e+02
213             	3.89506663e+02
214             	3.89526083e+02
215             	3.89551783e+02
216             	3.89594221e+02
217             	3.89645076e+02
218             	3.89700638e+02
219             	3.89765540e+02
220             	3.89834986e+02
221             	3.89908296e+02
222             	3.89978566e+02
223             	3.90055290e+02
224             	3.90131447e+02
225             	3.90208641e+02
226             	3.90285293e+02
227             	3.90362001e+02
228             	3.90437968e+02
229             	3.90512531e+02
230             	3.90586422e+02
231             	3.90652798e+02
232             	3.90719285e+02
233             	3.90786490e+02
234             	3.90852639e+02
235             	3.90915841e+02
236             	3.90973820e+02
237             	3.91031313e+02
238             	3.91080954e+02
239             	3.91122253e+02
240             	3.91155370e+02
241             	3.91179710e+02
242             	3.91202602e+02
243             	3.91225000e+02
244             	3.91244169e+02
245             	3.91261120e+02
246             	3.91278282e+02
247             	3.91295093e+02
248             	3.91310532e+02
249             	3.91328514e+02
250             	3.91351069e+02
251             	3.91377499e+02
252             	3.91407689e+02
253             	3.91441511e+02
254             	3.91479256e+02
255             	3.91520799e+02
256             	3.91564398e+02
257             	3.91612111e+02
258             	3.91663143e+02
259             	3.91716468e+02
260             	3.91770896e+02
261             	3.91822700e+02
262             	3.91871860e+02
263             	3.91921097e+02
264             	3.91963804e+02
265             	3.92000142e+02
266             	3.92030651e+02
267             	3.92056168e+02
268             	3.92078421e+02
269             	3.92098195e+02
270             	3.92106283e+02
271             	3.92113834e+02
272             	3.92117426e+02
273             	3.92115061e+02
274             	3.92108720e+02
275             	3.92101571e+02
276             	3.92090265e+02
277             	3.92089130e+02
278             	3.92082301e+02
279             	3.92079240e+02
280             	3.92079993e+02
281             	3.92085783e+02
282             	3.92093195e+02
283             	3.92109037e+02
284             	3.92129390e+02
285             	3.92143325e+02
286             	3.92164219e+02
287             	3.92186897e+02
288             	3.92207331e+02
289             	3.92226576e+02
290             	3.92248600e+02
291             	3.92266198e+02
292             	3.92285024e+02
293             	3.92304233e+02
294             	3.92328630e+02
295             	3.92353167e+02
296             	3.92378620e+02
297             	3.92405310e+02
298             	3.92429209e+02
299             	3.92448290e+02
300             	3.92466045e+02
301             	3.92486632e+02
302             	3.92507242e+02
303             	3.92526218e+02
304             	3.92541244e+02
305             	3.92553765e+02
306             	3.92564765e+02
307             	3.92578398e+02
308             	3.92587414e+02
309             	3.92594048e+02
310             	3.92593965e+02
311             	3.92597530e+02
312             	3.92602404e+02
313             	3.92605845e+02
314             	3.92603358e+02
315             	3.92597312e+02
316             	3.92589740e+02
317             	3.92581600e+02
318             	3.92580382e+02
319             	3.92574554e+02
320             	3.92568423e+02
321             	3.92565046e+02
322             	3.92557623e+02
323             	3.92559752e+02
324             	3.92566228e+02
325             	3.92570455e+02
326             	3.92571688e+02
327             	3.92576444e+02
328             	3.92578036e+02
329             	3.92586785e+02
330             	3.92594854e+02
331             	3.92604501e+02
332             	3.92615918e+02
333             	3.92627459e+02
334             	3.92643578e+02
335             	3.92662322e+02
336             	3.92681625e+02
337             	3.92701024e+02
338             	3.92720493e+02
339             	3.92738484e+02
340             	3.92755304e+02
341             	3.92771704e+02
342             	3.92787289e+02
343             	3.92803675e+02
344             	3.92817432e+02
345             	3.92833123e+02
346             	3.92850108e+02
347             	3.92859879e+02
348             	3.92873415e+02
349             	3.92887579e+02
350             	3.92899231e+02
351             	3.92906721e+02
352             	3.92911208e+02
353             	3.92913340e+02
354             	3.92916634e+02
355             	3.92916253e+02
356             	3.92913522e+02
357             	3.92911569e+02
358             	3.92908252e+02
359             	3.92904425e+02
360             	3.92900538e+02
361             	3.92896685e+02
362             	3.92892504e+02
363             	3.92888030e+02
364             	3.92883780e+02
365             	3.92880329e+02
366             	3.92878672e+02
367             	3.92877729e+02
368             	3.92879586e+02
369             	3.92882741e+02
370             	3.92888251e+02
371             	3.92896732e+02
372             	3.92907665e+02
373             	3.92922728e+02
374             	3.92936693e+02
375             	3.92952041e+02
376             	3.92967968e+02
377             	3.92983510e+02
378             	3.92998115e+02
379             	3.93012239e+02
380             	3.93025381e+02
381             	3.93037028e+02
382             	3.93047089e+02
383             	3.93052901e+02
384             	3.93060275e+02
385             	3.93067613e+02
386             	3.93072414e+02
387             	3.93074555e+02
388             	3.93076701e+02
389             	3.93075801e+02
390             	3.93073293e+02
391             	3.93070690e+02
392             	3.93067903e+02
393             	3.93066138e+02
394             	3.93065849e+02
395             	3.93066468e+02
396             	3.93067371e+02
397             	3.93070567e+02
398             	3.93075433e+02
399             	3.93081756e+02
400             	3.93088964e+02
401             	3.93096885e+02
402             	3.93105156e+02
403             	3.93117617e+02
404             	3.93127977e+02
405             	3.93137874e+02
406             	3.93148338e+02
407             	3.93158915e+02
408             	3.93170223e+02
409             	3.93181765e+02
410             	3.93192241e+02
411             	3.93196301e+02
412             	3.93202805e+02
413             	3.93209461e+02
414             	3.93214057e+02
415             	3.93216266e+02
416             	3.93217290e+02
417             	3.93218310e+02
418             	3.93219949e+02
419             	3.93221633e+02
420             	3.93223739e+02
421             	3.93225897e+02
422             	3.93229280e+02
423             	3.93232326e+02
424             	3.93236605e+02
425             	3.93240611e+02
426             	3.93243152e+02
427             	3.93245268e+02
428             	3.93247200e+02
429             	3.93249256e+02
430             	3.93252289e+02
431             	3.93255268e+02
432             	3.93258089e+02
433             	3.93261249e+02
434             	3.93263443e+02
435             	3.93264942e+02
436             	3.93266797e+02
437             	3.93269566e+02
438             	3.93273038e+02
439             	3.93276979e+02
440             	3.93281990e+02
441             	3.93286612e+02
442             	3.93287790e+02
443             	3.93287934e+02
444             	3.93293167e+02
445             	3.93299240e+02
446             	3.93301159e+02
447             	3.93301521e+02
448             	3.93308070e+02
449             	3.93308170e+02
450             	3.93307281e+02
451             	3.93307908e+02
452             	3.93309825e+02
453             	3.93312672e+02
454             	3.93315407e+02
455             	3.93313053e+02
456             	3.93314572e+02
457             	3.93315027e+02
458             	3.93312763e+02
459             	3.93308119e+02
460             	3.93302414e+02
461             	3.93297224e+02
462             	3.93291462e+02
463             	3.93287061e+02
464             	3.93286018e+02
465             	3.93288035e+02
466             	3.93288577e+02
467             	3.93291338e+02
468             	3.93298736e+02
469             	3.93307035e+02
470             	3.93314853e+02
471             	3.93321319e+02
472             	3.93326027e+02
473             	3.93329968e+02
474             	3.93332037e+02
475             	3.93336497e+02
476             	3.93339911e+02
477             	3.93344637e+02
478             	3.93349088e+02
479             	3.93353865e+02
480             	3.93358967e+02
481             	3.93364520e+02
482             	3.93370168e+02
483             	3.93374563e+02
484             	3.93374978e+02
485             	3.93374028e+02
486             	3.93375240e+02
487             	3.93375390e+02
488             	3.93376278e+02
489             	3.93373793e+02
490             	3.93368749e+02
491             	3.93362851e+02
492             	3.93357333e+02
493             	3.93353034e+02
494             	3.93350852e+02
495             	3.93350930e+02
496             	3.93351501e+02
497             	3.93352566e+02
498             	3.93355001e+02
499             	3.93356693e+02
500             	3.93359149e+02
501             	3.93360944e+02
502             	3.93364120e+02
503             	3.93368219e+02
504             	3.93373303e+02
505             	3.93377678e+02
506             	3.93381748e+02
507             	3.93385786e+02
508             	3.93389856e+02
509             	3.93393688e+02
510             	3.93396490e+02
511             	3.93398001e+02
512             	3.93399340e+02
513             	3.93400175e+02
514             	3.93400336e+02
515             	3.93399614e+02
516             	3.93398760e+02
517             	3.93397716e+02
518             	3.93396119e+02
519             	3.93394513e+02
520             	3.93391204e+02
521             	3.93389044e+02
522             	3.93387255e+02
523             	3.93385739e+02
524             	3.93384307e+02
525             	3.93382847e+02
526             	3.93381985e+02
527             	3.93381515e+02
528             	3.93381870e+02
529             	3.93383182e+02
530             	3.93385162e+02
531             	3.93387743e+02
532             	3.93390821e+02
533             	3.93392898e+02
534             	3.93396667e+02
535             	3.93400395e+02
536             	3.93404338e+02
537             	3.93407874e+02
538             	3.93411146e+02
539             	3.93413507e+02
540             	3.93415329e+02
541             	3.93416813e+02
542             	3.93418763e+02
543             	3.93419773e+02
544             	3.93420218e+02
545             	3.93420292e+02
546             	3.93420233e+02
547             	3.93420371e+02
548             	3.93420092e+02
549             	3.93419752e+02
550             	3.93419084e+02
551             	3.93418062e+02
552             	3.93416802e+02
553             	3.93415461e+02
554             	3.93414270e+02
555             	3.93413356e+02
556             	3.93412767e+02
557             	3.93412636e+02
558             	3.93412564e+02
559             	3.93412788e+02
560             	3.93413385e+02
561             	3.93414360e+02
562             	3.93415514e+02
563             	3.93416789e+02
564             	3.93418140e+02
565             	3.93419487e+02
566             	3.93420787e+02
567             	3.93422176e+02
568             	3.93423379e+02
569             	3.93424470e+02
570             	3.93425536e+02
571             	3.93426586e+02
572             	3.93427477e+02
573             	3.93428452e+02
574             	3.93428840e+02
575             	3.93428895e+02
576             	3.93428819e+02
577             	3.93428587e+02
578             	3.93428294e+02
579             	3.93427958e+02
580             	3.93427472e+02
581             	3.93427195e+02
582             	3.93427069e+02
583             	3.93427198e+02
584             	3.93427255e+02
585             	3.93427458e+02
586             	3.93427819e+02
587             	3.93428327e+02
588             	3.93428844e+02
589             	3.93429556e+02
590             	3.93430070e+02
591             	3.93430770e+02
592             	3.93431473e+02
593             	3.93431998e+02
594             	3.93432336e+02
595             	3.93432804e+02
596             	3.93432847e+02
597             	3.93432645e+02
598             	3.93432304e+02
599             	3.93431837e+02
600             	3.93431188e+02
601             	3.93430576e+02
602             	3.93429788e+02
603             	3.93428942e+02
604             	3.93428145e+02
605             	3.93427398e+02
606             	3.93426773e+02
607             	3.93426287e+02
608             	3.93425989e+02
609             	3.93425917e+02
610             	3.93426106e+02
611             	3.93426526e+02
612             	3.93427192e+02
613             	3.93428025e+02
614             	3.93428984e+02
615             	3.93430109e+02
616             	3.93431316e+02
617             	3.93432628e+02
618             	3.93434088e+02
619             	3.93435559e+02
620             	3.93437004e+02
621             	3.93438585e+02
