# Region        : cellZone component_0
# Cells         : 312
# Volume        : 6.19703019e-01
# Time          	volAverage(T)
1               	3.00509445e+02
2               	3.01015036e+02
3               	3.01499934e+02
4               	3.01970054e+02
5               	3.02431586e+02
6               	3.02886087e+02
7               	3.03334628e+02
8               	3.03778729e+02
9               	3.04220193e+02
10              	3.04658643e+02
11              	3.05091246e+02
12              	3.05518942e+02
13              	3.05942498e+02
14              	3.06362118e+02
15              	3.06777178e+02
16              	3.07186301e+02
17              	3.07593292e+02
18              	3.07995156e+02
19              	3.08397357e+02
20              	3.08795685e+02
21              	3.09186440e+02
22              	3.09570109e+02
23              	3.09950713e+02
24              	3.10327020e+02
25              	3.10694560e+02
26              	3.11068718e+02
27              	3.11428781e+02
28              	3.11770425e+02
29              	3.12098413e+02
30              	3.12431797e+02
31              	3.12751043e+02
32              	3.13059080e+02
33              	3.13374578e+02
34              	3.13697266e+02
35              	3.14015111e+02
36              	3.14324348e+02
37              	3.14635472e+02
38              	3.14942609e+02
39              	3.15246317e+02
40              	3.15538924e+02
41              	3.15816666e+02
42              	3.16105840e+02
43              	3.16384467e+02
44              	3.16632292e+02
45              	3.16858894e+02
46              	3.17069091e+02
47              	3.17264927e+02
48              	3.17459012e+02
49              	3.17659655e+02
50              	3.17862376e+02
51              	3.18061832e+02
52              	3.18263533e+02
53              	3.18470112e+02
54              	3.18686210e+02
55              	3.18901554e+02
56              	3.19117792e+02
57              	3.19339615e+02
58              	3.19555977e+02
59              	3.19766851e+02
60              	3.19972441e+02
61              	3.20161219e+02
62              	3.20344248e+02
63              	3.20521296e+02
64              	3.20712874e+02
65              	3.20937353e+02
66              	3.21162571e+02
67              	3.21381342e+02
68              	3.21599333e+02
69              	3.21817659e+02
70              	3.22044999e+02
71              	3.22279313e+02
72              	3.22501251e+02
73              	3.22705820e+02
74              	3.22883175e+02
75              	3.23044034e+02
76              	3.23198964e+02
77              	3.23387817e+02
78              	3.23567677e+02
79              	3.23746352e+02
80              	3.23928682e+02
81              	3.24108605e+02
82              	3.24288911e+02
83              	3.24467986e+02
84              	3.24644526e+02
85              	3.24814783e+02
86              	3.24982986e+02
87              	3.25157569e+02
88              	3.25329921e+02
89              	3.25499954e+02
90              	3.25664544e+02
91              	3.25828830e+02
92              	3.25981487e+02
93              	3.26134991e+02
94              	3.26286384e+02
95              	3.26435665e+02
96              	3.26584292e+02
97              	3.26730816e+02
98              	3.26872589e+02
99              	3.27013095e+02
100             	3.27161430e+02
101             	3.27309217e+02
102             	3.27456346e+02
103             	3.27601542e+02
104             	3.27740463e+02
105             	3.27877612e+02
106             	3.28008800e+02
107             	3.28139475e+02
108             	3.28274337e+02
109             	3.28403537e+02
110             	3.28528155e+02
111             	3.28655748e+02
112             	3.28778859e+02
113             	3.28903360e+02
114             	3.29028721e+02
115             	3.29151286e+02
116             	3.29272786e+02
117             	3.29392830e+02
118             	3.29511027e+02
119             	3.29628696e+02
120             	3.29745760e+02
121             	3.29861443e+02
122             	3.29970845e+02
123             	3.30078155e+02
124             	3.30186816e+02
125             	3.30294205e+02
126             	3.30400383e+02
127             	3.30506953e+02
128             	3.30611857e+02
129             	3.30716312e+02
130             	3.30818270e+02
131             	3.30923824e+02
132             	3.31031120e+02
133             	3.31137190e+02
134             	3.31242745e+02
135             	3.31346369e+02
136             	3.31446967e+02
137             	3.31544645e+02
138             	3.31638342e+02
139             	3.31732367e+02
140             	3.31828566e+02
141             	3.31918980e+02
142             	3.32011925e+02
143             	3.32101288e+02
144             	3.32187007e+02
145             	3.32272849e+02
146             	3.32360566e+02
147             	3.32447958e+02
148             	3.32534845e+02
149             	3.32624635e+02
150             	3.32709538e+02
151             	3.32796467e+02
152             	3.32881065e+02
153             	3.32963019e+02
154             	3.33043503e+02
155             	3.33125933e+02
156             	3.33206827e+02
157             	3.33285073e+02
158             	3.33363697e+02
159             	3.33437477e+02
160             	3.33511236e+02
161             	3.33583856e+02
162             	3.33657700e+02
163             	3.33734374e+02
164             	3.33806948e+02
165             	3.33881388e+02
166             	3.33954696e+02
167             	3.34025879e+02
168             	3.34096153e+02
169             	3.34167433e+02
170             	3.34236297e+02
171             	3.34304790e+02
172             	3.34369096e+02
173             	3.34434797e+02
174             	3.34498137e+02
175             	3.34562967e+02
176             	3.34629737e+02
177             	3.34696426e+02
178             	3.34761441e+02
179             	3.34823174e+02
180             	3.34883106e+02
181             	3.34945233e+02
182             	3.35005713e+02
183             	3.35064328e+02
184             	3.35121172e+02
185             	3.35176895e+02
186             	3.35234826e+02
187             	3.35290244e+02
188             	3.35345781e+02
189             	3.35400521e+02
190             	3.35456908e+02
191             	3.35509433e+02
192             	3.35564177e+02
193             	3.35614917e+02
194             	3.35666136e+02
195             	3.35716953e+02
196             	3.35767779e+02
197             	3.35817899e+02
198             	3.35866814e+02
199             	3.35915050e+02
200             	3.35965469e+02
201             	3.36013723e+02
202             	3.36062390e+02
203             	3.36112956e+02
204             	3.36160421e+02
205             	3.36207632e+02
206             	3.36253797e+02
207             	3.36300491e+02
208             	3.36346590e+02
209             	3.36392450e+02
210             	3.36438018e+02
211             	3.36482771e+02
212             	3.36526449e+02
213             	3.36570822e+02
214             	3.36614360e+02
215             	3.36657578e+02
216             	3.36700355e+02
217             	3.36742511e+02
218             	3.36785860e+02
219             	3.36829051e+02
220             	3.36870164e+02
221             	3.36910534e+02
222             	3.36950548e+02
223             	3.36990674e+02
224             	3.37030494e+02
225             	3.37069811e+02
226             	3.37107464e+02
227             	3.37146591e+02
228             	3.37183458e+02
229             	3.37220368e+02
230             	3.37256867e+02
231             	3.37293081e+02
232             	3.37329024e+02
233             	3.37364155e+02
234             	3.37398352e+02
235             	3.37432767e+02
236             	3.37466799e+02
237             	3.37500705e+02
238             	3.37534525e+02
239             	3.37568497e+02
240             	3.37602509e+02
241             	3.37636428e+02
242             	3.37670104e+02
243             	3.37703359e+02
244             	3.37735540e+02
245             	3.37767244e+02
246             	3.37799702e+02
247             	3.37830627e+02
248             	3.37861614e+02
249             	3.37892044e+02
250             	3.37921882e+02
251             	3.37951475e+02
252             	3.37981724e+02
253             	3.38011445e+02
254             	3.38039819e+02
255             	3.38068475e+02
256             	3.38097014e+02
257             	3.38124619e+02
258             	3.38152433e+02
259             	3.38179427e+02
260             	3.38206275e+02
261             	3.38232983e+02
262             	3.38259282e+02
263             	3.38285310e+02
264             	3.38311032e+02
265             	3.38337352e+02
266             	3.38363447e+02
267             	3.38388294e+02
268             	3.38413350e+02
269             	3.38438380e+02
270             	3.38462855e+02
271             	3.38487071e+02
272             	3.38512150e+02
273             	3.38535833e+02
274             	3.38559301e+02
275             	3.38582448e+02
276             	3.38605339e+02
277             	3.38627927e+02
278             	3.38650994e+02
279             	3.38673088e+02
280             	3.38695085e+02
281             	3.38717035e+02
282             	3.38739066e+02
283             	3.38760921e+02
284             	3.38782444e+02
285             	3.38804722e+02
286             	3.38825628e+02
287             	3.38846329e+02
288             	3.38866891e+02
289             	3.38887132e+02
290             	3.38907248e+02
291             	3.38926720e+02
292             	3.38947163e+02
293             	3.38966654e+02
294             	3.38986084e+02
295             	3.39005567e+02
296             	3.39025083e+02
297             	3.39044247e+02
298             	3.39062749e+02
299             	3.39082110e+02
300             	3.39100247e+02
301             	3.39118315e+02
302             	3.39136096e+02
303             	3.39153683e+02
304             	3.39171060e+02
305             	3.39187754e+02
306             	3.39205466e+02
307             	3.39222257e+02
308             	3.39239055e+02
309             	3.39255869e+02
310             	3.39272691e+02
311             	3.39288988e+02
312             	3.39305085e+02
313             	3.39321914e+02
314             	3.39337686e+02
315             	3.39353339e+02
316             	3.39368791e+02
317             	3.39384097e+02
318             	3.39399166e+02
319             	3.39414556e+02
320             	3.39430107e+02
321             	3.39444901e+02
322             	3.39459722e+02
323             	3.39474497e+02
324             	3.39488856e+02
325             	3.39503174e+02
326             	3.39517249e+02
327             	3.39531258e+02
328             	3.39545098e+02
329             	3.39558815e+02
330             	3.39572420e+02
331             	3.39585941e+02
332             	3.39599125e+02
333             	3.39612793e+02
334             	3.39625814e+02
335             	3.39638806e+02
336             	3.39651745e+02
337             	3.39664652e+02
338             	3.39677582e+02
339             	3.39690446e+02
340             	3.39703219e+02
341             	3.39715724e+02
342             	3.39728097e+02
343             	3.39740356e+02
344             	3.39752978e+02
345             	3.39764896e+02
346             	3.39776809e+02
347             	3.39788617e+02
348             	3.39800342e+02
349             	3.39812191e+02
350             	3.39823913e+02
351             	3.39834999e+02
352             	3.39846005e+02
353             	3.39857010e+02
354             	3.39867665e+02
355             	3.39878813e+02
356             	3.39889245e+02
357             	3.39899515e+02
358             	3.39909779e+02
359             	3.39919957e+02
360             	3.39930405e+02
361             	3.39940380e+02
362             	3.39950660e+02
363             	3.39960492e+02
364             	3.39970217e+02
365             	3.39979974e+02
366             	3.39989615e+02
367             	3.39999017e+02
368             	3.40008733e+02
369             	3.40017897e+02
370             	3.40027005e+02
371             	3.40036063e+02
372             	3.40045012e+02
373             	3.40053901e+02
374             	3.40063034e+02
375             	3.40072152e+02
376             	3.40080782e+02
377             	3.40089339e+02
378             	3.40097905e+02
379             	3.40106444e+02
380             	3.40114749e+02
381             	3.40123030e+02
382             	3.40131199e+02
383             	3.40139283e+02
384             	3.40147319e+02
385             	3.40155227e+02
386             	3.40162909e+02
387             	3.40170581e+02
388             	3.40178632e+02
389             	3.40186294e+02
390             	3.40193974e+02
391             	3.40201611e+02
392             	3.40209221e+02
393             	3.40216626e+02
394             	3.40224339e+02
395             	3.40231582e+02
396             	3.40238668e+02
397             	3.40245667e+02
398             	3.40252577e+02
399             	3.40259248e+02
400             	3.40266322e+02
401             	3.40273000e+02
402             	3.40279707e+02
403             	3.40286424e+02
404             	3.40293116e+02
405             	3.40299635e+02
406             	3.40306450e+02
407             	3.40313178e+02
408             	3.40319391e+02
409             	3.40325580e+02
410             	3.40331712e+02
411             	3.40337602e+02
412             	3.40343544e+02
413             	3.40349459e+02
414             	3.40355398e+02
415             	3.40361336e+02
416             	3.40367279e+02
417             	3.40373226e+02
418             	3.40379080e+02
419             	3.40384857e+02
420             	3.40390855e+02
421             	3.40396429e+02
422             	3.40401963e+02
423             	3.40407413e+02
424             	3.40412796e+02
425             	3.40418080e+02
426             	3.40423518e+02
427             	3.40428989e+02
428             	3.40434143e+02
429             	3.40439321e+02
430             	3.40444505e+02
431             	3.40449677e+02
432             	3.40454711e+02
433             	3.40459974e+02
434             	3.40465160e+02
435             	3.40469980e+02
436             	3.40474781e+02
437             	3.40479524e+02
438             	3.40484121e+02
439             	3.40488972e+02
440             	3.40493837e+02
441             	3.40498439e+02
442             	3.40503071e+02
443             	3.40507696e+02
444             	3.40512264e+02
445             	3.40516773e+02
446             	3.40521508e+02
447             	3.40526035e+02
448             	3.40530241e+02
449             	3.40534403e+02
450             	3.40538682e+02
451             	3.40542661e+02
452             	3.40546740e+02
453             	3.40550929e+02
454             	3.40554977e+02
455             	3.40559071e+02
456             	3.40563155e+02
457             	3.40567186e+02
458             	3.40571147e+02
459             	3.40575291e+02
460             	3.40579274e+02
461             	3.40582954e+02
462             	3.40586600e+02
463             	3.40590185e+02
464             	3.40593614e+02
465             	3.40597373e+02
466             	3.40600942e+02
467             	3.40604508e+02
468             	3.40608100e+02
469             	3.40611725e+02
470             	3.40615378e+02
471             	3.40618921e+02
472             	3.40622604e+02
473             	3.40626037e+02
474             	3.40629394e+02
475             	3.40632683e+02
476             	3.40635921e+02
477             	3.40639117e+02
478             	3.40642369e+02
479             	3.40645544e+02
480             	3.40648546e+02
481             	3.40651551e+02
482             	3.40654567e+02
483             	3.40657592e+02
484             	3.40660623e+02
485             	3.40663661e+02
486             	3.40666698e+02
487             	3.40669729e+02
488             	3.40672828e+02
489             	3.40675761e+02
490             	3.40678800e+02
491             	3.40681635e+02
492             	3.40684458e+02
493             	3.40687265e+02
494             	3.40690066e+02
495             	3.40692906e+02
496             	3.40695745e+02
497             	3.40698453e+02
498             	3.40701137e+02
499             	3.40703817e+02
500             	3.40706474e+02
501             	3.40709188e+02
502             	3.40711694e+02
503             	3.40714154e+02
504             	3.40716608e+02
505             	3.40719050e+02
506             	3.40721484e+02
507             	3.40723902e+02
508             	3.40726387e+02
509             	3.40728851e+02
510             	3.40731179e+02
511             	3.40733518e+02
512             	3.40735855e+02
513             	3.40738184e+02
514             	3.40740502e+02
515             	3.40742893e+02
516             	3.40745273e+02
517             	3.40747482e+02
518             	3.40749679e+02
519             	3.40751847e+02
520             	3.40754093e+02
521             	3.40756303e+02
522             	3.40758390e+02
523             	3.40760445e+02
524             	3.40762468e+02
525             	3.40764560e+02
526             	3.40766673e+02
527             	3.40768692e+02
528             	3.40770715e+02
529             	3.40772720e+02
530             	3.40774703e+02
531             	3.40776709e+02
532             	3.40778688e+02
533             	3.40780520e+02
534             	3.40782358e+02
535             	3.40784187e+02
536             	3.40786013e+02
537             	3.40787807e+02
538             	3.40789672e+02
539             	3.40791451e+02
540             	3.40793235e+02
541             	3.40795018e+02
542             	3.40796791e+02
543             	3.40798567e+02
544             	3.40800337e+02
545             	3.40802074e+02
546             	3.40803877e+02
547             	3.40805649e+02
548             	3.40807307e+02
549             	3.40808948e+02
550             	3.40810572e+02
551             	3.40812180e+02
552             	3.40813817e+02
553             	3.40815435e+02
554             	3.40817054e+02
555             	3.40818672e+02
556             	3.40820207e+02
557             	3.40821744e+02
558             	3.40823278e+02
559             	3.40824851e+02
560             	3.40826398e+02
561             	3.40827920e+02
562             	3.40829332e+02
563             	3.40830736e+02
564             	3.40832130e+02
565             	3.40833516e+02
566             	3.40834938e+02
567             	3.40836366e+02
568             	3.40837715e+02
569             	3.40839050e+02
570             	3.40840396e+02
571             	3.40841727e+02
572             	3.40843054e+02
573             	3.40844431e+02
574             	3.40845785e+02
575             	3.40847027e+02
576             	3.40848254e+02
577             	3.40849461e+02
578             	3.40850704e+02
579             	3.40851929e+02
580             	3.40853127e+02
581             	3.40854338e+02
582             	3.40855514e+02
583             	3.40856707e+02
584             	3.40857952e+02
585             	3.40859119e+02
586             	3.40860327e+02
587             	3.40861455e+02
588             	3.40862553e+02
589             	3.40863634e+02
590             	3.40864699e+02
591             	3.40865740e+02
592             	3.40866760e+02
593             	3.40867819e+02
594             	3.40868839e+02
595             	3.40869885e+02
596             	3.40870944e+02
597             	3.40872003e+02
598             	3.40873034e+02
599             	3.40874102e+02
600             	3.40875106e+02
601             	3.40876083e+02
602             	3.40877049e+02
603             	3.40878007e+02
604             	3.40878929e+02
605             	3.40879893e+02
606             	3.40880863e+02
607             	3.40881798e+02
608             	3.40882744e+02
609             	3.40883690e+02
610             	3.40884632e+02
611             	3.40885565e+02
612             	3.40886535e+02
613             	3.40887483e+02
614             	3.40888347e+02
615             	3.40889194e+02
616             	3.40890064e+02
617             	3.40890884e+02
618             	3.40891723e+02
619             	3.40892558e+02
620             	3.40893374e+02
621             	3.40894206e+02
