# Region        : cellZone component_0
# Cells         : 174
# Volume        : 3.07874632e-01
# Time          	volAverage(T)
1               	3.00221340e+02
2               	3.00439016e+02
3               	3.00642602e+02
4               	3.00837278e+02
5               	3.01027209e+02
6               	3.01213878e+02
7               	3.01398246e+02
8               	3.01581673e+02
9               	3.01763091e+02
10              	3.01943011e+02
11              	3.02120237e+02
12              	3.02293379e+02
13              	3.02465420e+02
14              	3.02634204e+02
15              	3.02800849e+02
16              	3.02966440e+02
17              	3.03131748e+02
18              	3.03296215e+02
19              	3.03458417e+02
20              	3.03618987e+02
21              	3.03777843e+02
22              	3.03934212e+02
23              	3.04088291e+02
24              	3.04239766e+02
25              	3.04388000e+02
26              	3.04533219e+02
27              	3.04674495e+02
28              	3.04814294e+02
29              	3.04951705e+02
30              	3.05086435e+02
31              	3.05215700e+02
32              	3.05343684e+02
33              	3.05468333e+02
34              	3.05584809e+02
35              	3.05695953e+02
36              	3.05801533e+02
37              	3.05899110e+02
38              	3.05998615e+02
39              	3.06100532e+02
40              	3.06201566e+02
41              	3.06301033e+02
42              	3.06398729e+02
43              	3.06497127e+02
44              	3.06594316e+02
45              	3.06689373e+02
46              	3.06781409e+02
47              	3.06871280e+02
48              	3.06958383e+02
49              	3.07040989e+02
50              	3.07123300e+02
51              	3.07202978e+02
52              	3.07281623e+02
53              	3.07354735e+02
54              	3.07424185e+02
55              	3.07490945e+02
56              	3.07556349e+02
57              	3.07619739e+02
58              	3.07679093e+02
59              	3.07737171e+02
60              	3.07794877e+02
61              	3.07854163e+02
62              	3.07913171e+02
63              	3.07971560e+02
64              	3.08029242e+02
65              	3.08083705e+02
66              	3.08136140e+02
67              	3.08188636e+02
68              	3.08240612e+02
69              	3.08291012e+02
70              	3.08338216e+02
71              	3.08384661e+02
72              	3.08429276e+02
73              	3.08474382e+02
74              	3.08519552e+02
75              	3.08564103e+02
76              	3.08608309e+02
77              	3.08651194e+02
78              	3.08693864e+02
79              	3.08733783e+02
80              	3.08773748e+02
81              	3.08814267e+02
82              	3.08852826e+02
83              	3.08890558e+02
84              	3.08927350e+02
85              	3.08963448e+02
86              	3.08999055e+02
87              	3.09033870e+02
88              	3.09067698e+02
89              	3.09100605e+02
90              	3.09132629e+02
91              	3.09163738e+02
92              	3.09193764e+02
93              	3.09223709e+02
94              	3.09252997e+02
95              	3.09281457e+02
96              	3.09309235e+02
97              	3.09336554e+02
98              	3.09363377e+02
99              	3.09389406e+02
100             	3.09414916e+02
101             	3.09439955e+02
102             	3.09464836e+02
103             	3.09489286e+02
104             	3.09513644e+02
105             	3.09538702e+02
106             	3.09562295e+02
107             	3.09585167e+02
108             	3.09607747e+02
109             	3.09629801e+02
110             	3.09651381e+02
111             	3.09672165e+02
112             	3.09692046e+02
113             	3.09711831e+02
114             	3.09731324e+02
115             	3.09750735e+02
116             	3.09769991e+02
117             	3.09789127e+02
118             	3.09808102e+02
119             	3.09826847e+02
120             	3.09845085e+02
121             	3.09862812e+02
122             	3.09880248e+02
123             	3.09897849e+02
124             	3.09915105e+02
125             	3.09931346e+02
126             	3.09947122e+02
127             	3.09962466e+02
128             	3.09977431e+02
129             	3.09992110e+02
130             	3.10006782e+02
131             	3.10021310e+02
132             	3.10035827e+02
133             	3.10050510e+02
134             	3.10065239e+02
135             	3.10079795e+02
136             	3.10094066e+02
137             	3.10107829e+02
138             	3.10121262e+02
139             	3.10133966e+02
140             	3.10146351e+02
141             	3.10158392e+02
142             	3.10170021e+02
143             	3.10181356e+02
144             	3.10192569e+02
145             	3.10203692e+02
146             	3.10214662e+02
147             	3.10225735e+02
148             	3.10236713e+02
149             	3.10247841e+02
150             	3.10259064e+02
151             	3.10270187e+02
152             	3.10281143e+02
153             	3.10291770e+02
154             	3.10301898e+02
155             	3.10311550e+02
156             	3.10320781e+02
157             	3.10329720e+02
158             	3.10338313e+02
159             	3.10346541e+02
160             	3.10354706e+02
161             	3.10363223e+02
162             	3.10371988e+02
163             	3.10380779e+02
164             	3.10389599e+02
165             	3.10398271e+02
166             	3.10406978e+02
167             	3.10415466e+02
168             	3.10423643e+02
169             	3.10431479e+02
170             	3.10439065e+02
171             	3.10446400e+02
172             	3.10453640e+02
173             	3.10461121e+02
174             	3.10468250e+02
175             	3.10475258e+02
176             	3.10482249e+02
177             	3.10489006e+02
178             	3.10495767e+02
179             	3.10502368e+02
180             	3.10508894e+02
181             	3.10515338e+02
182             	3.10521801e+02
183             	3.10528136e+02
184             	3.10534411e+02
185             	3.10540636e+02
186             	3.10546743e+02
187             	3.10552832e+02
188             	3.10558735e+02
189             	3.10564515e+02
190             	3.10570174e+02
191             	3.10575589e+02
192             	3.10580851e+02
193             	3.10585957e+02
194             	3.10591276e+02
195             	3.10596143e+02
196             	3.10601104e+02
197             	3.10606219e+02
198             	3.10611384e+02
199             	3.10616496e+02
200             	3.10621351e+02
201             	3.10626104e+02
202             	3.10630699e+02
203             	3.10635149e+02
204             	3.10639435e+02
205             	3.10643664e+02
206             	3.10647861e+02
207             	3.10652027e+02
208             	3.10656208e+02
209             	3.10660357e+02
210             	3.10664517e+02
211             	3.10668675e+02
212             	3.10672771e+02
213             	3.10676769e+02
214             	3.10680645e+02
215             	3.10684330e+02
216             	3.10687946e+02
217             	3.10691511e+02
218             	3.10694999e+02
219             	3.10698429e+02
220             	3.10701811e+02
221             	3.10705136e+02
222             	3.10708431e+02
223             	3.10711645e+02
224             	3.10714800e+02
225             	3.10717893e+02
226             	3.10720934e+02
227             	3.10723960e+02
228             	3.10727021e+02
229             	3.10729990e+02
230             	3.10732944e+02
231             	3.10735913e+02
232             	3.10738908e+02
233             	3.10741806e+02
234             	3.10744604e+02
235             	3.10747397e+02
236             	3.10749970e+02
237             	3.10752425e+02
238             	3.10754835e+02
239             	3.10757218e+02
240             	3.10759578e+02
241             	3.10761930e+02
242             	3.10764327e+02
243             	3.10766816e+02
244             	3.10769240e+02
245             	3.10771713e+02
246             	3.10774070e+02
247             	3.10776407e+02
248             	3.10778705e+02
249             	3.10780935e+02
250             	3.10783106e+02
251             	3.10785176e+02
252             	3.10787200e+02
253             	3.10789206e+02
254             	3.10791186e+02
255             	3.10793130e+02
256             	3.10795030e+02
257             	3.10796889e+02
258             	3.10798718e+02
259             	3.10800514e+02
260             	3.10802307e+02
261             	3.10804103e+02
262             	3.10805892e+02
263             	3.10807688e+02
264             	3.10809407e+02
265             	3.10811127e+02
266             	3.10812806e+02
267             	3.10814426e+02
268             	3.10815993e+02
269             	3.10817531e+02
270             	3.10819077e+02
271             	3.10820623e+02
272             	3.10822148e+02
273             	3.10823668e+02
274             	3.10825173e+02
275             	3.10826661e+02
276             	3.10828115e+02
277             	3.10829520e+02
278             	3.10830882e+02
279             	3.10832225e+02
280             	3.10833543e+02
281             	3.10834837e+02
282             	3.10836121e+02
283             	3.10837414e+02
284             	3.10838721e+02
285             	3.10840021e+02
286             	3.10841254e+02
287             	3.10842484e+02
288             	3.10843685e+02
289             	3.10844850e+02
290             	3.10845983e+02
291             	3.10847078e+02
292             	3.10848168e+02
293             	3.10849249e+02
294             	3.10850319e+02
295             	3.10851378e+02
296             	3.10852428e+02
297             	3.10853441e+02
298             	3.10854438e+02
299             	3.10855438e+02
300             	3.10856434e+02
301             	3.10857415e+02
302             	3.10858382e+02
303             	3.10859332e+02
304             	3.10860222e+02
305             	3.10861106e+02
306             	3.10861980e+02
307             	3.10862843e+02
308             	3.10863688e+02
309             	3.10864519e+02
310             	3.10865343e+02
311             	3.10866144e+02
312             	3.10866950e+02
313             	3.10867760e+02
314             	3.10868567e+02
315             	3.10869363e+02
316             	3.10870154e+02
317             	3.10870935e+02
318             	3.10871690e+02
319             	3.10872436e+02
320             	3.10873164e+02
321             	3.10873882e+02
322             	3.10874562e+02
323             	3.10875219e+02
324             	3.10875872e+02
325             	3.10876522e+02
326             	3.10877165e+02
327             	3.10877796e+02
328             	3.10878424e+02
329             	3.10879051e+02
330             	3.10879687e+02
331             	3.10880324e+02
332             	3.10880949e+02
333             	3.10881552e+02
334             	3.10882131e+02
335             	3.10882689e+02
336             	3.10883233e+02
337             	3.10883755e+02
338             	3.10884264e+02
339             	3.10884768e+02
340             	3.10885269e+02
341             	3.10885775e+02
342             	3.10886289e+02
343             	3.10886806e+02
344             	3.10887319e+02
345             	3.10887818e+02
346             	3.10888301e+02
347             	3.10888771e+02
348             	3.10889235e+02
349             	3.10889679e+02
350             	3.10890120e+02
351             	3.10890557e+02
352             	3.10890988e+02
353             	3.10891411e+02
354             	3.10891835e+02
355             	3.10892253e+02
356             	3.10892668e+02
357             	3.10893085e+02
358             	3.10893488e+02
359             	3.10893888e+02
360             	3.10894273e+02
361             	3.10894648e+02
362             	3.10895018e+02
363             	3.10895380e+02
364             	3.10895735e+02
365             	3.10896085e+02
366             	3.10896434e+02
367             	3.10896782e+02
368             	3.10897128e+02
369             	3.10897472e+02
370             	3.10897812e+02
371             	3.10898146e+02
372             	3.10898474e+02
373             	3.10898797e+02
374             	3.10899116e+02
375             	3.10899430e+02
376             	3.10899732e+02
377             	3.10900031e+02
378             	3.10900326e+02
379             	3.10900614e+02
380             	3.10900898e+02
381             	3.10901178e+02
382             	3.10901452e+02
383             	3.10901722e+02
384             	3.10901992e+02
385             	3.10902258e+02
386             	3.10902522e+02
387             	3.10902785e+02
388             	3.10903044e+02
389             	3.10903301e+02
390             	3.10903555e+02
391             	3.10903804e+02
392             	3.10904048e+02
393             	3.10904283e+02
394             	3.10904516e+02
395             	3.10904744e+02
396             	3.10904967e+02
397             	3.10905185e+02
398             	3.10905400e+02
399             	3.10905611e+02
400             	3.10905822e+02
401             	3.10906030e+02
402             	3.10906238e+02
403             	3.10906444e+02
404             	3.10906646e+02
405             	3.10906845e+02
406             	3.10907040e+02
407             	3.10907232e+02
408             	3.10907419e+02
409             	3.10907602e+02
410             	3.10907783e+02
411             	3.10907961e+02
412             	3.10908136e+02
413             	3.10908310e+02
414             	3.10908482e+02
415             	3.10908653e+02
416             	3.10908818e+02
417             	3.10908982e+02
418             	3.10909144e+02
419             	3.10909302e+02
420             	3.10909458e+02
421             	3.10909610e+02
422             	3.10909761e+02
423             	3.10909909e+02
424             	3.10910055e+02
425             	3.10910200e+02
426             	3.10910343e+02
427             	3.10910485e+02
428             	3.10910626e+02
429             	3.10910766e+02
430             	3.10910901e+02
431             	3.10911036e+02
432             	3.10911167e+02
433             	3.10911296e+02
434             	3.10911424e+02
435             	3.10911548e+02
436             	3.10911671e+02
437             	3.10911792e+02
438             	3.10911911e+02
439             	3.10912028e+02
440             	3.10912144e+02
441             	3.10912258e+02
442             	3.10912369e+02
443             	3.10912479e+02
444             	3.10912587e+02
445             	3.10912694e+02
446             	3.10912800e+02
447             	3.10912904e+02
448             	3.10913008e+02
449             	3.10913110e+02
450             	3.10913210e+02
451             	3.10913309e+02
452             	3.10913406e+02
453             	3.10913501e+02
454             	3.10913595e+02
455             	3.10913685e+02
456             	3.10913775e+02
457             	3.10913864e+02
458             	3.10913952e+02
459             	3.10914040e+02
460             	3.10914126e+02
461             	3.10914210e+02
462             	3.10914294e+02
463             	3.10914377e+02
464             	3.10914458e+02
465             	3.10914538e+02
466             	3.10914617e+02
467             	3.10914695e+02
468             	3.10914774e+02
469             	3.10914851e+02
470             	3.10914927e+02
471             	3.10915002e+02
472             	3.10915075e+02
473             	3.10915148e+02
474             	3.10915219e+02
475             	3.10915289e+02
476             	3.10915358e+02
477             	3.10915425e+02
478             	3.10915492e+02
479             	3.10915557e+02
480             	3.10915622e+02
481             	3.10915686e+02
482             	3.10915749e+02
483             	3.10915812e+02
484             	3.10915874e+02
485             	3.10915935e+02
486             	3.10915995e+02
487             	3.10916055e+02
488             	3.10916113e+02
489             	3.10916171e+02
490             	3.10916227e+02
491             	3.10916283e+02
492             	3.10916338e+02
493             	3.10916391e+02
494             	3.10916444e+02
495             	3.10916496e+02
496             	3.10916548e+02
497             	3.10916598e+02
498             	3.10916648e+02
499             	3.10916697e+02
500             	3.10916745e+02
501             	3.10916793e+02
502             	3.10916840e+02
503             	3.10916887e+02
504             	3.10916933e+02
505             	3.10916978e+02
506             	3.10917022e+02
507             	3.10917066e+02
508             	3.10917110e+02
509             	3.10917153e+02
510             	3.10917195e+02
511             	3.10917236e+02
512             	3.10917276e+02
513             	3.10917316e+02
514             	3.10917356e+02
515             	3.10917394e+02
516             	3.10917433e+02
517             	3.10917470e+02
518             	3.10917507e+02
519             	3.10917544e+02
520             	3.10917580e+02
521             	3.10917616e+02
522             	3.10917651e+02
523             	3.10917685e+02
524             	3.10917719e+02
525             	3.10917752e+02
526             	3.10917785e+02
527             	3.10917818e+02
528             	3.10917850e+02
529             	3.10917882e+02
530             	3.10917914e+02
531             	3.10917945e+02
532             	3.10917975e+02
533             	3.10918006e+02
534             	3.10918036e+02
535             	3.10918065e+02
536             	3.10918094e+02
537             	3.10918122e+02
538             	3.10918150e+02
539             	3.10918178e+02
540             	3.10918205e+02
541             	3.10918231e+02
542             	3.10918257e+02
543             	3.10918282e+02
544             	3.10918308e+02
545             	3.10918333e+02
546             	3.10918358e+02
547             	3.10918382e+02
548             	3.10918406e+02
549             	3.10918430e+02
550             	3.10918453e+02
551             	3.10918476e+02
552             	3.10918499e+02
553             	3.10918521e+02
554             	3.10918543e+02
555             	3.10918565e+02
556             	3.10918586e+02
557             	3.10918607e+02
558             	3.10918628e+02
559             	3.10918649e+02
560             	3.10918669e+02
561             	3.10918689e+02
562             	3.10918708e+02
563             	3.10918728e+02
564             	3.10918746e+02
565             	3.10918765e+02
566             	3.10918783e+02
567             	3.10918801e+02
568             	3.10918819e+02
569             	3.10918837e+02
570             	3.10918855e+02
571             	3.10918872e+02
572             	3.10918889e+02
573             	3.10918906e+02
574             	3.10918923e+02
575             	3.10918939e+02
576             	3.10918955e+02
577             	3.10918970e+02
578             	3.10918985e+02
579             	3.10919001e+02
580             	3.10919015e+02
581             	3.10919029e+02
582             	3.10919044e+02
583             	3.10919058e+02
584             	3.10919072e+02
585             	3.10919085e+02
586             	3.10919099e+02
587             	3.10919112e+02
588             	3.10919125e+02
589             	3.10919139e+02
590             	3.10919152e+02
591             	3.10919165e+02
592             	3.10919178e+02
593             	3.10919190e+02
594             	3.10919203e+02
595             	3.10919216e+02
596             	3.10919228e+02
597             	3.10919240e+02
598             	3.10919252e+02
599             	3.10919252e+02
600             	3.10919263e+02
601             	3.10919275e+02
602             	3.10919286e+02
603             	3.10919286e+02
604             	3.10919286e+02
605             	3.10919297e+02
606             	3.10919308e+02
607             	3.10919319e+02
608             	3.10919319e+02
609             	3.10919319e+02
610             	3.10919330e+02
611             	3.10919341e+02
612             	3.10919341e+02
613             	3.10919341e+02
614             	3.10919351e+02
615             	3.10919362e+02
616             	3.10919362e+02
617             	3.10919362e+02
618             	3.10919372e+02
619             	3.10919382e+02
620             	3.10919392e+02
621             	3.10919392e+02
