# Region        : cellZone component_1
# Cells         : 29
# Volume        : 4.51353089e-02
# Time          	volAverage(T)
1               	3.10239030e+02
2               	3.20116617e+02
3               	3.27576587e+02
4               	3.33743412e+02
5               	3.39746757e+02
6               	3.45830646e+02
7               	3.51865613e+02
8               	3.57722317e+02
9               	3.63390317e+02
10              	3.68868734e+02
11              	3.74054139e+02
12              	3.79197740e+02
13              	3.84240565e+02
14              	3.89480065e+02
15              	3.93424802e+02
16              	3.96567672e+02
17              	3.99054486e+02
18              	4.01764469e+02
19              	4.04683217e+02
20              	4.07793707e+02
21              	4.11273409e+02
22              	4.14970896e+02
23              	4.18643231e+02
24              	4.22162830e+02
25              	4.25562843e+02
26              	4.28832285e+02
27              	4.31950085e+02
28              	4.34948353e+02
29              	4.37863189e+02
30              	4.40783407e+02
31              	4.43508666e+02
32              	4.45963499e+02
33              	4.48165847e+02
34              	4.50278043e+02
35              	4.52570270e+02
36              	4.54907921e+02
37              	4.56605771e+02
38              	4.57516521e+02
39              	4.58235225e+02
40              	4.59311581e+02
41              	4.60698624e+02
42              	4.62000830e+02
43              	4.63345676e+02
44              	4.64502024e+02
45              	4.65831740e+02
46              	4.67651552e+02
47              	4.69382348e+02
48              	4.71649545e+02
49              	4.73243717e+02
50              	4.74405100e+02
51              	4.75410701e+02
52              	4.76483475e+02
53              	4.77497163e+02
54              	4.78300778e+02
55              	4.78752924e+02
56              	4.78951623e+02
57              	4.79152568e+02
58              	4.79484435e+02
59              	4.79733795e+02
60              	4.79746228e+02
61              	4.79872524e+02
62              	4.80118935e+02
63              	4.80510473e+02
64              	4.80998060e+02
65              	4.81009743e+02
66              	4.80764797e+02
67              	4.80415791e+02
68              	4.80151064e+02
69              	4.79857219e+02
70              	4.79513947e+02
71              	4.79222142e+02
72              	4.79032225e+02
73              	4.78873803e+02
74              	4.78813343e+02
75              	4.78832904e+02
76              	4.78786001e+02
77              	4.78809866e+02
78              	4.78799740e+02
79              	4.78773121e+02
80              	4.78531838e+02
81              	4.78214952e+02
82              	4.77927776e+02
83              	4.77566128e+02
84              	4.77270211e+02
85              	4.77059820e+02
86              	4.76862846e+02
87              	4.76722095e+02
88              	4.76599144e+02
89              	4.76494570e+02
90              	4.76453859e+02
91              	4.76236789e+02
92              	4.76111105e+02
93              	4.75826545e+02
94              	4.75549325e+02
95              	4.75211706e+02
96              	4.74854746e+02
97              	4.74544612e+02
98              	4.74304418e+02
99              	4.74016251e+02
100             	4.73827671e+02
101             	4.73694176e+02
102             	4.73627039e+02
103             	4.73612466e+02
104             	4.73548616e+02
105             	4.73274719e+02
106             	4.72892448e+02
107             	4.72542279e+02
108             	4.72127110e+02
109             	4.71656445e+02
110             	4.71233221e+02
111             	4.70859890e+02
112             	4.70637313e+02
113             	4.70583446e+02
114             	4.70530371e+02
115             	4.70541513e+02
116             	4.70587726e+02
117             	4.70668853e+02
118             	4.70419193e+02
119             	4.70267087e+02
120             	4.69981873e+02
121             	4.69426415e+02
122             	4.68881834e+02
123             	4.68422099e+02
124             	4.68039595e+02
125             	4.67728401e+02
126             	4.67546652e+02
127             	4.67452070e+02
128             	4.67417489e+02
129             	4.67489042e+02
130             	4.67604051e+02
131             	4.67783129e+02
132             	4.67948423e+02
133             	4.67921619e+02
134             	4.67791064e+02
135             	4.67593149e+02
136             	4.67353552e+02
137             	4.67109158e+02
138             	4.66873611e+02
139             	4.66659069e+02
140             	4.66470789e+02
141             	4.66327933e+02
142             	4.66227102e+02
143             	4.66163580e+02
144             	4.66114984e+02
145             	4.66096503e+02
146             	4.66062709e+02
147             	4.66017491e+02
148             	4.65990212e+02
149             	4.66009803e+02
150             	4.66120255e+02
151             	4.66070538e+02
152             	4.65964811e+02
153             	4.65873727e+02
154             	4.65702716e+02
155             	4.65570909e+02
156             	4.65476928e+02
157             	4.65424205e+02
158             	4.65424221e+02
159             	4.65551764e+02
160             	4.65664885e+02
161             	4.65775673e+02
162             	4.65627428e+02
163             	4.65569072e+02
164             	4.65590742e+02
165             	4.65601475e+02
166             	4.65576057e+02
167             	4.65545908e+02
168             	4.65493816e+02
169             	4.65443023e+02
170             	4.65471432e+02
171             	4.65446804e+02
172             	4.65407261e+02
173             	4.65404062e+02
174             	4.65459323e+02
175             	4.65531793e+02
176             	4.65352732e+02
177             	4.65272519e+02
178             	4.65233622e+02
179             	4.65134345e+02
180             	4.65063370e+02
181             	4.65026623e+02
182             	4.65068066e+02
183             	4.65212332e+02
184             	4.65364423e+02
185             	4.65535358e+02
186             	4.65810574e+02
187             	4.65731050e+02
188             	4.65632676e+02
189             	4.65634703e+02
190             	4.65515864e+02
191             	4.65135828e+02
192             	4.64808118e+02
193             	4.64547711e+02
194             	4.64402155e+02
195             	4.64370766e+02
196             	4.64451806e+02
197             	4.64577620e+02
198             	4.64790021e+02
199             	4.64940814e+02
200             	4.65118209e+02
201             	4.65001071e+02
202             	4.64976426e+02
203             	4.64864516e+02
204             	4.64626384e+02
205             	4.64321019e+02
206             	4.64016791e+02
207             	4.63725415e+02
208             	4.63517097e+02
209             	4.63488056e+02
210             	4.63593927e+02
211             	4.63824143e+02
212             	4.64027990e+02
213             	4.64124190e+02
214             	4.64347653e+02
215             	4.64544515e+02
216             	4.64616136e+02
217             	4.64574883e+02
218             	4.64433157e+02
219             	4.64251852e+02
220             	4.64083792e+02
221             	4.63902126e+02
222             	4.63728649e+02
223             	4.63600546e+02
224             	4.63528242e+02
225             	4.63495609e+02
226             	4.63457208e+02
227             	4.63488739e+02
228             	4.63483023e+02
229             	4.63461337e+02
230             	4.63429649e+02
231             	4.63386811e+02
232             	4.63470519e+02
233             	4.63674119e+02
234             	4.63747956e+02
235             	4.63883183e+02
236             	4.63923623e+02
237             	4.63995652e+02
238             	4.64069786e+02
239             	4.64180558e+02
240             	4.64273571e+02
241             	4.64191614e+02
242             	4.64046442e+02
243             	4.63954864e+02
244             	4.63835833e+02
245             	4.63756222e+02
246             	4.63785246e+02
247             	4.63933280e+02
248             	4.64003511e+02
249             	4.64105012e+02
250             	4.64234553e+02
251             	4.64290826e+02
252             	4.64329833e+02
253             	4.64359485e+02
254             	4.64364184e+02
255             	4.64347192e+02
256             	4.64256253e+02
257             	4.64155289e+02
258             	4.64002229e+02
259             	4.63846632e+02
260             	4.63736464e+02
261             	4.63590328e+02
262             	4.63515384e+02
263             	4.63519414e+02
264             	4.63580579e+02
265             	4.63680079e+02
266             	4.63726577e+02
267             	4.63814214e+02
268             	4.63960134e+02
269             	4.64062000e+02
270             	4.64105727e+02
271             	4.64119170e+02
272             	4.64196845e+02
273             	4.64293790e+02
274             	4.64386264e+02
275             	4.64512727e+02
276             	4.64636626e+02
277             	4.64734766e+02
278             	4.64768839e+02
279             	4.64796582e+02
280             	4.64757978e+02
281             	4.64712736e+02
282             	4.64616564e+02
283             	4.64497837e+02
284             	4.64389532e+02
285             	4.64308074e+02
286             	4.64249906e+02
287             	4.64238675e+02
288             	4.64273601e+02
289             	4.64328282e+02
290             	4.64358049e+02
291             	4.64368534e+02
292             	4.64351323e+02
293             	4.64297355e+02
294             	4.64219905e+02
295             	4.64153886e+02
296             	4.64132289e+02
297             	4.64131172e+02
298             	4.64066771e+02
299             	4.64073627e+02
300             	4.64055927e+02
301             	4.64068754e+02
302             	4.64033500e+02
303             	4.64009327e+02
304             	4.63999180e+02
305             	4.63965292e+02
306             	4.63922103e+02
307             	4.63887964e+02
308             	4.63879942e+02
309             	4.63886502e+02
310             	4.63939401e+02
311             	4.64053285e+02
312             	4.64194364e+02
313             	4.64282636e+02
314             	4.64366476e+02
315             	4.64391868e+02
316             	4.64390012e+02
317             	4.64370387e+02
318             	4.64309308e+02
319             	4.64217924e+02
320             	4.64119664e+02
321             	4.64075681e+02
322             	4.64050655e+02
323             	4.64024406e+02
324             	4.64048204e+02
325             	4.64130200e+02
326             	4.64191054e+02
327             	4.64200478e+02
328             	4.64147949e+02
329             	4.64097278e+02
330             	4.64034571e+02
331             	4.63954589e+02
332             	4.63851855e+02
333             	4.63749826e+02
334             	4.63737080e+02
335             	4.63818086e+02
336             	4.63862434e+02
337             	4.63867056e+02
338             	4.63885513e+02
339             	4.63882154e+02
340             	4.63846548e+02
341             	4.63818276e+02
342             	4.63753107e+02
343             	4.63682749e+02
344             	4.63610240e+02
345             	4.63543351e+02
346             	4.63465171e+02
347             	4.63407762e+02
348             	4.63374886e+02
349             	4.63363113e+02
350             	4.63380243e+02
351             	4.63369355e+02
352             	4.63343217e+02
353             	4.63327194e+02
354             	4.63293760e+02
355             	4.63243582e+02
356             	4.63190986e+02
357             	4.63150555e+02
358             	4.63154362e+02
359             	4.63141008e+02
360             	4.63051048e+02
361             	4.62997949e+02
362             	4.62954663e+02
363             	4.62907760e+02
364             	4.62864881e+02
365             	4.62793677e+02
366             	4.62733289e+02
367             	4.62677964e+02
368             	4.62621601e+02
369             	4.62564888e+02
370             	4.62558158e+02
371             	4.62623697e+02
372             	4.62656676e+02
373             	4.62712284e+02
374             	4.62753585e+02
375             	4.62766109e+02
376             	4.62793093e+02
377             	4.62842496e+02
378             	4.62864207e+02
379             	4.62858312e+02
380             	4.62846204e+02
381             	4.62853971e+02
382             	4.62859280e+02
383             	4.62926786e+02
384             	4.63004331e+02
385             	4.63043975e+02
386             	4.63060461e+02
387             	4.63038792e+02
388             	4.63008130e+02
389             	4.62979878e+02
390             	4.62940142e+02
391             	4.62886620e+02
392             	4.62831166e+02
393             	4.62789523e+02
394             	4.62795494e+02
395             	4.62817188e+02
396             	4.62859160e+02
397             	4.62942037e+02
398             	4.63041905e+02
399             	4.63108610e+02
400             	4.63146402e+02
401             	4.63158012e+02
402             	4.63159358e+02
403             	4.63143987e+02
404             	4.63110844e+02
405             	4.63068842e+02
406             	4.63024094e+02
407             	4.62989655e+02
408             	4.62955531e+02
409             	4.62935890e+02
410             	4.62934483e+02
411             	4.62934641e+02
412             	4.62937373e+02
413             	4.62944510e+02
414             	4.62944678e+02
415             	4.62955713e+02
416             	4.62941488e+02
417             	4.62931824e+02
418             	4.62939802e+02
419             	4.62949793e+02
420             	4.62954545e+02
421             	4.62957540e+02
422             	4.62983627e+02
423             	4.63016314e+02
424             	4.63020292e+02
425             	4.63019201e+02
426             	4.63021406e+02
427             	4.63014963e+02
428             	4.62987910e+02
429             	4.62933677e+02
430             	4.62882830e+02
431             	4.62860127e+02
432             	4.62861713e+02
433             	4.62864006e+02
434             	4.62906169e+02
435             	4.62951868e+02
436             	4.62997699e+02
437             	4.63022796e+02
438             	4.63026398e+02
439             	4.63025063e+02
440             	4.63004321e+02
441             	4.62957944e+02
442             	4.62921514e+02
443             	4.62880282e+02
444             	4.62858998e+02
445             	4.62858391e+02
446             	4.62876365e+02
447             	4.62901987e+02
448             	4.62920951e+02
449             	4.62921746e+02
450             	4.62901146e+02
451             	4.62868177e+02
452             	4.62842937e+02
453             	4.62828648e+02
454             	4.62833919e+02
455             	4.62835303e+02
456             	4.62828401e+02
457             	4.62833558e+02
458             	4.62853026e+02
459             	4.62833824e+02
460             	4.62812405e+02
461             	4.62777845e+02
462             	4.62729368e+02
463             	4.62676299e+02
464             	4.62627663e+02
465             	4.62591792e+02
466             	4.62595179e+02
467             	4.62609327e+02
468             	4.62635142e+02
469             	4.62676764e+02
470             	4.62727014e+02
471             	4.62778282e+02
472             	4.62827015e+02
473             	4.62872052e+02
474             	4.62912626e+02
475             	4.62948538e+02
476             	4.62979113e+02
477             	4.63003348e+02
478             	4.63019937e+02
479             	4.63029356e+02
480             	4.63031990e+02
481             	4.63009482e+02
482             	4.62984949e+02
483             	4.62959232e+02
484             	4.62930786e+02
485             	4.62902776e+02
486             	4.62882697e+02
487             	4.62865199e+02
488             	4.62850918e+02
489             	4.62842354e+02
490             	4.62839233e+02
491             	4.62840536e+02
492             	4.62842166e+02
493             	4.62844156e+02
494             	4.62846139e+02
495             	4.62846215e+02
496             	4.62843702e+02
497             	4.62841250e+02
498             	4.62836330e+02
499             	4.62829376e+02
500             	4.62822162e+02
501             	4.62811546e+02
502             	4.62798021e+02
503             	4.62782362e+02
504             	4.62772320e+02
505             	4.62759245e+02
506             	4.62747914e+02
507             	4.62738932e+02
508             	4.62730297e+02
509             	4.62727331e+02
510             	4.62727416e+02
511             	4.62728576e+02
512             	4.62726810e+02
513             	4.62724265e+02
514             	4.62723509e+02
515             	4.62721652e+02
516             	4.62721295e+02
517             	4.62720014e+02
518             	4.62715475e+02
519             	4.62710153e+02
520             	4.62704474e+02
521             	4.62701894e+02
522             	4.62699998e+02
523             	4.62699918e+02
524             	4.62702393e+02
525             	4.62707809e+02
526             	4.62715707e+02
527             	4.62722466e+02
528             	4.62726386e+02
529             	4.62725547e+02
530             	4.62722088e+02
531             	4.62714364e+02
532             	4.62702959e+02
533             	4.62691292e+02
534             	4.62680088e+02
535             	4.62672841e+02
536             	4.62667765e+02
537             	4.62666176e+02
538             	4.62668174e+02
539             	4.62671870e+02
540             	4.62675572e+02
541             	4.62676111e+02
542             	4.62675225e+02
543             	4.62672428e+02
544             	4.62670132e+02
545             	4.62665426e+02
546             	4.62660226e+02
547             	4.62656018e+02
548             	4.62655604e+02
549             	4.62655606e+02
550             	4.62656618e+02
551             	4.62657387e+02
552             	4.62658591e+02
553             	4.62659060e+02
554             	4.62658685e+02
555             	4.62658531e+02
556             	4.62657702e+02
557             	4.62655740e+02
558             	4.62653715e+02
559             	4.62650710e+02
560             	4.62646005e+02
561             	4.62640597e+02
562             	4.62634696e+02
563             	4.62628805e+02
564             	4.62623138e+02
565             	4.62619112e+02
566             	4.62615489e+02
567             	4.62612416e+02
568             	4.62610089e+02
569             	4.62608715e+02
570             	4.62608148e+02
571             	4.62607735e+02
572             	4.62607468e+02
573             	4.62607730e+02
574             	4.62607337e+02
575             	4.62606625e+02
576             	4.62605935e+02
577             	4.62604790e+02
578             	4.62602758e+02
579             	4.62599923e+02
580             	4.62596837e+02
581             	4.62593837e+02
582             	4.62590845e+02
583             	4.62588527e+02
584             	4.62587144e+02
585             	4.62586080e+02
586             	4.62585777e+02
587             	4.62585024e+02
588             	4.62584605e+02
589             	4.62584086e+02
590             	4.62583167e+02
591             	4.62581893e+02
592             	4.62580243e+02
593             	4.62578110e+02
594             	4.62575878e+02
595             	4.62573591e+02
596             	4.62571716e+02
597             	4.62570263e+02
598             	4.62569500e+02
599             	4.62568711e+02
600             	4.62568555e+02
601             	4.62568385e+02
602             	4.62568486e+02
603             	4.62568506e+02
604             	4.62568112e+02
605             	4.62566891e+02
606             	4.62565559e+02
607             	4.62563643e+02
608             	4.62561367e+02
609             	4.62559196e+02
610             	4.62556535e+02
611             	4.62554237e+02
612             	4.62552449e+02
613             	4.62550840e+02
614             	4.62549593e+02
615             	4.62548755e+02
616             	4.62548183e+02
617             	4.62547809e+02
618             	4.62547598e+02
619             	4.62547566e+02
620             	4.62547388e+02
621             	4.62547108e+02
