# Region        : cellZone component_4
# Cells         : 91
# Volume        : 1.66941850e-01
# Time          	volAverage(T)
1               	3.00395886e+02
2               	3.00785650e+02
3               	3.01143502e+02
4               	3.01479881e+02
5               	3.01803885e+02
6               	3.02119025e+02
7               	3.02426765e+02
8               	3.02728047e+02
9               	3.03023221e+02
10              	3.03312097e+02
11              	3.03597790e+02
12              	3.03880143e+02
13              	3.04162019e+02
14              	3.04444423e+02
15              	3.04720548e+02
16              	3.04989518e+02
17              	3.05252975e+02
18              	3.05506357e+02
19              	3.05748378e+02
20              	3.05979628e+02
21              	3.06199612e+02
22              	3.06410787e+02
23              	3.06616537e+02
24              	3.06818595e+02
25              	3.07018565e+02
26              	3.07220500e+02
27              	3.07424106e+02
28              	3.07629266e+02
29              	3.07830962e+02
30              	3.08033361e+02
31              	3.08230039e+02
32              	3.08419829e+02
33              	3.08601192e+02
34              	3.08773026e+02
35              	3.08934994e+02
36              	3.09088557e+02
37              	3.09236643e+02
38              	3.09379521e+02
39              	3.09518133e+02
40              	3.09656497e+02
41              	3.09796566e+02
42              	3.09941891e+02
43              	3.10092958e+02
44              	3.10245717e+02
45              	3.10399857e+02
46              	3.10551598e+02
47              	3.10699672e+02
48              	3.10842324e+02
49              	3.10979550e+02
50              	3.11110687e+02
51              	3.11236423e+02
52              	3.11356575e+02
53              	3.11469698e+02
54              	3.11577793e+02
55              	3.11681842e+02
56              	3.11783098e+02
57              	3.11883192e+02
58              	3.11983482e+02
59              	3.12085275e+02
60              	3.12188297e+02
61              	3.12293203e+02
62              	3.12399687e+02
63              	3.12506121e+02
64              	3.12610047e+02
65              	3.12712132e+02
66              	3.12812693e+02
67              	3.12910809e+02
68              	3.13006188e+02
69              	3.13099104e+02
70              	3.13189302e+02
71              	3.13276908e+02
72              	3.13361310e+02
73              	3.13441843e+02
74              	3.13519071e+02
75              	3.13596937e+02
76              	3.13672956e+02
77              	3.13749741e+02
78              	3.13825281e+02
79              	3.13900747e+02
80              	3.13977112e+02
81              	3.14052259e+02
82              	3.14124808e+02
83              	3.14195159e+02
84              	3.14261200e+02
85              	3.14324285e+02
86              	3.14385137e+02
87              	3.14441981e+02
88              	3.14496024e+02
89              	3.14546766e+02
90              	3.14595215e+02
91              	3.14638153e+02
92              	3.14678423e+02
93              	3.14718157e+02
94              	3.14756963e+02
95              	3.14795545e+02
96              	3.14833599e+02
97              	3.14873180e+02
98              	3.14910297e+02
99              	3.14947102e+02
100             	3.14982152e+02
101             	3.15014210e+02
102             	3.15041788e+02
103             	3.15066691e+02
104             	3.15089392e+02
105             	3.15112749e+02
106             	3.15136788e+02
107             	3.15160660e+02
108             	3.15187564e+02
109             	3.15214298e+02
110             	3.15242288e+02
111             	3.15274088e+02
112             	3.15303683e+02
113             	3.15330599e+02
114             	3.15355039e+02
115             	3.15377334e+02
116             	3.15397094e+02
117             	3.15415050e+02
118             	3.15431528e+02
119             	3.15446390e+02
120             	3.15460399e+02
121             	3.15473978e+02
122             	3.15487873e+02
123             	3.15502763e+02
124             	3.15518630e+02
125             	3.15536023e+02
126             	3.15554945e+02
127             	3.15573592e+02
128             	3.15592401e+02
129             	3.15611016e+02
130             	3.15628991e+02
131             	3.15646024e+02
132             	3.15661987e+02
133             	3.15677009e+02
134             	3.15690954e+02
135             	3.15704350e+02
136             	3.15717831e+02
137             	3.15730647e+02
138             	3.15743283e+02
139             	3.15755909e+02
140             	3.15768254e+02
141             	3.15780757e+02
142             	3.15793068e+02
143             	3.15805454e+02
144             	3.15817792e+02
145             	3.15830238e+02
146             	3.15842938e+02
147             	3.15856023e+02
148             	3.15869677e+02
149             	3.15884248e+02
150             	3.15898191e+02
151             	3.15912765e+02
152             	3.15927009e+02
153             	3.15940967e+02
154             	3.15954938e+02
155             	3.15967830e+02
156             	3.15979947e+02
157             	3.15991345e+02
158             	3.16002962e+02
159             	3.16013779e+02
160             	3.16024288e+02
161             	3.16034628e+02
162             	3.16045184e+02
163             	3.16056491e+02
164             	3.16067831e+02
165             	3.16079479e+02
166             	3.16091188e+02
167             	3.16103079e+02
168             	3.16115092e+02
169             	3.16127169e+02
170             	3.16139238e+02
171             	3.16150503e+02
172             	3.16161357e+02
173             	3.16171832e+02
174             	3.16181623e+02
175             	3.16190983e+02
176             	3.16200096e+02
177             	3.16209035e+02
178             	3.16217782e+02
179             	3.16226399e+02
180             	3.16235127e+02
181             	3.16243988e+02
182             	3.16252957e+02
183             	3.16262057e+02
184             	3.16270956e+02
185             	3.16279849e+02
186             	3.16288869e+02
187             	3.16297517e+02
188             	3.16305907e+02
189             	3.16314363e+02
190             	3.16322649e+02
191             	3.16330654e+02
192             	3.16338469e+02
193             	3.16346355e+02
194             	3.16354119e+02
195             	3.16361697e+02
196             	3.16368950e+02
197             	3.16375790e+02
198             	3.16382286e+02
199             	3.16388559e+02
200             	3.16394626e+02
201             	3.16400585e+02
202             	3.16406656e+02
203             	3.16412936e+02
204             	3.16419446e+02
205             	3.16425789e+02
206             	3.16432257e+02
207             	3.16438580e+02
208             	3.16444474e+02
209             	3.16449789e+02
210             	3.16455086e+02
211             	3.16460154e+02
212             	3.16465023e+02
213             	3.16469739e+02
214             	3.16474299e+02
215             	3.16478982e+02
216             	3.16484112e+02
217             	3.16489427e+02
218             	3.16495080e+02
219             	3.16500888e+02
220             	3.16506871e+02
221             	3.16512968e+02
222             	3.16518884e+02
223             	3.16524551e+02
224             	3.16529893e+02
225             	3.16534823e+02
226             	3.16539395e+02
227             	3.16543511e+02
228             	3.16547522e+02
229             	3.16551299e+02
230             	3.16554806e+02
231             	3.16558208e+02
232             	3.16561682e+02
233             	3.16565050e+02
234             	3.16568534e+02
235             	3.16571857e+02
236             	3.16575167e+02
237             	3.16578447e+02
238             	3.16581797e+02
239             	3.16585180e+02
240             	3.16588753e+02
241             	3.16592326e+02
242             	3.16595992e+02
243             	3.16599735e+02
244             	3.16603541e+02
245             	3.16607498e+02
246             	3.16611461e+02
247             	3.16615206e+02
248             	3.16618795e+02
249             	3.16622309e+02
250             	3.16625493e+02
251             	3.16628592e+02
252             	3.16631482e+02
253             	3.16634128e+02
254             	3.16636709e+02
255             	3.16639288e+02
256             	3.16641705e+02
257             	3.16644076e+02
258             	3.16646403e+02
259             	3.16648804e+02
260             	3.16651188e+02
261             	3.16653415e+02
262             	3.16655692e+02
263             	3.16657878e+02
264             	3.16660026e+02
265             	3.16662100e+02
266             	3.16664129e+02
267             	3.16666098e+02
268             	3.16668016e+02
269             	3.16669883e+02
270             	3.16671749e+02
271             	3.16673636e+02
272             	3.16675554e+02
273             	3.16677476e+02
274             	3.16679422e+02
275             	3.16681366e+02
276             	3.16683273e+02
277             	3.16685151e+02
278             	3.16686995e+02
279             	3.16688754e+02
280             	3.16690436e+02
281             	3.16692065e+02
282             	3.16693661e+02
283             	3.16695208e+02
284             	3.16696739e+02
285             	3.16698300e+02
286             	3.16699913e+02
287             	3.16701534e+02
288             	3.16703212e+02
289             	3.16704932e+02
290             	3.16706671e+02
291             	3.16708397e+02
292             	3.16710080e+02
293             	3.16711700e+02
294             	3.16713255e+02
295             	3.16714711e+02
296             	3.16716121e+02
297             	3.16717417e+02
298             	3.16718628e+02
299             	3.16719758e+02
300             	3.16720811e+02
301             	3.16721831e+02
302             	3.16722851e+02
303             	3.16723856e+02
304             	3.16724856e+02
305             	3.16725838e+02
306             	3.16726847e+02
307             	3.16727872e+02
308             	3.16728913e+02
309             	3.16729963e+02
310             	3.16731004e+02
311             	3.16732030e+02
312             	3.16733052e+02
313             	3.16734045e+02
314             	3.16734994e+02
315             	3.16735915e+02
316             	3.16736808e+02
317             	3.16737678e+02
318             	3.16738554e+02
319             	3.16739385e+02
320             	3.16740199e+02
321             	3.16741021e+02
322             	3.16741791e+02
323             	3.16742530e+02
324             	3.16743229e+02
325             	3.16743917e+02
326             	3.16744571e+02
327             	3.16745206e+02
328             	3.16745830e+02
329             	3.16746454e+02
330             	3.16747091e+02
331             	3.16747747e+02
332             	3.16748440e+02
333             	3.16749121e+02
334             	3.16749803e+02
335             	3.16750517e+02
336             	3.16751211e+02
337             	3.16751887e+02
338             	3.16752560e+02
339             	3.16753187e+02
340             	3.16753801e+02
341             	3.16754410e+02
342             	3.16755008e+02
343             	3.16755591e+02
344             	3.16756183e+02
345             	3.16756764e+02
346             	3.16757334e+02
347             	3.16757875e+02
348             	3.16758400e+02
349             	3.16758907e+02
350             	3.16759402e+02
351             	3.16759888e+02
352             	3.16760360e+02
353             	3.16760822e+02
354             	3.16761279e+02
355             	3.16761704e+02
356             	3.16762118e+02
357             	3.16762494e+02
358             	3.16762850e+02
359             	3.16763187e+02
360             	3.16763506e+02
361             	3.16763819e+02
362             	3.16764133e+02
363             	3.16764447e+02
364             	3.16764769e+02
365             	3.16765102e+02
366             	3.16765447e+02
367             	3.16765798e+02
368             	3.16766153e+02
369             	3.16766507e+02
370             	3.16766865e+02
371             	3.16767217e+02
372             	3.16767564e+02
373             	3.16767903e+02
374             	3.16768236e+02
375             	3.16768554e+02
376             	3.16768859e+02
377             	3.16769150e+02
378             	3.16769430e+02
379             	3.16769698e+02
380             	3.16769955e+02
381             	3.16770200e+02
382             	3.16770438e+02
383             	3.16770668e+02
384             	3.16770886e+02
385             	3.16771101e+02
386             	3.16771310e+02
387             	3.16771520e+02
388             	3.16771731e+02
389             	3.16771939e+02
390             	3.16772156e+02
391             	3.16772359e+02
392             	3.16772561e+02
393             	3.16772764e+02
394             	3.16772964e+02
395             	3.16773163e+02
396             	3.16773357e+02
397             	3.16773543e+02
398             	3.16773722e+02
399             	3.16773899e+02
400             	3.16774072e+02
401             	3.16774243e+02
402             	3.16774415e+02
403             	3.16774590e+02
404             	3.16774768e+02
405             	3.16774951e+02
406             	3.16775138e+02
407             	3.16775329e+02
408             	3.16775517e+02
409             	3.16775699e+02
410             	3.16775879e+02
411             	3.16776051e+02
412             	3.16776212e+02
413             	3.16776366e+02
414             	3.16776515e+02
415             	3.16776663e+02
416             	3.16776814e+02
417             	3.16776969e+02
418             	3.16777132e+02
419             	3.16777298e+02
420             	3.16777464e+02
421             	3.16777635e+02
422             	3.16777806e+02
423             	3.16777976e+02
424             	3.16778141e+02
425             	3.16778298e+02
426             	3.16778442e+02
427             	3.16778579e+02
428             	3.16778706e+02
429             	3.16778824e+02
430             	3.16778935e+02
431             	3.16779040e+02
432             	3.16779140e+02
433             	3.16779239e+02
434             	3.16779340e+02
435             	3.16779441e+02
436             	3.16779546e+02
437             	3.16779653e+02
438             	3.16779759e+02
439             	3.16779866e+02
440             	3.16779972e+02
441             	3.16780071e+02
442             	3.16780164e+02
443             	3.16780250e+02
444             	3.16780331e+02
445             	3.16780407e+02
446             	3.16780479e+02
447             	3.16780551e+02
448             	3.16780622e+02
449             	3.16780697e+02
450             	3.16780776e+02
451             	3.16780860e+02
452             	3.16780947e+02
453             	3.16781035e+02
454             	3.16781125e+02
455             	3.16781212e+02
456             	3.16781296e+02
457             	3.16781377e+02
458             	3.16781456e+02
459             	3.16781514e+02
460             	3.16781586e+02
461             	3.16781656e+02
462             	3.16781711e+02
463             	3.16781767e+02
464             	3.16781837e+02
465             	3.16781906e+02
466             	3.16781963e+02
467             	3.16782023e+02
468             	3.16782098e+02
469             	3.16782174e+02
470             	3.16782241e+02
471             	3.16782313e+02
472             	3.16782384e+02
473             	3.16782455e+02
474             	3.16782513e+02
475             	3.16782567e+02
476             	3.16782612e+02
477             	3.16782661e+02
478             	3.16782704e+02
479             	3.16782747e+02
480             	3.16782783e+02
481             	3.16782820e+02
482             	3.16782855e+02
483             	3.16782887e+02
484             	3.16782922e+02
485             	3.16782955e+02
486             	3.16782989e+02
487             	3.16783021e+02
488             	3.16783057e+02
489             	3.16783090e+02
490             	3.16783119e+02
491             	3.16783150e+02
492             	3.16783180e+02
493             	3.16783215e+02
494             	3.16783248e+02
495             	3.16783282e+02
496             	3.16783318e+02
497             	3.16783356e+02
498             	3.16783394e+02
499             	3.16783432e+02
500             	3.16783478e+02
501             	3.16783530e+02
502             	3.16783583e+02
503             	3.16783635e+02
504             	3.16783679e+02
505             	3.16783719e+02
506             	3.16783755e+02
507             	3.16783789e+02
508             	3.16783824e+02
509             	3.16783858e+02
510             	3.16783891e+02
511             	3.16783921e+02
512             	3.16783950e+02
513             	3.16783979e+02
514             	3.16784007e+02
515             	3.16784035e+02
516             	3.16784064e+02
517             	3.16784095e+02
518             	3.16784120e+02
519             	3.16784140e+02
520             	3.16784158e+02
521             	3.16784169e+02
522             	3.16784177e+02
523             	3.16784181e+02
524             	3.16784181e+02
525             	3.16784177e+02
526             	3.16784174e+02
527             	3.16784169e+02
528             	3.16784165e+02
529             	3.16784161e+02
530             	3.16784159e+02
531             	3.16784160e+02
532             	3.16784166e+02
533             	3.16784174e+02
534             	3.16784185e+02
535             	3.16784201e+02
536             	3.16784220e+02
537             	3.16784243e+02
538             	3.16784266e+02
539             	3.16784293e+02
540             	3.16784321e+02
541             	3.16784350e+02
542             	3.16784380e+02
543             	3.16784410e+02
544             	3.16784440e+02
545             	3.16784466e+02
546             	3.16784490e+02
547             	3.16784515e+02
548             	3.16784537e+02
549             	3.16784556e+02
550             	3.16784568e+02
551             	3.16784574e+02
552             	3.16784574e+02
553             	3.16784568e+02
554             	3.16784557e+02
555             	3.16784542e+02
556             	3.16784527e+02
557             	3.16784512e+02
558             	3.16784503e+02
559             	3.16784500e+02
560             	3.16784503e+02
561             	3.16784514e+02
562             	3.16784534e+02
563             	3.16784558e+02
564             	3.16784591e+02
565             	3.16784616e+02
566             	3.16784640e+02
567             	3.16784661e+02
568             	3.16784679e+02
569             	3.16784691e+02
570             	3.16784700e+02
571             	3.16784707e+02
572             	3.16784715e+02
573             	3.16784724e+02
574             	3.16784738e+02
575             	3.16784754e+02
576             	3.16784773e+02
577             	3.16784791e+02
578             	3.16784807e+02
579             	3.16784821e+02
580             	3.16784834e+02
581             	3.16784845e+02
582             	3.16784855e+02
583             	3.16784865e+02
584             	3.16784877e+02
585             	3.16784893e+02
586             	3.16784915e+02
587             	3.16784941e+02
588             	3.16784969e+02
589             	3.16784997e+02
590             	3.16785019e+02
591             	3.16785036e+02
592             	3.16785046e+02
593             	3.16785050e+02
594             	3.16785047e+02
595             	3.16785037e+02
596             	3.16785027e+02
597             	3.16785017e+02
598             	3.16785007e+02
599             	3.16784999e+02
600             	3.16784992e+02
601             	3.16784989e+02
602             	3.16784989e+02
603             	3.16784990e+02
604             	3.16784991e+02
605             	3.16784992e+02
606             	3.16784992e+02
607             	3.16784990e+02
608             	3.16784987e+02
609             	3.16784985e+02
610             	3.16784985e+02
611             	3.16784989e+02
612             	3.16784997e+02
613             	3.16785009e+02
614             	3.16785023e+02
615             	3.16785040e+02
616             	3.16785053e+02
617             	3.16785062e+02
618             	3.16785069e+02
619             	3.16785071e+02
620             	3.16785068e+02
621             	3.16785060e+02
