# Region        : cellZone component_4
# Cells         : 120
# Volume        : 1.99802148e-01
# Time          	volAverage(T)
1               	3.00539347e+02
2               	3.01070998e+02
3               	3.01550362e+02
4               	3.01995748e+02
5               	3.02424556e+02
6               	3.02842062e+02
7               	3.03250202e+02
8               	3.03650507e+02
9               	3.04047157e+02
10              	3.04433216e+02
11              	3.04805710e+02
12              	3.05166660e+02
13              	3.05510807e+02
14              	3.05840643e+02
15              	3.06153614e+02
16              	3.06456196e+02
17              	3.06753960e+02
18              	3.07045385e+02
19              	3.07323776e+02
20              	3.07614112e+02
21              	3.07895470e+02
22              	3.08159595e+02
23              	3.08405549e+02
24              	3.08641756e+02
25              	3.08866589e+02
26              	3.09085570e+02
27              	3.09292106e+02
28              	3.09473298e+02
29              	3.09631819e+02
30              	3.09785991e+02
31              	3.09951828e+02
32              	3.10103153e+02
33              	3.10255450e+02
34              	3.10394228e+02
35              	3.10535873e+02
36              	3.10670165e+02
37              	3.10801663e+02
38              	3.10938980e+02
39              	3.11089181e+02
40              	3.11258955e+02
41              	3.11430539e+02
42              	3.11617408e+02
43              	3.11792649e+02
44              	3.11962189e+02
45              	3.12115364e+02
46              	3.12255080e+02
47              	3.12395498e+02
48              	3.12523264e+02
49              	3.12643750e+02
50              	3.12760100e+02
51              	3.12866140e+02
52              	3.12966719e+02
53              	3.13085785e+02
54              	3.13178072e+02
55              	3.13246135e+02
56              	3.13297300e+02
57              	3.13349912e+02
58              	3.13414137e+02
59              	3.13493317e+02
60              	3.13562701e+02
61              	3.13671886e+02
62              	3.13762196e+02
63              	3.13829140e+02
64              	3.13888430e+02
65              	3.13929112e+02
66              	3.13989732e+02
67              	3.14046842e+02
68              	3.14106131e+02
69              	3.14163248e+02
70              	3.14202668e+02
71              	3.14207801e+02
72              	3.14200195e+02
73              	3.14225321e+02
74              	3.14293822e+02
75              	3.14347569e+02
76              	3.14385539e+02
77              	3.14411456e+02
78              	3.14437557e+02
79              	3.14487207e+02
80              	3.14532509e+02
81              	3.14584455e+02
82              	3.14656373e+02
83              	3.14703196e+02
84              	3.14722052e+02
85              	3.14721706e+02
86              	3.14719350e+02
87              	3.14732068e+02
88              	3.14751728e+02
89              	3.14762588e+02
90              	3.14766238e+02
91              	3.14776856e+02
92              	3.14785301e+02
93              	3.14814381e+02
94              	3.14843724e+02
95              	3.14878228e+02
96              	3.14917969e+02
97              	3.14951714e+02
98              	3.14964728e+02
99              	3.14957574e+02
100             	3.14930073e+02
101             	3.14891131e+02
102             	3.14848377e+02
103             	3.14848719e+02
104             	3.14856049e+02
105             	3.14856381e+02
106             	3.14856832e+02
107             	3.14856797e+02
108             	3.14873893e+02
109             	3.14884257e+02
110             	3.14907398e+02
111             	3.14944538e+02
112             	3.14988920e+02
113             	3.15024444e+02
114             	3.15049048e+02
115             	3.15059964e+02
116             	3.15054387e+02
117             	3.15050062e+02
118             	3.15079903e+02
119             	3.15109403e+02
120             	3.15129892e+02
121             	3.15151195e+02
122             	3.15170092e+02
123             	3.15191183e+02
124             	3.15213960e+02
125             	3.15248404e+02
126             	3.15287520e+02
127             	3.15324297e+02
128             	3.15375292e+02
129             	3.15429316e+02
130             	3.15491422e+02
131             	3.15553597e+02
132             	3.15615031e+02
133             	3.15666351e+02
134             	3.15712571e+02
135             	3.15753856e+02
136             	3.15789363e+02
137             	3.15824419e+02
138             	3.15854848e+02
139             	3.15882662e+02
140             	3.15907977e+02
141             	3.15933749e+02
142             	3.15964880e+02
143             	3.16000068e+02
144             	3.16036045e+02
145             	3.16070131e+02
146             	3.16103627e+02
147             	3.16142249e+02
148             	3.16183960e+02
149             	3.16230553e+02
150             	3.16279650e+02
151             	3.16331252e+02
152             	3.16385802e+02
153             	3.16443846e+02
154             	3.16502186e+02
155             	3.16559534e+02
156             	3.16613545e+02
157             	3.16663701e+02
158             	3.16708780e+02
159             	3.16756262e+02
160             	3.16795857e+02
161             	3.16826495e+02
162             	3.16851827e+02
163             	3.16875617e+02
164             	3.16897252e+02
165             	3.16923536e+02
166             	3.16954583e+02
167             	3.16987211e+02
168             	3.17020836e+02
169             	3.17058672e+02
170             	3.17101070e+02
171             	3.17148491e+02
172             	3.17201709e+02
173             	3.17257803e+02
174             	3.17312652e+02
175             	3.17364121e+02
176             	3.17406868e+02
177             	3.17449569e+02
178             	3.17485160e+02
179             	3.17512482e+02
180             	3.17538277e+02
181             	3.17557264e+02
182             	3.17577681e+02
183             	3.17603438e+02
184             	3.17631911e+02
185             	3.17656001e+02
186             	3.17682374e+02
187             	3.17705988e+02
188             	3.17738476e+02
189             	3.17773559e+02
190             	3.17803519e+02
191             	3.17835952e+02
192             	3.17867883e+02
193             	3.17894140e+02
194             	3.17915469e+02
195             	3.17933522e+02
196             	3.17950998e+02
197             	3.17969124e+02
198             	3.17985923e+02
199             	3.17999977e+02
200             	3.18016397e+02
201             	3.18035196e+02
202             	3.18058206e+02
203             	3.18084778e+02
204             	3.18113297e+02
205             	3.18142747e+02
206             	3.18173768e+02
207             	3.18204293e+02
208             	3.18234871e+02
209             	3.18267326e+02
210             	3.18300875e+02
211             	3.18337507e+02
212             	3.18377094e+02
213             	3.18414187e+02
214             	3.18455149e+02
215             	3.18494401e+02
216             	3.18536216e+02
217             	3.18578801e+02
218             	3.18617142e+02
219             	3.18653176e+02
220             	3.18686555e+02
221             	3.18714829e+02
222             	3.18740029e+02
223             	3.18762527e+02
224             	3.18782589e+02
225             	3.18799299e+02
226             	3.18813224e+02
227             	3.18826328e+02
228             	3.18840340e+02
229             	3.18855258e+02
230             	3.18873600e+02
231             	3.18895013e+02
232             	3.18919138e+02
233             	3.18943785e+02
234             	3.18972626e+02
235             	3.19004973e+02
236             	3.19041689e+02
237             	3.19079040e+02
238             	3.19115103e+02
239             	3.19149732e+02
240             	3.19184138e+02
241             	3.19218383e+02
242             	3.19250694e+02
243             	3.19281264e+02
244             	3.19311500e+02
245             	3.19343006e+02
246             	3.19374228e+02
247             	3.19406062e+02
248             	3.19434214e+02
249             	3.19458878e+02
250             	3.19482594e+02
251             	3.19503268e+02
252             	3.19523330e+02
253             	3.19541832e+02
254             	3.19559370e+02
255             	3.19576087e+02
256             	3.19593037e+02
257             	3.19610241e+02
258             	3.19628613e+02
259             	3.19647946e+02
260             	3.19669783e+02
261             	3.19694652e+02
262             	3.19717482e+02
263             	3.19745539e+02
264             	3.19776304e+02
265             	3.19804951e+02
266             	3.19836933e+02
267             	3.19870604e+02
268             	3.19904107e+02
269             	3.19932981e+02
270             	3.19957601e+02
271             	3.19982099e+02
272             	3.20005934e+02
273             	3.20025618e+02
274             	3.20041833e+02
275             	3.20055352e+02
276             	3.20067110e+02
277             	3.20076467e+02
278             	3.20083995e+02
279             	3.20089085e+02
280             	3.20094897e+02
281             	3.20102196e+02
282             	3.20109597e+02
283             	3.20117814e+02
284             	3.20127388e+02
285             	3.20139050e+02
286             	3.20154965e+02
287             	3.20167669e+02
288             	3.20181274e+02
289             	3.20197621e+02
290             	3.20216313e+02
291             	3.20236524e+02
292             	3.20257051e+02
293             	3.20278010e+02
294             	3.20297528e+02
295             	3.20316265e+02
296             	3.20334064e+02
297             	3.20348734e+02
298             	3.20360100e+02
299             	3.20368451e+02
300             	3.20373776e+02
301             	3.20375883e+02
302             	3.20375492e+02
303             	3.20373430e+02
304             	3.20370744e+02
305             	3.20369067e+02
306             	3.20370616e+02
307             	3.20375049e+02
308             	3.20383417e+02
309             	3.20394840e+02
310             	3.20408495e+02
311             	3.20425556e+02
312             	3.20448179e+02
313             	3.20470088e+02
314             	3.20493483e+02
315             	3.20518830e+02
316             	3.20543738e+02
317             	3.20564533e+02
318             	3.20587421e+02
319             	3.20607585e+02
320             	3.20624944e+02
321             	3.20638341e+02
322             	3.20647290e+02
323             	3.20652210e+02
324             	3.20654685e+02
325             	3.20654872e+02
326             	3.20650646e+02
327             	3.20643338e+02
328             	3.20636152e+02
329             	3.20626493e+02
330             	3.20619146e+02
331             	3.20612615e+02
332             	3.20603773e+02
333             	3.20601288e+02
334             	3.20602638e+02
335             	3.20604435e+02
336             	3.20606503e+02
337             	3.20611025e+02
338             	3.20618854e+02
339             	3.20628807e+02
340             	3.20638570e+02
341             	3.20638144e+02
342             	3.20638029e+02
343             	3.20640570e+02
344             	3.20642858e+02
345             	3.20643074e+02
346             	3.20640065e+02
347             	3.20634295e+02
348             	3.20626759e+02
349             	3.20620866e+02
350             	3.20615681e+02
351             	3.20610760e+02
352             	3.20606076e+02
353             	3.20608143e+02
354             	3.20613987e+02
355             	3.20622407e+02
356             	3.20627828e+02
357             	3.20640100e+02
358             	3.20657774e+02
359             	3.20675223e+02
360             	3.20687660e+02
361             	3.20682133e+02
362             	3.20685284e+02
363             	3.20690150e+02
364             	3.20692093e+02
365             	3.20690652e+02
366             	3.20688573e+02
367             	3.20680343e+02
368             	3.20667625e+02
369             	3.20650829e+02
370             	3.20630085e+02
371             	3.20609991e+02
372             	3.20594148e+02
373             	3.20584638e+02
374             	3.20580693e+02
375             	3.20581421e+02
376             	3.20585906e+02
377             	3.20592331e+02
378             	3.20598211e+02
379             	3.20603493e+02
380             	3.20609948e+02
381             	3.20617435e+02
382             	3.20626310e+02
383             	3.20630739e+02
384             	3.20635651e+02
385             	3.20636906e+02
386             	3.20637276e+02
387             	3.20636024e+02
388             	3.20630163e+02
389             	3.20620288e+02
390             	3.20607739e+02
391             	3.20593090e+02
392             	3.20576292e+02
393             	3.20559208e+02
394             	3.20542509e+02
395             	3.20527356e+02
396             	3.20514825e+02
397             	3.20507341e+02
398             	3.20504307e+02
399             	3.20504648e+02
400             	3.20507706e+02
401             	3.20510459e+02
402             	3.20516666e+02
403             	3.20522563e+02
404             	3.20532922e+02
405             	3.20544721e+02
406             	3.20555399e+02
407             	3.20562293e+02
408             	3.20565851e+02
409             	3.20565090e+02
410             	3.20559324e+02
411             	3.20548270e+02
412             	3.20532810e+02
413             	3.20513915e+02
414             	3.20493211e+02
415             	3.20472329e+02
416             	3.20455793e+02
417             	3.20441462e+02
418             	3.20422343e+02
419             	3.20410130e+02
420             	3.20400587e+02
421             	3.20397531e+02
422             	3.20401019e+02
423             	3.20412024e+02
424             	3.20428126e+02
425             	3.20446043e+02
426             	3.20466021e+02
427             	3.20485587e+02
428             	3.20502197e+02
429             	3.20517614e+02
430             	3.20532967e+02
431             	3.20548138e+02
432             	3.20560574e+02
433             	3.20571149e+02
434             	3.20580149e+02
435             	3.20587178e+02
436             	3.20593610e+02
437             	3.20599662e+02
438             	3.20605275e+02
439             	3.20610240e+02
440             	3.20614790e+02
441             	3.20618440e+02
442             	3.20620319e+02
443             	3.20622018e+02
444             	3.20622262e+02
445             	3.20624715e+02
446             	3.20631075e+02
447             	3.20640607e+02
448             	3.20650655e+02
449             	3.20661858e+02
450             	3.20674441e+02
451             	3.20688324e+02
452             	3.20703029e+02
453             	3.20718093e+02
454             	3.20734727e+02
455             	3.20753002e+02
456             	3.20772428e+02
457             	3.20792289e+02
458             	3.20812382e+02
459             	3.20827491e+02
460             	3.20838621e+02
461             	3.20846854e+02
462             	3.20853025e+02
463             	3.20857903e+02
464             	3.20858293e+02
465             	3.20857915e+02
466             	3.20855648e+02
467             	3.20852843e+02
468             	3.20850396e+02
469             	3.20848594e+02
470             	3.20847719e+02
471             	3.20847903e+02
472             	3.20849342e+02
473             	3.20852192e+02
474             	3.20856331e+02
475             	3.20861611e+02
476             	3.20867280e+02
477             	3.20872551e+02
478             	3.20876464e+02
479             	3.20881355e+02
480             	3.20884860e+02
481             	3.20887203e+02
482             	3.20889309e+02
483             	3.20891261e+02
484             	3.20892691e+02
485             	3.20893655e+02
486             	3.20894460e+02
487             	3.20895551e+02
488             	3.20897664e+02
489             	3.20901278e+02
490             	3.20906099e+02
491             	3.20910974e+02
492             	3.20916692e+02
493             	3.20923221e+02
494             	3.20930934e+02
495             	3.20940190e+02
496             	3.20948547e+02
497             	3.20957362e+02
498             	3.20962218e+02
499             	3.20966079e+02
500             	3.20971205e+02
501             	3.20976664e+02
502             	3.20982361e+02
503             	3.20987984e+02
504             	3.20993845e+02
505             	3.20998306e+02
506             	3.21003464e+02
507             	3.21006595e+02
508             	3.21009817e+02
509             	3.21013013e+02
510             	3.21014745e+02
511             	3.21016231e+02
512             	3.21015691e+02
513             	3.21013919e+02
514             	3.21012666e+02
515             	3.21013193e+02
516             	3.21014228e+02
517             	3.21015843e+02
518             	3.21018104e+02
519             	3.21021287e+02
520             	3.21023418e+02
521             	3.21024239e+02
522             	3.21026343e+02
523             	3.21029274e+02
524             	3.21032618e+02
525             	3.21035405e+02
526             	3.21037508e+02
527             	3.21040573e+02
528             	3.21044454e+02
529             	3.21047430e+02
530             	3.21049844e+02
531             	3.21052921e+02
532             	3.21059587e+02
533             	3.21065241e+02
534             	3.21072530e+02
535             	3.21081573e+02
536             	3.21091460e+02
537             	3.21101991e+02
538             	3.21113106e+02
539             	3.21120805e+02
540             	3.21126530e+02
541             	3.21131622e+02
542             	3.21135412e+02
543             	3.21139933e+02
544             	3.21141527e+02
545             	3.21140927e+02
546             	3.21142534e+02
547             	3.21140774e+02
548             	3.21137467e+02
549             	3.21133785e+02
550             	3.21130615e+02
551             	3.21128419e+02
552             	3.21126579e+02
553             	3.21124396e+02
554             	3.21124447e+02
555             	3.21126588e+02
556             	3.21129244e+02
557             	3.21130119e+02
558             	3.21134249e+02
559             	3.21138336e+02
560             	3.21143251e+02
561             	3.21147878e+02
562             	3.21151913e+02
563             	3.21155983e+02
564             	3.21159746e+02
565             	3.21164725e+02
566             	3.21171471e+02
567             	3.21178018e+02
568             	3.21184634e+02
569             	3.21191410e+02
570             	3.21196819e+02
571             	3.21201986e+02
572             	3.21207001e+02
573             	3.21210853e+02
574             	3.21214255e+02
575             	3.21216292e+02
576             	3.21218239e+02
577             	3.21220388e+02
578             	3.21217301e+02
579             	3.21217326e+02
580             	3.21218483e+02
581             	3.21220064e+02
582             	3.21221419e+02
583             	3.21222407e+02
584             	3.21221835e+02
585             	3.21222601e+02
586             	3.21222417e+02
587             	3.21217050e+02
588             	3.21213369e+02
589             	3.21208941e+02
590             	3.21204721e+02
591             	3.21201059e+02
592             	3.21196518e+02
593             	3.21190346e+02
594             	3.21184039e+02
595             	3.21178497e+02
596             	3.21176149e+02
597             	3.21176532e+02
598             	3.21180627e+02
599             	3.21187469e+02
600             	3.21197117e+02
601             	3.21208069e+02
602             	3.21214976e+02
603             	3.21219521e+02
604             	3.21223312e+02
605             	3.21226084e+02
606             	3.21229405e+02
607             	3.21230703e+02
608             	3.21234100e+02
609             	3.21233366e+02
610             	3.21232654e+02
611             	3.21233989e+02
612             	3.21236109e+02
613             	3.21237823e+02
614             	3.21239552e+02
615             	3.21243042e+02
616             	3.21240749e+02
617             	3.21238907e+02
618             	3.21239240e+02
619             	3.21237165e+02
620             	3.21227970e+02
621             	3.21221132e+02
