# Region        : cellZone component_1
# Cells         : 126
# Volume        : 2.55522446e-01
# Time          	volAverage(T)
1               	3.01594613e+02
2               	3.03147751e+02
3               	3.04384013e+02
4               	3.05397408e+02
5               	3.06362872e+02
6               	3.07337183e+02
7               	3.08292135e+02
8               	3.09183742e+02
9               	3.10009203e+02
10              	3.10777921e+02
11              	3.11528913e+02
12              	3.12276398e+02
13              	3.13024490e+02
14              	3.13766175e+02
15              	3.14490413e+02
16              	3.15178386e+02
17              	3.15840977e+02
18              	3.16475370e+02
19              	3.17082612e+02
20              	3.17683325e+02
21              	3.18276177e+02
22              	3.18858576e+02
23              	3.19418366e+02
24              	3.19967199e+02
25              	3.20500338e+02
26              	3.20982472e+02
27              	3.21419017e+02
28              	3.21798516e+02
29              	3.22135789e+02
30              	3.22459452e+02
31              	3.22786481e+02
32              	3.23108472e+02
33              	3.23434797e+02
34              	3.23658355e+02
35              	3.23673305e+02
36              	3.23756199e+02
37              	3.23961597e+02
38              	3.24251216e+02
39              	3.24545415e+02
40              	3.24822403e+02
41              	3.25071851e+02
42              	3.25287769e+02
43              	3.25511960e+02
44              	3.25725630e+02
45              	3.25913016e+02
46              	3.26100244e+02
47              	3.26312269e+02
48              	3.26537499e+02
49              	3.26570892e+02
50              	3.26451512e+02
51              	3.26307670e+02
52              	3.26196007e+02
53              	3.26138566e+02
54              	3.26189336e+02
55              	3.26309987e+02
56              	3.26402917e+02
57              	3.26443842e+02
58              	3.26496985e+02
59              	3.26550484e+02
60              	3.26623282e+02
61              	3.26737078e+02
62              	3.26895440e+02
63              	3.27046132e+02
64              	3.27175083e+02
65              	3.27251719e+02
66              	3.27288239e+02
67              	3.27221752e+02
68              	3.27109309e+02
69              	3.27090607e+02
70              	3.27164449e+02
71              	3.27277517e+02
72              	3.27349053e+02
73              	3.27392029e+02
74              	3.27421135e+02
75              	3.27451118e+02
76              	3.27494099e+02
77              	3.27572046e+02
78              	3.27671476e+02
79              	3.27581879e+02
80              	3.27394585e+02
81              	3.27137560e+02
82              	3.26943854e+02
83              	3.26999503e+02
84              	3.27117856e+02
85              	3.27173868e+02
86              	3.27186557e+02
87              	3.27178061e+02
88              	3.27234067e+02
89              	3.27315636e+02
90              	3.27401798e+02
91              	3.27536762e+02
92              	3.27603007e+02
93              	3.27538599e+02
94              	3.27420788e+02
95              	3.27315154e+02
96              	3.27253179e+02
97              	3.27306854e+02
98              	3.27405160e+02
99              	3.27461618e+02
100             	3.27472036e+02
101             	3.27497220e+02
102             	3.27518061e+02
103             	3.27560740e+02
104             	3.27648723e+02
105             	3.27769031e+02
106             	3.27892084e+02
107             	3.27967383e+02
108             	3.27936886e+02
109             	3.27861599e+02
110             	3.27805185e+02
111             	3.27823140e+02
112             	3.27887320e+02
113             	3.27956519e+02
114             	3.28018786e+02
115             	3.28098053e+02
116             	3.28217755e+02
117             	3.28349312e+02
118             	3.28483071e+02
119             	3.28593408e+02
120             	3.28733991e+02
121             	3.28893015e+02
122             	3.29051152e+02
123             	3.29186942e+02
124             	3.29265573e+02
125             	3.29325397e+02
126             	3.29306930e+02
127             	3.29213296e+02
128             	3.29160400e+02
129             	3.29189886e+02
130             	3.29261602e+02
131             	3.29321643e+02
132             	3.29378393e+02
133             	3.29438591e+02
134             	3.29493265e+02
135             	3.29561753e+02
136             	3.29651894e+02
137             	3.29781366e+02
138             	3.29938443e+02
139             	3.30109661e+02
140             	3.30229161e+02
141             	3.30287494e+02
142             	3.30300039e+02
143             	3.30276709e+02
144             	3.30248077e+02
145             	3.30245899e+02
146             	3.30256567e+02
147             	3.30282443e+02
148             	3.30315171e+02
149             	3.30364443e+02
150             	3.30428484e+02
151             	3.30509449e+02
152             	3.30602804e+02
153             	3.30664369e+02
154             	3.30718987e+02
155             	3.30790686e+02
156             	3.30883597e+02
157             	3.30943609e+02
158             	3.30993787e+02
159             	3.31025050e+02
160             	3.31054026e+02
161             	3.31079385e+02
162             	3.31091124e+02
163             	3.31112852e+02
164             	3.31144705e+02
165             	3.31204142e+02
166             	3.31277680e+02
167             	3.31361589e+02
168             	3.31439474e+02
169             	3.31499852e+02
170             	3.31567721e+02
171             	3.31640509e+02
172             	3.31711495e+02
173             	3.31770296e+02
174             	3.31788855e+02
175             	3.31806225e+02
176             	3.31821258e+02
177             	3.31817593e+02
178             	3.31813132e+02
179             	3.31803725e+02
180             	3.31808364e+02
181             	3.31831281e+02
182             	3.31870824e+02
183             	3.31939015e+02
184             	3.32007525e+02
185             	3.32088368e+02
186             	3.32145943e+02
187             	3.32214942e+02
188             	3.32288784e+02
189             	3.32344640e+02
190             	3.32392726e+02
191             	3.32408687e+02
192             	3.32407485e+02
193             	3.32372353e+02
194             	3.32341576e+02
195             	3.32316973e+02
196             	3.32306508e+02
197             	3.32293929e+02
198             	3.32280146e+02
199             	3.32278786e+02
200             	3.32288052e+02
201             	3.32321621e+02
202             	3.32376297e+02
203             	3.32399471e+02
204             	3.32411212e+02
205             	3.32417382e+02
206             	3.32454902e+02
207             	3.32482261e+02
208             	3.32468984e+02
209             	3.32411694e+02
210             	3.32369333e+02
211             	3.32347859e+02
212             	3.32329216e+02
213             	3.32308004e+02
214             	3.32276228e+02
215             	3.32249362e+02
216             	3.32249795e+02
217             	3.32259388e+02
218             	3.32264763e+02
219             	3.32285526e+02
220             	3.32310030e+02
221             	3.32325329e+02
222             	3.32342654e+02
223             	3.32353272e+02
224             	3.32368030e+02
225             	3.32387118e+02
226             	3.32401019e+02
227             	3.32388133e+02
228             	3.32388409e+02
229             	3.32400908e+02
230             	3.32422024e+02
231             	3.32438026e+02
232             	3.32445670e+02
233             	3.32468828e+02
234             	3.32495621e+02
235             	3.32535835e+02
236             	3.32578318e+02
237             	3.32612857e+02
238             	3.32627869e+02
239             	3.32639290e+02
240             	3.32648538e+02
241             	3.32632909e+02
242             	3.32618609e+02
243             	3.32608513e+02
244             	3.32602038e+02
245             	3.32596252e+02
246             	3.32595590e+02
247             	3.32602315e+02
248             	3.32620805e+02
249             	3.32646030e+02
250             	3.32689849e+02
251             	3.32735841e+02
252             	3.32785640e+02
253             	3.32843440e+02
254             	3.32892092e+02
255             	3.32911711e+02
256             	3.32928570e+02
257             	3.32935276e+02
258             	3.32945723e+02
259             	3.32938121e+02
260             	3.32923600e+02
261             	3.32910810e+02
262             	3.32913307e+02
263             	3.32915383e+02
264             	3.32905557e+02
265             	3.32890262e+02
266             	3.32878158e+02
267             	3.32863486e+02
268             	3.32855164e+02
269             	3.32870816e+02
270             	3.32900239e+02
271             	3.32935708e+02
272             	3.32976274e+02
273             	3.33021534e+02
274             	3.33065626e+02
275             	3.33075639e+02
276             	3.33074418e+02
277             	3.33073781e+02
278             	3.33052919e+02
279             	3.33038896e+02
280             	3.33025776e+02
281             	3.32996542e+02
282             	3.32972955e+02
283             	3.32947154e+02
284             	3.32918765e+02
285             	3.32890031e+02
286             	3.32871776e+02
287             	3.32863041e+02
288             	3.32871009e+02
289             	3.32872019e+02
290             	3.32870525e+02
291             	3.32886987e+02
292             	3.32890741e+02
293             	3.32900993e+02
294             	3.32926128e+02
295             	3.32956813e+02
296             	3.32978906e+02
297             	3.32995768e+02
298             	3.33000892e+02
299             	3.33019954e+02
300             	3.33037662e+02
301             	3.33040317e+02
302             	3.33033014e+02
303             	3.33023296e+02
304             	3.33019914e+02
305             	3.33012543e+02
306             	3.32995958e+02
307             	3.32985653e+02
308             	3.32974021e+02
309             	3.32980392e+02
310             	3.32983948e+02
311             	3.32984896e+02
312             	3.32980641e+02
313             	3.32989071e+02
314             	3.32983522e+02
315             	3.32985820e+02
316             	3.32993995e+02
317             	3.33004046e+02
318             	3.33010957e+02
319             	3.33010053e+02
320             	3.33003105e+02
321             	3.32994344e+02
322             	3.32974526e+02
323             	3.32961626e+02
324             	3.32940458e+02
325             	3.32925569e+02
326             	3.32920382e+02
327             	3.32910569e+02
328             	3.32902359e+02
329             	3.32883895e+02
330             	3.32878677e+02
331             	3.32885284e+02
332             	3.32891167e+02
333             	3.32875314e+02
334             	3.32869795e+02
335             	3.32874541e+02
336             	3.32882948e+02
337             	3.32878313e+02
338             	3.32878272e+02
339             	3.32870874e+02
340             	3.32868347e+02
341             	3.32851931e+02
342             	3.32837922e+02
343             	3.32825863e+02
344             	3.32816320e+02
345             	3.32805593e+02
346             	3.32798096e+02
347             	3.32799756e+02
348             	3.32810865e+02
349             	3.32817890e+02
350             	3.32841380e+02
351             	3.32850017e+02
352             	3.32868330e+02
353             	3.32895542e+02
354             	3.32923708e+02
355             	3.32949197e+02
356             	3.32961354e+02
357             	3.32960767e+02
358             	3.32945262e+02
359             	3.32933524e+02
360             	3.32923300e+02
361             	3.32914638e+02
362             	3.32903297e+02
363             	3.32878456e+02
364             	3.32865359e+02
365             	3.32861413e+02
366             	3.32866295e+02
367             	3.32874226e+02
368             	3.32869153e+02
369             	3.32878754e+02
370             	3.32889565e+02
371             	3.32910597e+02
372             	3.32919451e+02
373             	3.32931856e+02
374             	3.32940284e+02
375             	3.32943901e+02
376             	3.32940188e+02
377             	3.32933374e+02
378             	3.32914882e+02
379             	3.32906199e+02
380             	3.32892994e+02
381             	3.32891771e+02
382             	3.32899312e+02
383             	3.32906196e+02
384             	3.32923843e+02
385             	3.32949257e+02
386             	3.32964418e+02
387             	3.32990379e+02
388             	3.33009378e+02
389             	3.33033075e+02
390             	3.33047837e+02
391             	3.33064035e+02
392             	3.33065419e+02
393             	3.33067617e+02
394             	3.33057798e+02
395             	3.33048145e+02
396             	3.33045113e+02
397             	3.33042730e+02
398             	3.33025384e+02
399             	3.33014386e+02
400             	3.33012502e+02
401             	3.33016143e+02
402             	3.33020647e+02
403             	3.33025492e+02
404             	3.33018618e+02
405             	3.33022134e+02
406             	3.33021544e+02
407             	3.33026705e+02
408             	3.33020230e+02
409             	3.33019920e+02
410             	3.33011524e+02
411             	3.33007328e+02
412             	3.33009140e+02
413             	3.32996524e+02
414             	3.32987817e+02
415             	3.32984648e+02
416             	3.32984664e+02
417             	3.32982691e+02
418             	3.32981783e+02
419             	3.32971755e+02
420             	3.32970819e+02
421             	3.32978353e+02
422             	3.32975301e+02
423             	3.32980086e+02
424             	3.32992463e+02
425             	3.32993413e+02
426             	3.33001072e+02
427             	3.33014711e+02
428             	3.33014643e+02
429             	3.33020024e+02
430             	3.33030055e+02
431             	3.33027696e+02
432             	3.33030356e+02
433             	3.33037786e+02
434             	3.33031408e+02
435             	3.33030677e+02
436             	3.33036504e+02
437             	3.33030813e+02
438             	3.33031464e+02
439             	3.33027744e+02
440             	3.33032251e+02
441             	3.33040236e+02
442             	3.33045545e+02
443             	3.33038146e+02
444             	3.33037794e+02
445             	3.33042622e+02
446             	3.33051729e+02
447             	3.33045596e+02
448             	3.33047002e+02
449             	3.33043846e+02
450             	3.33048999e+02
451             	3.33058601e+02
452             	3.33053964e+02
453             	3.33053232e+02
454             	3.33056285e+02
455             	3.33046661e+02
456             	3.33042683e+02
457             	3.33045195e+02
458             	3.33034360e+02
459             	3.33030797e+02
460             	3.33023155e+02
461             	3.33023588e+02
462             	3.33018145e+02
463             	3.33019445e+02
464             	3.33023807e+02
465             	3.33017120e+02
466             	3.33017026e+02
467             	3.33022968e+02
468             	3.33017395e+02
469             	3.33018512e+02
470             	3.33027723e+02
471             	3.33022434e+02
472             	3.33022521e+02
473             	3.33029560e+02
474             	3.33024159e+02
475             	3.33024902e+02
476             	3.33033219e+02
477             	3.33027485e+02
478             	3.33027767e+02
479             	3.33035678e+02
480             	3.33030392e+02
481             	3.33031047e+02
482             	3.33027004e+02
483             	3.33030780e+02
484             	3.33038655e+02
485             	3.33032929e+02
486             	3.33032806e+02
487             	3.33038021e+02
488             	3.33043202e+02
489             	3.33035887e+02
490             	3.33035442e+02
491             	3.33041593e+02
492             	3.33036598e+02
493             	3.33038640e+02
494             	3.33036919e+02
495             	3.33042358e+02
496             	3.33038893e+02
497             	3.33042191e+02
498             	3.33049736e+02
499             	3.33042859e+02
500             	3.33042045e+02
501             	3.33046267e+02
502             	3.33052809e+02
503             	3.33043459e+02
504             	3.33042263e+02
505             	3.33052326e+02
506             	3.33047120e+02
507             	3.33047263e+02
508             	3.33054994e+02
509             	3.33052259e+02
510             	3.33055799e+02
511             	3.33061236e+02
512             	3.33052194e+02
513             	3.33049244e+02
514             	3.33049002e+02
515             	3.33051657e+02
516             	3.33040255e+02
517             	3.33034793e+02
518             	3.33034323e+02
519             	3.33038915e+02
520             	3.33029337e+02
521             	3.33028440e+02
522             	3.33027006e+02
523             	3.33034530e+02
524             	3.33044914e+02
525             	3.33053765e+02
526             	3.33046381e+02
527             	3.33045993e+02
528             	3.33051631e+02
529             	3.33042853e+02
530             	3.33038026e+02
531             	3.33036981e+02
532             	3.33026347e+02
533             	3.33022391e+02
534             	3.33022736e+02
535             	3.33024457e+02
536             	3.33014688e+02
537             	3.33014588e+02
538             	3.33023383e+02
539             	3.33023644e+02
540             	3.33030344e+02
541             	3.33044227e+02
542             	3.33044195e+02
543             	3.33050219e+02
544             	3.33050007e+02
545             	3.33056215e+02
546             	3.33065482e+02
547             	3.33059057e+02
548             	3.33056896e+02
549             	3.33061571e+02
550             	3.33050846e+02
551             	3.33046043e+02
552             	3.33048478e+02
553             	3.33054610e+02
554             	3.33060349e+02
555             	3.33050487e+02
556             	3.33050255e+02
557             	3.33058319e+02
558             	3.33057833e+02
559             	3.33064284e+02
560             	3.33062794e+02
561             	3.33068394e+02
562             	3.33066375e+02
563             	3.33068088e+02
564             	3.33069384e+02
565             	3.33069709e+02
566             	3.33072870e+02
567             	3.33057745e+02
568             	3.33049153e+02
569             	3.33049068e+02
570             	3.33039849e+02
571             	3.33039728e+02
572             	3.33050243e+02
573             	3.33047693e+02
574             	3.33051130e+02
575             	3.33063315e+02
576             	3.33061572e+02
577             	3.33065467e+02
578             	3.33077897e+02
579             	3.33074913e+02
580             	3.33075193e+02
581             	3.33078820e+02
582             	3.33078987e+02
583             	3.33063127e+02
584             	3.33055322e+02
585             	3.33054782e+02
586             	3.33044866e+02
587             	3.33041308e+02
588             	3.33044860e+02
589             	3.33037945e+02
590             	3.33038525e+02
591             	3.33035640e+02
592             	3.33042728e+02
593             	3.33055175e+02
594             	3.33052974e+02
595             	3.33055212e+02
596             	3.33049745e+02
597             	3.33051592e+02
598             	3.33055596e+02
599             	3.33045506e+02
600             	3.33039371e+02
601             	3.33039307e+02
602             	3.33029714e+02
603             	3.33027141e+02
604             	3.33033080e+02
605             	3.33027018e+02
606             	3.33029515e+02
607             	3.33040830e+02
608             	3.33040095e+02
609             	3.33045981e+02
610             	3.33058618e+02
611             	3.33059120e+02
612             	3.33065037e+02
613             	3.33065407e+02
614             	3.33072446e+02
615             	3.33071699e+02
616             	3.33076943e+02
617             	3.33086556e+02
618             	3.33080819e+02
619             	3.33079825e+02
620             	3.33083752e+02
621             	3.33077199e+02
