# Region        : cellZone pcb
# Cells         : 636
# Volume        : 1.17287416e+00
# Time          	volAverage(T)
1               	3.00014525e+02
2               	3.00042268e+02
3               	3.00079941e+02
4               	3.00127008e+02
5               	3.00181375e+02
6               	3.00241575e+02
7               	3.00309841e+02
8               	3.00385169e+02
9               	3.00464387e+02
10              	3.00548620e+02
11              	3.00638899e+02
12              	3.00730881e+02
13              	3.00829018e+02
14              	3.00933596e+02
15              	3.01043878e+02
16              	3.01156808e+02
17              	3.01271064e+02
18              	3.01387514e+02
19              	3.01508781e+02
20              	3.01629993e+02
21              	3.01751454e+02
22              	3.01875003e+02
23              	3.02002713e+02
24              	3.02127605e+02
25              	3.02252629e+02
26              	3.02378792e+02
27              	3.02506330e+02
28              	3.02641322e+02
29              	3.02773290e+02
30              	3.02905930e+02
31              	3.03041741e+02
32              	3.03182305e+02
33              	3.03319983e+02
34              	3.03454793e+02
35              	3.03590633e+02
36              	3.03730364e+02
37              	3.03870359e+02
38              	3.04009243e+02
39              	3.04144771e+02
40              	3.04281973e+02
41              	3.04418259e+02
42              	3.04558411e+02
43              	3.04699110e+02
44              	3.04840086e+02
45              	3.04985781e+02
46              	3.05133249e+02
47              	3.05269980e+02
48              	3.05404372e+02
49              	3.05536267e+02
50              	3.05667280e+02
51              	3.05800796e+02
52              	3.05932861e+02
53              	3.06066146e+02
54              	3.06191680e+02
55              	3.06308388e+02
56              	3.06433367e+02
57              	3.06562348e+02
58              	3.06676806e+02
59              	3.06794019e+02
60              	3.06913551e+02
61              	3.07036854e+02
62              	3.07160231e+02
63              	3.07281112e+02
64              	3.07405695e+02
65              	3.07538059e+02
66              	3.07672150e+02
67              	3.07798729e+02
68              	3.07918468e+02
69              	3.08032140e+02
70              	3.08144227e+02
71              	3.08254255e+02
72              	3.08368066e+02
73              	3.08484124e+02
74              	3.08589193e+02
75              	3.08699087e+02
76              	3.08807056e+02
77              	3.08915970e+02
78              	3.09021619e+02
79              	3.09129639e+02
80              	3.09236130e+02
81              	3.09345589e+02
82              	3.09460035e+02
83              	3.09572693e+02
84              	3.09678385e+02
85              	3.09781542e+02
86              	3.09886537e+02
87              	3.09990689e+02
88              	3.10096299e+02
89              	3.10203524e+02
90              	3.10307011e+02
91              	3.10403804e+02
92              	3.10501136e+02
93              	3.10599183e+02
94              	3.10700551e+02
95              	3.10805165e+02
96              	3.10911185e+02
97              	3.11014864e+02
98              	3.11115172e+02
99              	3.11213587e+02
100             	3.11310832e+02
101             	3.11405955e+02
102             	3.11500028e+02
103             	3.11590333e+02
104             	3.11679799e+02
105             	3.11769017e+02
106             	3.11856117e+02
107             	3.11939397e+02
108             	3.12020712e+02
109             	3.12103537e+02
110             	3.12186563e+02
111             	3.12268704e+02
112             	3.12350032e+02
113             	3.12432659e+02
114             	3.12517183e+02
115             	3.12605420e+02
116             	3.12692343e+02
117             	3.12775848e+02
118             	3.12862468e+02
119             	3.12949519e+02
120             	3.13034788e+02
121             	3.13119583e+02
122             	3.13203079e+02
123             	3.13286344e+02
124             	3.13366049e+02
125             	3.13443889e+02
126             	3.13519239e+02
127             	3.13591387e+02
128             	3.13662117e+02
129             	3.13731878e+02
130             	3.13800852e+02
131             	3.13868789e+02
132             	3.13936878e+02
133             	3.14005106e+02
134             	3.14072968e+02
135             	3.14139725e+02
136             	3.14206513e+02
137             	3.14274934e+02
138             	3.14342856e+02
139             	3.14415584e+02
140             	3.14491163e+02
141             	3.14564710e+02
142             	3.14636052e+02
143             	3.14707289e+02
144             	3.14777394e+02
145             	3.14845973e+02
146             	3.14912605e+02
147             	3.14977961e+02
148             	3.15042761e+02
149             	3.15107180e+02
150             	3.15169351e+02
151             	3.15233673e+02
152             	3.15300755e+02
153             	3.15364920e+02
154             	3.15425917e+02
155             	3.15486934e+02
156             	3.15542615e+02
157             	3.15595530e+02
158             	3.15646535e+02
159             	3.15698280e+02
160             	3.15749883e+02
161             	3.15802581e+02
162             	3.15855989e+02
163             	3.15911424e+02
164             	3.15968405e+02
165             	3.16028734e+02
166             	3.16086814e+02
167             	3.16141269e+02
168             	3.16193052e+02
169             	3.16242963e+02
170             	3.16292471e+02
171             	3.16341323e+02
172             	3.16389280e+02
173             	3.16438717e+02
174             	3.16488942e+02
175             	3.16538860e+02
176             	3.16589378e+02
177             	3.16642082e+02
178             	3.16693789e+02
179             	3.16743607e+02
180             	3.16794956e+02
181             	3.16841006e+02
182             	3.16884408e+02
183             	3.16927306e+02
184             	3.16970038e+02
185             	3.17012388e+02
186             	3.17054914e+02
187             	3.17096518e+02
188             	3.17137118e+02
189             	3.17177990e+02
190             	3.17218997e+02
191             	3.17261101e+02
192             	3.17304441e+02
193             	3.17346181e+02
194             	3.17387109e+02
195             	3.17428539e+02
196             	3.17470248e+02
197             	3.17512185e+02
198             	3.17554782e+02
199             	3.17596157e+02
200             	3.17638070e+02
201             	3.17681096e+02
202             	3.17724774e+02
203             	3.17769865e+02
204             	3.17811985e+02
205             	3.17849697e+02
206             	3.17885065e+02
207             	3.17919804e+02
208             	3.17954654e+02
209             	3.17988584e+02
210             	3.18022210e+02
211             	3.18054460e+02
212             	3.18086348e+02
213             	3.18117592e+02
214             	3.18149028e+02
215             	3.18182073e+02
216             	3.18213064e+02
217             	3.18243652e+02
218             	3.18274980e+02
219             	3.18306824e+02
220             	3.18339146e+02
221             	3.18371792e+02
222             	3.18404731e+02
223             	3.18437579e+02
224             	3.18471424e+02
225             	3.18504956e+02
226             	3.18538855e+02
227             	3.18571719e+02
228             	3.18604325e+02
229             	3.18637137e+02
230             	3.18669404e+02
231             	3.18700945e+02
232             	3.18731485e+02
233             	3.18760348e+02
234             	3.18787005e+02
235             	3.18813449e+02
236             	3.18837908e+02
237             	3.18862919e+02
238             	3.18888623e+02
239             	3.18912905e+02
240             	3.18937771e+02
241             	3.18963028e+02
242             	3.18987727e+02
243             	3.19013457e+02
244             	3.19039908e+02
245             	3.19067071e+02
246             	3.19093566e+02
247             	3.19119179e+02
248             	3.19145039e+02
249             	3.19170437e+02
250             	3.19194870e+02
251             	3.19217714e+02
252             	3.19239582e+02
253             	3.19260971e+02
254             	3.19281519e+02
255             	3.19301612e+02
256             	3.19322352e+02
257             	3.19341932e+02
258             	3.19361066e+02
259             	3.19379778e+02
260             	3.19398844e+02
261             	3.19417823e+02
262             	3.19437774e+02
263             	3.19457788e+02
264             	3.19478730e+02
265             	3.19499719e+02
266             	3.19521275e+02
267             	3.19542320e+02
268             	3.19563261e+02
269             	3.19584396e+02
270             	3.19604970e+02
271             	3.19624795e+02
272             	3.19643363e+02
273             	3.19661124e+02
274             	3.19678644e+02
275             	3.19696261e+02
276             	3.19713592e+02
277             	3.19730640e+02
278             	3.19746118e+02
279             	3.19761589e+02
280             	3.19777209e+02
281             	3.19793693e+02
282             	3.19811013e+02
283             	3.19828805e+02
284             	3.19846333e+02
285             	3.19863760e+02
286             	3.19881262e+02
287             	3.19899184e+02
288             	3.19917199e+02
289             	3.19934887e+02
290             	3.19951711e+02
291             	3.19967947e+02
292             	3.19983187e+02
293             	3.19997855e+02
294             	3.20011948e+02
295             	3.20025626e+02
296             	3.20038503e+02
297             	3.20050977e+02
298             	3.20062954e+02
299             	3.20075126e+02
300             	3.20086574e+02
301             	3.20097958e+02
302             	3.20109659e+02
303             	3.20121262e+02
304             	3.20133204e+02
305             	3.20145549e+02
306             	3.20157330e+02
307             	3.20169086e+02
308             	3.20181163e+02
309             	3.20193620e+02
310             	3.20206814e+02
311             	3.20220224e+02
312             	3.20233822e+02
313             	3.20246944e+02
314             	3.20259826e+02
315             	3.20272521e+02
316             	3.20284457e+02
317             	3.20295446e+02
318             	3.20306078e+02
319             	3.20316450e+02
320             	3.20326313e+02
321             	3.20336040e+02
322             	3.20345444e+02
323             	3.20355119e+02
324             	3.20364419e+02
325             	3.20374163e+02
326             	3.20383415e+02
327             	3.20392705e+02
328             	3.20402010e+02
329             	3.20411743e+02
330             	3.20421345e+02
331             	3.20430917e+02
332             	3.20440932e+02
333             	3.20451203e+02
334             	3.20461556e+02
335             	3.20471939e+02
336             	3.20482284e+02
337             	3.20492508e+02
338             	3.20502493e+02
339             	3.20512040e+02
340             	3.20521182e+02
341             	3.20529864e+02
342             	3.20538299e+02
343             	3.20546351e+02
344             	3.20554402e+02
345             	3.20561925e+02
346             	3.20569011e+02
347             	3.20576155e+02
348             	3.20582829e+02
349             	3.20589512e+02
350             	3.20596028e+02
351             	3.20602792e+02
352             	3.20609323e+02
353             	3.20615804e+02
354             	3.20621975e+02
355             	3.20628523e+02
356             	3.20634918e+02
357             	3.20641447e+02
358             	3.20647806e+02
359             	3.20654368e+02
360             	3.20660924e+02
361             	3.20667814e+02
362             	3.20674467e+02
363             	3.20681545e+02
364             	3.20688223e+02
365             	3.20694908e+02
366             	3.20701932e+02
367             	3.20708719e+02
368             	3.20715800e+02
369             	3.20722564e+02
370             	3.20729164e+02
371             	3.20735631e+02
372             	3.20742427e+02
373             	3.20749140e+02
374             	3.20755748e+02
375             	3.20762873e+02
376             	3.20769806e+02
377             	3.20776998e+02
378             	3.20784233e+02
379             	3.20791905e+02
380             	3.20799451e+02
381             	3.20806894e+02
382             	3.20814339e+02
383             	3.20821831e+02
384             	3.20829121e+02
385             	3.20835773e+02
386             	3.20842180e+02
387             	3.20848251e+02
388             	3.20854003e+02
389             	3.20859479e+02
390             	3.20864156e+02
391             	3.20868280e+02
392             	3.20871680e+02
393             	3.20874573e+02
394             	3.20877818e+02
395             	3.20880707e+02
396             	3.20883795e+02
397             	3.20886666e+02
398             	3.20889686e+02
399             	3.20892816e+02
400             	3.20896601e+02
401             	3.20900326e+02
402             	3.20904750e+02
403             	3.20909155e+02
404             	3.20914067e+02
405             	3.20919107e+02
406             	3.20924419e+02
407             	3.20929388e+02
408             	3.20934656e+02
409             	3.20939495e+02
410             	3.20944043e+02
411             	3.20948417e+02
412             	3.20952322e+02
413             	3.20956132e+02
414             	3.20959623e+02
415             	3.20963469e+02
416             	3.20966885e+02
417             	3.20970467e+02
418             	3.20974105e+02
419             	3.20977976e+02
420             	3.20981578e+02
421             	3.20985651e+02
422             	3.20989483e+02
423             	3.20993889e+02
424             	3.20997967e+02
425             	3.21001488e+02
426             	3.21004492e+02
427             	3.21007920e+02
428             	3.21011007e+02
429             	3.21014205e+02
430             	3.21017593e+02
431             	3.21020968e+02
432             	3.21024408e+02
433             	3.21027688e+02
434             	3.21030941e+02
435             	3.21034263e+02
436             	3.21037731e+02
437             	3.21041030e+02
438             	3.21044385e+02
439             	3.21047350e+02
440             	3.21050599e+02
441             	3.21053398e+02
442             	3.21056309e+02
443             	3.21059005e+02
444             	3.21062151e+02
445             	3.21064876e+02
446             	3.21067628e+02
447             	3.21070546e+02
448             	3.21073635e+02
449             	3.21076664e+02
450             	3.21080171e+02
451             	3.21083229e+02
452             	3.21086365e+02
453             	3.21089629e+02
454             	3.21092709e+02
455             	3.21096030e+02
456             	3.21099921e+02
457             	3.21103339e+02
458             	3.21106602e+02
459             	3.21109921e+02
460             	3.21112931e+02
461             	3.21115679e+02
462             	3.21118574e+02
463             	3.21120244e+02
464             	3.21121133e+02
465             	3.21122019e+02
466             	3.21123012e+02
467             	3.21124716e+02
468             	3.21126582e+02
469             	3.21129064e+02
470             	3.21131300e+02
471             	3.21133823e+02
472             	3.21136592e+02
473             	3.21139500e+02
474             	3.21142284e+02
475             	3.21145089e+02
476             	3.21147541e+02
477             	3.21149604e+02
478             	3.21150970e+02
479             	3.21152330e+02
480             	3.21153232e+02
481             	3.21154395e+02
482             	3.21154889e+02
483             	3.21155323e+02
484             	3.21155685e+02
485             	3.21156199e+02
486             	3.21156272e+02
487             	3.21156395e+02
488             	3.21157200e+02
489             	3.21158087e+02
490             	3.21159138e+02
491             	3.21160673e+02
492             	3.21162895e+02
493             	3.21165817e+02
494             	3.21168823e+02
495             	3.21171976e+02
496             	3.21174362e+02
497             	3.21176578e+02
498             	3.21178516e+02
499             	3.21180529e+02
500             	3.21182142e+02
501             	3.21183947e+02
502             	3.21185912e+02
503             	3.21187477e+02
504             	3.21188904e+02
505             	3.21190023e+02
506             	3.21190854e+02
507             	3.21191217e+02
508             	3.21191169e+02
509             	3.21190880e+02
510             	3.21190321e+02
511             	3.21189980e+02
512             	3.21189486e+02
513             	3.21188845e+02
514             	3.21188438e+02
515             	3.21188507e+02
516             	3.21188902e+02
517             	3.21189868e+02
518             	3.21191121e+02
519             	3.21192981e+02
520             	3.21195644e+02
521             	3.21198138e+02
522             	3.21201174e+02
523             	3.21204277e+02
524             	3.21207214e+02
525             	3.21210152e+02
526             	3.21212028e+02
527             	3.21213864e+02
528             	3.21215729e+02
529             	3.21217324e+02
530             	3.21219093e+02
531             	3.21220388e+02
532             	3.21221697e+02
533             	3.21222144e+02
534             	3.21222840e+02
535             	3.21223463e+02
536             	3.21222512e+02
537             	3.21221319e+02
538             	3.21220209e+02
539             	3.21219256e+02
540             	3.21218897e+02
541             	3.21219220e+02
542             	3.21219933e+02
543             	3.21220909e+02
544             	3.21222125e+02
545             	3.21223265e+02
546             	3.21224941e+02
547             	3.21226678e+02
548             	3.21228880e+02
549             	3.21230706e+02
550             	3.21232981e+02
551             	3.21234715e+02
552             	3.21236812e+02
553             	3.21238682e+02
554             	3.21240713e+02
555             	3.21242170e+02
556             	3.21243760e+02
557             	3.21245636e+02
558             	3.21247423e+02
559             	3.21249205e+02
560             	3.21250610e+02
561             	3.21251953e+02
562             	3.21253088e+02
563             	3.21254777e+02
564             	3.21255961e+02
565             	3.21257762e+02
566             	3.21258850e+02
567             	3.21260594e+02
568             	3.21261760e+02
569             	3.21263034e+02
570             	3.21264114e+02
571             	3.21265545e+02
572             	3.21266852e+02
573             	3.21268640e+02
574             	3.21270297e+02
575             	3.21270822e+02
576             	3.21271334e+02
577             	3.21272134e+02
578             	3.21273096e+02
579             	3.21274018e+02
580             	3.21275148e+02
581             	3.21276641e+02
582             	3.21278178e+02
583             	3.21279858e+02
584             	3.21282067e+02
585             	3.21284015e+02
586             	3.21286465e+02
587             	3.21288551e+02
588             	3.21290759e+02
589             	3.21292630e+02
590             	3.21294317e+02
591             	3.21296023e+02
592             	3.21297915e+02
593             	3.21299145e+02
594             	3.21299984e+02
595             	3.21300611e+02
596             	3.21300895e+02
597             	3.21300831e+02
598             	3.21300581e+02
599             	3.21301090e+02
600             	3.21301708e+02
601             	3.21303291e+02
602             	3.21303658e+02
603             	3.21302900e+02
604             	3.21302362e+02
605             	3.21302330e+02
606             	3.21302493e+02
607             	3.21303369e+02
608             	3.21304456e+02
609             	3.21304949e+02
610             	3.21306340e+02
611             	3.21307571e+02
612             	3.21308515e+02
613             	3.21309277e+02
614             	3.21309599e+02
615             	3.21309287e+02
616             	3.21308177e+02
617             	3.21306566e+02
618             	3.21304751e+02
619             	3.21302857e+02
620             	3.21301322e+02
621             	3.21299471e+02
