# Region        : cellZone component_4
# Cells         : 32
# Volume        : 4.05069985e-02
# Time          	volAverage(T)
1               	3.02107882e+02
2               	3.04183650e+02
3               	3.06042391e+02
4               	3.07793599e+02
5               	3.09493226e+02
6               	3.11155005e+02
7               	3.12782058e+02
8               	3.14389535e+02
9               	3.15987606e+02
10              	3.17558849e+02
11              	3.19101415e+02
12              	3.20610947e+02
13              	3.22101184e+02
14              	3.23551672e+02
15              	3.24980215e+02
16              	3.26280297e+02
17              	3.27472177e+02
18              	3.28570254e+02
19              	3.29588806e+02
20              	3.30571516e+02
21              	3.31541041e+02
22              	3.32540986e+02
23              	3.33454272e+02
24              	3.34366524e+02
25              	3.35270849e+02
26              	3.36169343e+02
27              	3.37068306e+02
28              	3.37984043e+02
29              	3.38859150e+02
30              	3.39688200e+02
31              	3.40481850e+02
32              	3.41195276e+02
33              	3.41879745e+02
34              	3.42474212e+02
35              	3.43060399e+02
36              	3.43670471e+02
37              	3.44284640e+02
38              	3.44908895e+02
39              	3.45553124e+02
40              	3.46237377e+02
41              	3.46942592e+02
42              	3.47667543e+02
43              	3.48398944e+02
44              	3.49091773e+02
45              	3.49727060e+02
46              	3.50278941e+02
47              	3.50761246e+02
48              	3.51199765e+02
49              	3.51627364e+02
50              	3.52069772e+02
51              	3.52547165e+02
52              	3.53024804e+02
53              	3.53485435e+02
54              	3.53916888e+02
55              	3.54358242e+02
56              	3.54808783e+02
57              	3.55273485e+02
58              	3.55728217e+02
59              	3.56195704e+02
60              	3.56675611e+02
61              	3.57157114e+02
62              	3.57649997e+02
63              	3.58154557e+02
64              	3.58654958e+02
65              	3.59155160e+02
66              	3.59670512e+02
67              	3.60158293e+02
68              	3.60643267e+02
69              	3.61091324e+02
70              	3.61542305e+02
71              	3.61956993e+02
72              	3.62400460e+02
73              	3.62836070e+02
74              	3.63238889e+02
75              	3.63579008e+02
76              	3.63918112e+02
77              	3.64212327e+02
78              	3.64585701e+02
79              	3.64905649e+02
80              	3.65227707e+02
81              	3.65559183e+02
82              	3.65873160e+02
83              	3.66192371e+02
84              	3.66491084e+02
85              	3.66834004e+02
86              	3.67125460e+02
87              	3.67355962e+02
88              	3.67503489e+02
89              	3.67660464e+02
90              	3.67826681e+02
91              	3.68028951e+02
92              	3.68277499e+02
93              	3.68514504e+02
94              	3.68702533e+02
95              	3.68883036e+02
96              	3.69081567e+02
97              	3.69307236e+02
98              	3.69527431e+02
99              	3.69770391e+02
100             	3.69981278e+02
101             	3.70212913e+02
102             	3.70412842e+02
103             	3.70606414e+02
104             	3.70803670e+02
105             	3.71026119e+02
106             	3.71236360e+02
107             	3.71476617e+02
108             	3.71709194e+02
109             	3.71937715e+02
110             	3.72123874e+02
111             	3.72301614e+02
112             	3.72478438e+02
113             	3.72666418e+02
114             	3.72870660e+02
115             	3.73086698e+02
116             	3.73305358e+02
117             	3.73518643e+02
118             	3.73726467e+02
119             	3.73923065e+02
120             	3.74117132e+02
121             	3.74329149e+02
122             	3.74556336e+02
123             	3.74773433e+02
124             	3.74990533e+02
125             	3.75218030e+02
126             	3.75455555e+02
127             	3.75694924e+02
128             	3.75936886e+02
129             	3.76180740e+02
130             	3.76431557e+02
131             	3.76694572e+02
132             	3.76960980e+02
133             	3.77242843e+02
134             	3.77533936e+02
135             	3.77847585e+02
136             	3.78176938e+02
137             	3.78509063e+02
138             	3.78847374e+02
139             	3.79183852e+02
140             	3.79521006e+02
141             	3.79854474e+02
142             	3.80193921e+02
143             	3.80514923e+02
144             	3.80845122e+02
145             	3.81187374e+02
146             	3.81506247e+02
147             	3.81823059e+02
148             	3.82153872e+02
149             	3.82421549e+02
150             	3.82726923e+02
151             	3.83060824e+02
152             	3.83323097e+02
153             	3.83603943e+02
154             	3.83777926e+02
155             	3.83990727e+02
156             	3.84218100e+02
157             	3.84431018e+02
158             	3.84630945e+02
159             	3.84810188e+02
160             	3.85002431e+02
161             	3.85208758e+02
162             	3.85465579e+02
163             	3.85672570e+02
164             	3.85860133e+02
165             	3.86054842e+02
166             	3.86288475e+02
167             	3.86445091e+02
168             	3.86520268e+02
169             	3.86493893e+02
170             	3.86345028e+02
171             	3.86204258e+02
172             	3.86085917e+02
173             	3.86003717e+02
174             	3.85931523e+02
175             	3.85931296e+02
176             	3.85993388e+02
177             	3.86080582e+02
178             	3.86208361e+02
179             	3.86224826e+02
180             	3.86244344e+02
181             	3.86232828e+02
182             	3.86169721e+02
183             	3.86114975e+02
184             	3.86023335e+02
185             	3.85919798e+02
186             	3.85782440e+02
187             	3.85572839e+02
188             	3.85341575e+02
189             	3.85080839e+02
190             	3.84850922e+02
191             	3.84632897e+02
192             	3.84382718e+02
193             	3.84107198e+02
194             	3.83860665e+02
195             	3.83578530e+02
196             	3.83357416e+02
197             	3.83186077e+02
198             	3.83081418e+02
199             	3.83001967e+02
200             	3.82943400e+02
201             	3.82883454e+02
202             	3.82811246e+02
203             	3.82709786e+02
204             	3.82713465e+02
205             	3.82669595e+02
206             	3.82508993e+02
207             	3.82298789e+02
208             	3.82079359e+02
209             	3.81876649e+02
210             	3.81749644e+02
211             	3.81518322e+02
212             	3.81235282e+02
213             	3.80962650e+02
214             	3.80749468e+02
215             	3.80573927e+02
216             	3.80460825e+02
217             	3.80407690e+02
218             	3.80363425e+02
219             	3.80379649e+02
220             	3.80445568e+02
221             	3.80494891e+02
222             	3.80558233e+02
223             	3.80620662e+02
224             	3.80681668e+02
225             	3.80744692e+02
226             	3.80827215e+02
227             	3.80898261e+02
228             	3.80976841e+02
229             	3.81035145e+02
230             	3.81081779e+02
231             	3.81115752e+02
232             	3.81090814e+02
233             	3.80995047e+02
234             	3.80882317e+02
235             	3.80737576e+02
236             	3.80554254e+02
237             	3.80386286e+02
238             	3.80245952e+02
239             	3.80174944e+02
240             	3.80151396e+02
241             	3.80194200e+02
242             	3.80280971e+02
243             	3.80397803e+02
244             	3.80528199e+02
245             	3.80662107e+02
246             	3.80770859e+02
247             	3.80879548e+02
248             	3.80992745e+02
249             	3.81120871e+02
250             	3.81247299e+02
251             	3.81381810e+02
252             	3.81518145e+02
253             	3.81635053e+02
254             	3.81739187e+02
255             	3.81757932e+02
256             	3.81765828e+02
257             	3.81743543e+02
258             	3.81694029e+02
259             	3.81590543e+02
260             	3.81486224e+02
261             	3.81374541e+02
262             	3.81268867e+02
263             	3.81145125e+02
264             	3.81042602e+02
265             	3.80975256e+02
266             	3.80957679e+02
267             	3.80987997e+02
268             	3.81050767e+02
269             	3.81148242e+02
270             	3.81213660e+02
271             	3.81302438e+02
272             	3.81415518e+02
273             	3.81509379e+02
274             	3.81609468e+02
275             	3.81688257e+02
276             	3.81798449e+02
277             	3.81929210e+02
278             	3.82039492e+02
279             	3.82153619e+02
280             	3.82241714e+02
281             	3.82309906e+02
282             	3.82357235e+02
283             	3.82390114e+02
284             	3.82436843e+02
285             	3.82504699e+02
286             	3.82586725e+02
287             	3.82696477e+02
288             	3.82784397e+02
289             	3.82898371e+02
290             	3.83049261e+02
291             	3.83217288e+02
292             	3.83370657e+02
293             	3.83546599e+02
294             	3.83738781e+02
295             	3.83926620e+02
296             	3.84129542e+02
297             	3.84353219e+02
298             	3.84575231e+02
299             	3.84780356e+02
300             	3.84978599e+02
301             	3.85191098e+02
302             	3.85394096e+02
303             	3.85534677e+02
304             	3.85699146e+02
305             	3.85881679e+02
306             	3.86017601e+02
307             	3.86155488e+02
308             	3.86323260e+02
309             	3.86511215e+02
310             	3.86714330e+02
311             	3.86932537e+02
312             	3.87112897e+02
313             	3.87335956e+02
314             	3.87517327e+02
315             	3.87719604e+02
316             	3.87872390e+02
317             	3.88044335e+02
318             	3.88219622e+02
319             	3.88403901e+02
320             	3.88596612e+02
321             	3.88809917e+02
322             	3.89033371e+02
323             	3.89205201e+02
324             	3.89411916e+02
325             	3.89630452e+02
326             	3.89780556e+02
327             	3.89952534e+02
328             	3.90124762e+02
329             	3.90277689e+02
330             	3.90413147e+02
331             	3.90550851e+02
332             	3.90704193e+02
333             	3.90863499e+02
334             	3.91035870e+02
335             	3.91217390e+02
336             	3.91410544e+02
337             	3.91606214e+02
338             	3.91753337e+02
339             	3.91948322e+02
340             	3.92130640e+02
341             	3.92308120e+02
342             	3.92475494e+02
343             	3.92633809e+02
344             	3.92793142e+02
345             	3.92949825e+02
346             	3.93111774e+02
347             	3.93268331e+02
348             	3.93432875e+02
349             	3.93597386e+02
350             	3.93771249e+02
351             	3.93953065e+02
352             	3.94144289e+02
353             	3.94265157e+02
354             	3.94429775e+02
355             	3.94598697e+02
356             	3.94764611e+02
357             	3.94869368e+02
358             	3.95005709e+02
359             	3.95153403e+02
360             	3.95289488e+02
361             	3.95419203e+02
362             	3.95539371e+02
363             	3.95661075e+02
364             	3.95782421e+02
365             	3.95903698e+02
366             	3.96029650e+02
367             	3.96150655e+02
368             	3.96240505e+02
369             	3.96352847e+02
370             	3.96472390e+02
371             	3.96590658e+02
372             	3.96706135e+02
373             	3.96823188e+02
374             	3.96942467e+02
375             	3.97060322e+02
376             	3.97188465e+02
377             	3.97316304e+02
378             	3.97394573e+02
379             	3.97511031e+02
380             	3.97627100e+02
381             	3.97736681e+02
382             	3.97840273e+02
383             	3.97938548e+02
384             	3.98028528e+02
385             	3.98115844e+02
386             	3.98194035e+02
387             	3.98269869e+02
388             	3.98349319e+02
389             	3.98426482e+02
390             	3.98501880e+02
391             	3.98579106e+02
392             	3.98656758e+02
393             	3.98734767e+02
394             	3.98813654e+02
395             	3.98894297e+02
396             	3.98976545e+02
397             	3.99060962e+02
398             	3.99139661e+02
399             	3.99226091e+02
400             	3.99312620e+02
401             	3.99391038e+02
402             	3.99474060e+02
403             	3.99556162e+02
404             	3.99635263e+02
405             	3.99713478e+02
406             	3.99790513e+02
407             	3.99863184e+02
408             	3.99933285e+02
409             	4.00001808e+02
410             	4.00068928e+02
411             	4.00148979e+02
412             	4.00227576e+02
413             	4.00304180e+02
414             	4.00379060e+02
415             	4.00452390e+02
416             	4.00524455e+02
417             	4.00595172e+02
418             	4.00664628e+02
419             	4.00732780e+02
420             	4.00799730e+02
421             	4.00865778e+02
422             	4.00930393e+02
423             	4.00994002e+02
424             	4.01056566e+02
425             	4.01118098e+02
426             	4.01178584e+02
427             	4.01237998e+02
428             	4.01296426e+02
429             	4.01353803e+02
430             	4.01410240e+02
431             	4.01465327e+02
432             	4.01519658e+02
433             	4.01572957e+02
434             	4.01625530e+02
435             	4.01677234e+02
436             	4.01728103e+02
437             	4.01778095e+02
438             	4.01827060e+02
439             	4.01874859e+02
440             	4.01922195e+02
441             	4.01968822e+02
442             	4.02014738e+02
443             	4.02059653e+02
444             	4.02103641e+02
445             	4.02146684e+02
446             	4.02188261e+02
447             	4.02229551e+02
448             	4.02270153e+02
449             	4.02310100e+02
450             	4.02349360e+02
451             	4.02387935e+02
452             	4.02426189e+02
453             	4.02464023e+02
454             	4.02501340e+02
455             	4.02538300e+02
456             	4.02574911e+02
457             	4.02611104e+02
458             	4.02646840e+02
459             	4.02682116e+02
460             	4.02716957e+02
461             	4.02751294e+02
462             	4.02785121e+02
463             	4.02818347e+02
464             	4.02851043e+02
465             	4.02882684e+02
466             	4.02914338e+02
467             	4.02945768e+02
468             	4.02976885e+02
469             	4.03007537e+02
470             	4.03037554e+02
471             	4.03067176e+02
472             	4.03096333e+02
473             	4.03124979e+02
474             	4.03153142e+02
475             	4.03180637e+02
476             	4.03207337e+02
477             	4.03233523e+02
478             	4.03259213e+02
479             	4.03284281e+02
480             	4.03308799e+02
481             	4.03332755e+02
482             	4.03356231e+02
483             	4.03379438e+02
484             	4.03402340e+02
485             	4.03424858e+02
486             	4.03447118e+02
487             	4.03469022e+02
488             	4.03490595e+02
489             	4.03511778e+02
490             	4.03532681e+02
491             	4.03553279e+02
492             	4.03573665e+02
493             	4.03593730e+02
494             	4.03613551e+02
495             	4.03633015e+02
496             	4.03652334e+02
497             	4.03671057e+02
498             	4.03689854e+02
499             	4.03708393e+02
500             	4.03726739e+02
501             	4.03744782e+02
502             	4.03762539e+02
503             	4.03780060e+02
504             	4.03797497e+02
505             	4.03814699e+02
506             	4.03831759e+02
507             	4.03848615e+02
508             	4.03865256e+02
509             	4.03881497e+02
510             	4.03897562e+02
511             	4.03913249e+02
512             	4.03928842e+02
513             	4.03944170e+02
514             	4.03959015e+02
515             	4.03973183e+02
516             	4.03987195e+02
517             	4.04001072e+02
518             	4.04014414e+02
519             	4.04027374e+02
520             	4.04039921e+02
521             	4.04052138e+02
522             	4.04064221e+02
523             	4.04076147e+02
524             	4.04087902e+02
525             	4.04099648e+02
526             	4.04111395e+02
527             	4.04123093e+02
528             	4.04134744e+02
529             	4.04146204e+02
530             	4.04157551e+02
531             	4.04168729e+02
532             	4.04179853e+02
533             	4.04191022e+02
534             	4.04202077e+02
535             	4.04213197e+02
536             	4.04224635e+02
537             	4.04235739e+02
538             	4.04246860e+02
539             	4.04257776e+02
540             	4.04268705e+02
541             	4.04279412e+02
542             	4.04290157e+02
543             	4.04300734e+02
544             	4.04311017e+02
545             	4.04321263e+02
546             	4.04331412e+02
547             	4.04341104e+02
548             	4.04350391e+02
549             	4.04359086e+02
550             	4.04367597e+02
551             	4.04375933e+02
552             	4.04384108e+02
553             	4.04391867e+02
554             	4.04399285e+02
555             	4.04406318e+02
556             	4.04413829e+02
557             	4.04420714e+02
558             	4.04427503e+02
559             	4.04434108e+02
560             	4.04440638e+02
561             	4.04447245e+02
562             	4.04453976e+02
563             	4.04460707e+02
564             	4.04467790e+02
565             	4.04474785e+02
566             	4.04482084e+02
567             	4.04489739e+02
568             	4.04497122e+02
569             	4.04504508e+02
570             	4.04511528e+02
571             	4.04518491e+02
572             	4.04524951e+02
573             	4.04531306e+02
574             	4.04537513e+02
575             	4.04543613e+02
576             	4.04549695e+02
577             	4.04555772e+02
578             	4.04561952e+02
579             	4.04567906e+02
580             	4.04574116e+02
581             	4.04579823e+02
582             	4.04585663e+02
583             	4.04591024e+02
584             	4.04596210e+02
585             	4.04601380e+02
586             	4.04606643e+02
587             	4.04611753e+02
588             	4.04616662e+02
589             	4.04621656e+02
590             	4.04626686e+02
591             	4.04631592e+02
592             	4.04636446e+02
593             	4.04641286e+02
594             	4.04646085e+02
595             	4.04650674e+02
596             	4.04655083e+02
597             	4.04659412e+02
598             	4.04663573e+02
599             	4.04667857e+02
600             	4.04671947e+02
601             	4.04675907e+02
602             	4.04679956e+02
603             	4.04684078e+02
604             	4.04688110e+02
605             	4.04692057e+02
606             	4.04696081e+02
607             	4.04700066e+02
608             	4.04703862e+02
609             	4.04707639e+02
610             	4.04711419e+02
611             	4.04715248e+02
612             	4.04719212e+02
613             	4.04723387e+02
614             	4.04727755e+02
615             	4.04731724e+02
616             	4.04735664e+02
617             	4.04739523e+02
618             	4.04743423e+02
619             	4.04747106e+02
620             	4.04750570e+02
621             	4.04753961e+02
