# Region        : cellZone component_0
# Cells         : 354
# Volume        : 6.65695075e-01
# Time          	volAverage(T)
1               	3.00626181e+02
2               	3.01241114e+02
3               	3.01806266e+02
4               	3.02334523e+02
5               	3.02839987e+02
6               	3.03328771e+02
7               	3.03802579e+02
8               	3.04263156e+02
9               	3.04711694e+02
10              	3.05146929e+02
11              	3.05574362e+02
12              	3.05994880e+02
13              	3.06406078e+02
14              	3.06808246e+02
15              	3.07200535e+02
16              	3.07584765e+02
17              	3.07963349e+02
18              	3.08335491e+02
19              	3.08702080e+02
20              	3.09065431e+02
21              	3.09422505e+02
22              	3.09770468e+02
23              	3.10107634e+02
24              	3.10433559e+02
25              	3.10764036e+02
26              	3.11089935e+02
27              	3.11407071e+02
28              	3.11726340e+02
29              	3.12032298e+02
30              	3.12337115e+02
31              	3.12632259e+02
32              	3.12919570e+02
33              	3.13197327e+02
34              	3.13466573e+02
35              	3.13718797e+02
36              	3.13966846e+02
37              	3.14205403e+02
38              	3.14435292e+02
39              	3.14660692e+02
40              	3.14884945e+02
41              	3.15111901e+02
42              	3.15336702e+02
43              	3.15557773e+02
44              	3.15775293e+02
45              	3.15985437e+02
46              	3.16190121e+02
47              	3.16383551e+02
48              	3.16570194e+02
49              	3.16755325e+02
50              	3.16935070e+02
51              	3.17115730e+02
52              	3.17292802e+02
53              	3.17468433e+02
54              	3.17638323e+02
55              	3.17803758e+02
56              	3.17959215e+02
57              	3.18107324e+02
58              	3.18244861e+02
59              	3.18375684e+02
60              	3.18500612e+02
61              	3.18619198e+02
62              	3.18732737e+02
63              	3.18843102e+02
64              	3.18949748e+02
65              	3.19052853e+02
66              	3.19155984e+02
67              	3.19257651e+02
68              	3.19357002e+02
69              	3.19459069e+02
70              	3.19562371e+02
71              	3.19666429e+02
72              	3.19770274e+02
73              	3.19874164e+02
74              	3.19980506e+02
75              	3.20088470e+02
76              	3.20195973e+02
77              	3.20301317e+02
78              	3.20401787e+02
79              	3.20498148e+02
80              	3.20585784e+02
81              	3.20659192e+02
82              	3.20723107e+02
83              	3.20779594e+02
84              	3.20827677e+02
85              	3.20869534e+02
86              	3.20906883e+02
87              	3.20946095e+02
88              	3.20987051e+02
89              	3.21032667e+02
90              	3.21084828e+02
91              	3.21141612e+02
92              	3.21202668e+02
93              	3.21268884e+02
94              	3.21337395e+02
95              	3.21407907e+02
96              	3.21475545e+02
97              	3.21535424e+02
98              	3.21587072e+02
99              	3.21631192e+02
100             	3.21669248e+02
101             	3.21701264e+02
102             	3.21727869e+02
103             	3.21750954e+02
104             	3.21775668e+02
105             	3.21803497e+02
106             	3.21836789e+02
107             	3.21876575e+02
108             	3.21922115e+02
109             	3.21975335e+02
110             	3.22033157e+02
111             	3.22090694e+02
112             	3.22143698e+02
113             	3.22191722e+02
114             	3.22232685e+02
115             	3.22268031e+02
116             	3.22297684e+02
117             	3.22322171e+02
118             	3.22339785e+02
119             	3.22352463e+02
120             	3.22360775e+02
121             	3.22372640e+02
122             	3.22390222e+02
123             	3.22416804e+02
124             	3.22450765e+02
125             	3.22492589e+02
126             	3.22537616e+02
127             	3.22584107e+02
128             	3.22627867e+02
129             	3.22664977e+02
130             	3.22698311e+02
131             	3.22726511e+02
132             	3.22749609e+02
133             	3.22768234e+02
134             	3.22782930e+02
135             	3.22797349e+02
136             	3.22812458e+02
137             	3.22828802e+02
138             	3.22845968e+02
139             	3.22863947e+02
140             	3.22882963e+02
141             	3.22902556e+02
142             	3.22923085e+02
143             	3.22944471e+02
144             	3.22966736e+02
145             	3.22988907e+02
146             	3.23009844e+02
147             	3.23028430e+02
148             	3.23045484e+02
149             	3.23059897e+02
150             	3.23072143e+02
151             	3.23083010e+02
152             	3.23092958e+02
153             	3.23101981e+02
154             	3.23110335e+02
155             	3.23118110e+02
156             	3.23125257e+02
157             	3.23131649e+02
158             	3.23137477e+02
159             	3.23143536e+02
160             	3.23149468e+02
161             	3.23154440e+02
162             	3.23158209e+02
163             	3.23161055e+02
164             	3.23163456e+02
165             	3.23166075e+02
166             	3.23169101e+02
167             	3.23172763e+02
168             	3.23177538e+02
169             	3.23183663e+02
170             	3.23191185e+02
171             	3.23199878e+02
172             	3.23209323e+02
173             	3.23218725e+02
174             	3.23227077e+02
175             	3.23233379e+02
176             	3.23237792e+02
177             	3.23240847e+02
178             	3.23243336e+02
179             	3.23245968e+02
180             	3.23249400e+02
181             	3.23253228e+02
182             	3.23258291e+02
183             	3.23264410e+02
184             	3.23271276e+02
185             	3.23279009e+02
186             	3.23287219e+02
187             	3.23296425e+02
188             	3.23306806e+02
189             	3.23318730e+02
190             	3.23332877e+02
191             	3.23347675e+02
192             	3.23361476e+02
193             	3.23374033e+02
194             	3.23385042e+02
195             	3.23394293e+02
196             	3.23401521e+02
197             	3.23406284e+02
198             	3.23408302e+02
199             	3.23408128e+02
200             	3.23407059e+02
201             	3.23407655e+02
202             	3.23410638e+02
203             	3.23417092e+02
204             	3.23427177e+02
205             	3.23439737e+02
206             	3.23453024e+02
207             	3.23465994e+02
208             	3.23477380e+02
209             	3.23486979e+02
210             	3.23492830e+02
211             	3.23495307e+02
212             	3.23494909e+02
213             	3.23492169e+02
214             	3.23487947e+02
215             	3.23483474e+02
216             	3.23479756e+02
217             	3.23477917e+02
218             	3.23478842e+02
219             	3.23483660e+02
220             	3.23491651e+02
221             	3.23503839e+02
222             	3.23516932e+02
223             	3.23529711e+02
224             	3.23540826e+02
225             	3.23549523e+02
226             	3.23556354e+02
227             	3.23561447e+02
228             	3.23565331e+02
229             	3.23567985e+02
230             	3.23569547e+02
231             	3.23569897e+02
232             	3.23570685e+02
233             	3.23572788e+02
234             	3.23576961e+02
235             	3.23582918e+02
236             	3.23590308e+02
237             	3.23598591e+02
238             	3.23608016e+02
239             	3.23618420e+02
240             	3.23629162e+02
241             	3.23639797e+02
242             	3.23649543e+02
243             	3.23657722e+02
244             	3.23663951e+02
245             	3.23668237e+02
246             	3.23670911e+02
247             	3.23672266e+02
248             	3.23673087e+02
249             	3.23673861e+02
250             	3.23675002e+02
251             	3.23675874e+02
252             	3.23676926e+02
253             	3.23678137e+02
254             	3.23679580e+02
255             	3.23681450e+02
256             	3.23684024e+02
257             	3.23687400e+02
258             	3.23691584e+02
259             	3.23696438e+02
260             	3.23701589e+02
261             	3.23706822e+02
262             	3.23712050e+02
263             	3.23716677e+02
264             	3.23719985e+02
265             	3.23721928e+02
266             	3.23722427e+02
267             	3.23721687e+02
268             	3.23720021e+02
269             	3.23717826e+02
270             	3.23715419e+02
271             	3.23713167e+02
272             	3.23711026e+02
273             	3.23709750e+02
274             	3.23709107e+02
275             	3.23710520e+02
276             	3.23713898e+02
277             	3.23717925e+02
278             	3.23722704e+02
279             	3.23727856e+02
280             	3.23732126e+02
281             	3.23735805e+02
282             	3.23738711e+02
283             	3.23740991e+02
284             	3.23742610e+02
285             	3.23743866e+02
286             	3.23744857e+02
287             	3.23745723e+02
288             	3.23746547e+02
289             	3.23747130e+02
290             	3.23747657e+02
291             	3.23748308e+02
292             	3.23748797e+02
293             	3.23749432e+02
294             	3.23750324e+02
295             	3.23751979e+02
296             	3.23754289e+02
297             	3.23757208e+02
298             	3.23760662e+02
299             	3.23764587e+02
300             	3.23768548e+02
301             	3.23772084e+02
302             	3.23775556e+02
303             	3.23778843e+02
304             	3.23781750e+02
305             	3.23784613e+02
306             	3.23787523e+02
307             	3.23790574e+02
308             	3.23793538e+02
309             	3.23796605e+02
310             	3.23799746e+02
311             	3.23802622e+02
312             	3.23804581e+02
313             	3.23806066e+02
314             	3.23807059e+02
315             	3.23807654e+02
316             	3.23808074e+02
317             	3.23808564e+02
318             	3.23809381e+02
319             	3.23810577e+02
320             	3.23812170e+02
321             	3.23813847e+02
322             	3.23815650e+02
323             	3.23817478e+02
324             	3.23819278e+02
325             	3.23821109e+02
326             	3.23822882e+02
327             	3.23824702e+02
328             	3.23826579e+02
329             	3.23828235e+02
330             	3.23829644e+02
331             	3.23831187e+02
332             	3.23832833e+02
333             	3.23834635e+02
334             	3.23836424e+02
335             	3.23838102e+02
336             	3.23839530e+02
337             	3.23840912e+02
338             	3.23842159e+02
339             	3.23843495e+02
340             	3.23844548e+02
341             	3.23845549e+02
342             	3.23846602e+02
343             	3.23847753e+02
344             	3.23849001e+02
345             	3.23850261e+02
346             	3.23851307e+02
347             	3.23852416e+02
348             	3.23853658e+02
349             	3.23854790e+02
350             	3.23855850e+02
351             	3.23856885e+02
352             	3.23858086e+02
353             	3.23859346e+02
354             	3.23860697e+02
355             	3.23862210e+02
356             	3.23863886e+02
357             	3.23865675e+02
358             	3.23867521e+02
359             	3.23869391e+02
360             	3.23871225e+02
361             	3.23872904e+02
362             	3.23874592e+02
363             	3.23876313e+02
364             	3.23877960e+02
365             	3.23879866e+02
366             	3.23881919e+02
367             	3.23884145e+02
368             	3.23886453e+02
369             	3.23888739e+02
370             	3.23891082e+02
371             	3.23893172e+02
372             	3.23895055e+02
373             	3.23896792e+02
374             	3.23898439e+02
375             	3.23899916e+02
376             	3.23901225e+02
377             	3.23902386e+02
378             	3.23903400e+02
379             	3.23904325e+02
380             	3.23905156e+02
381             	3.23905864e+02
382             	3.23906380e+02
383             	3.23906829e+02
384             	3.23907228e+02
385             	3.23907580e+02
386             	3.23908026e+02
387             	3.23908582e+02
388             	3.23909027e+02
389             	3.23909467e+02
390             	3.23909972e+02
391             	3.23910507e+02
392             	3.23911091e+02
393             	3.23911696e+02
394             	3.23912295e+02
395             	3.23912857e+02
396             	3.23913312e+02
397             	3.23913795e+02
398             	3.23914325e+02
399             	3.23914893e+02
400             	3.23915485e+02
401             	3.23916025e+02
402             	3.23916592e+02
403             	3.23917073e+02
404             	3.23917587e+02
405             	3.23918136e+02
406             	3.23918792e+02
407             	3.23919603e+02
408             	3.23920533e+02
409             	3.23921497e+02
410             	3.23922445e+02
411             	3.23923367e+02
412             	3.23924239e+02
413             	3.23925031e+02
414             	3.23925804e+02
415             	3.23926591e+02
416             	3.23927396e+02
417             	3.23928201e+02
418             	3.23928999e+02
419             	3.23929822e+02
420             	3.23930657e+02
421             	3.23931478e+02
422             	3.23932303e+02
423             	3.23933119e+02
424             	3.23933960e+02
425             	3.23934830e+02
426             	3.23935637e+02
427             	3.23936380e+02
428             	3.23936995e+02
429             	3.23937530e+02
430             	3.23938021e+02
431             	3.23938513e+02
432             	3.23939025e+02
433             	3.23939585e+02
434             	3.23940134e+02
435             	3.23940629e+02
436             	3.23941074e+02
437             	3.23941458e+02
438             	3.23941793e+02
439             	3.23942090e+02
440             	3.23942374e+02
441             	3.23942662e+02
442             	3.23942966e+02
443             	3.23943283e+02
444             	3.23943627e+02
445             	3.23943997e+02
446             	3.23944387e+02
447             	3.23944790e+02
448             	3.23945202e+02
449             	3.23945614e+02
450             	3.23946025e+02
451             	3.23946430e+02
452             	3.23946831e+02
453             	3.23947226e+02
454             	3.23947613e+02
455             	3.23947971e+02
456             	3.23948325e+02
457             	3.23948660e+02
458             	3.23948997e+02
459             	3.23949304e+02
460             	3.23949633e+02
461             	3.23949995e+02
462             	3.23950394e+02
463             	3.23950835e+02
464             	3.23951326e+02
465             	3.23951845e+02
466             	3.23952365e+02
467             	3.23952891e+02
468             	3.23953414e+02
469             	3.23953932e+02
470             	3.23954439e+02
471             	3.23954949e+02
472             	3.23955441e+02
473             	3.23955912e+02
474             	3.23956358e+02
475             	3.23956793e+02
476             	3.23957219e+02
477             	3.23957632e+02
478             	3.23958036e+02
479             	3.23958428e+02
480             	3.23958808e+02
481             	3.23959173e+02
482             	3.23959522e+02
483             	3.23959856e+02
484             	3.23960177e+02
485             	3.23960485e+02
486             	3.23960782e+02
487             	3.23961071e+02
488             	3.23961358e+02
489             	3.23961645e+02
490             	3.23961933e+02
491             	3.23962222e+02
492             	3.23962510e+02
493             	3.23962789e+02
494             	3.23963064e+02
495             	3.23963335e+02
496             	3.23963603e+02
497             	3.23963869e+02
498             	3.23964136e+02
499             	3.23964403e+02
500             	3.23964668e+02
501             	3.23964931e+02
502             	3.23965192e+02
503             	3.23965456e+02
504             	3.23965714e+02
505             	3.23965976e+02
506             	3.23966244e+02
507             	3.23966517e+02
508             	3.23966797e+02
509             	3.23967082e+02
510             	3.23967356e+02
511             	3.23967628e+02
512             	3.23967894e+02
513             	3.23968156e+02
514             	3.23968414e+02
515             	3.23968668e+02
516             	3.23968923e+02
517             	3.23969196e+02
518             	3.23969465e+02
519             	3.23969731e+02
520             	3.23969978e+02
521             	3.23970205e+02
522             	3.23970417e+02
523             	3.23970623e+02
524             	3.23970829e+02
525             	3.23971035e+02
526             	3.23971249e+02
527             	3.23971465e+02
528             	3.23971680e+02
529             	3.23971890e+02
530             	3.23972091e+02
531             	3.23972280e+02
532             	3.23972459e+02
533             	3.23972626e+02
534             	3.23972789e+02
535             	3.23972955e+02
536             	3.23973122e+02
537             	3.23973290e+02
538             	3.23973459e+02
539             	3.23973631e+02
540             	3.23973800e+02
541             	3.23973968e+02
542             	3.23974132e+02
543             	3.23974295e+02
544             	3.23974453e+02
545             	3.23974610e+02
546             	3.23974768e+02
547             	3.23974931e+02
548             	3.23975098e+02
549             	3.23975267e+02
550             	3.23975439e+02
551             	3.23975611e+02
552             	3.23975783e+02
553             	3.23975952e+02
554             	3.23976119e+02
555             	3.23976281e+02
556             	3.23976439e+02
557             	3.23976593e+02
558             	3.23976745e+02
559             	3.23976896e+02
560             	3.23977046e+02
561             	3.23977198e+02
562             	3.23977349e+02
563             	3.23977499e+02
564             	3.23977649e+02
565             	3.23977799e+02
566             	3.23977948e+02
567             	3.23978094e+02
568             	3.23978237e+02
569             	3.23978374e+02
570             	3.23978507e+02
571             	3.23978634e+02
572             	3.23978756e+02
573             	3.23978872e+02
574             	3.23978984e+02
575             	3.23979091e+02
576             	3.23979197e+02
577             	3.23979300e+02
578             	3.23979401e+02
579             	3.23979498e+02
580             	3.23979591e+02
581             	3.23979682e+02
582             	3.23979769e+02
583             	3.23979853e+02
584             	3.23979936e+02
585             	3.23980018e+02
586             	3.23980098e+02
587             	3.23980177e+02
588             	3.23980256e+02
589             	3.23980334e+02
590             	3.23980409e+02
591             	3.23980483e+02
592             	3.23980556e+02
593             	3.23980628e+02
594             	3.23980702e+02
595             	3.23980777e+02
596             	3.23980853e+02
597             	3.23980930e+02
598             	3.23981009e+02
599             	3.23981089e+02
600             	3.23981171e+02
601             	3.23981254e+02
602             	3.23981339e+02
603             	3.23981423e+02
604             	3.23981507e+02
605             	3.23981588e+02
606             	3.23981668e+02
607             	3.23981749e+02
608             	3.23981830e+02
609             	3.23981912e+02
610             	3.23981994e+02
611             	3.23982077e+02
612             	3.23982160e+02
613             	3.23982243e+02
614             	3.23982326e+02
615             	3.23982412e+02
616             	3.23982497e+02
617             	3.23982582e+02
618             	3.23982664e+02
619             	3.23982744e+02
620             	3.23982831e+02
621             	3.23982918e+02
