# Region        : cellZone component_2
# Cells         : 60
# Volume        : 1.17768080e-01
# Time          	volAverage(T)
1               	3.00710664e+02
2               	3.01413234e+02
3               	3.02044151e+02
4               	3.02627498e+02
5               	3.03184473e+02
6               	3.03715229e+02
7               	3.04216873e+02
8               	3.04721840e+02
9               	3.05215171e+02
10              	3.05681527e+02
11              	3.06111128e+02
12              	3.06514123e+02
13              	3.06902172e+02
14              	3.07320014e+02
15              	3.07736959e+02
16              	3.08103929e+02
17              	3.08445068e+02
18              	3.08773289e+02
19              	3.09115904e+02
20              	3.09475544e+02
21              	3.09838829e+02
22              	3.10195270e+02
23              	3.10515012e+02
24              	3.10807438e+02
25              	3.11084480e+02
26              	3.11372119e+02
27              	3.11674937e+02
28              	3.11985134e+02
29              	3.12278087e+02
30              	3.12557773e+02
31              	3.12830502e+02
32              	3.13084449e+02
33              	3.13315537e+02
34              	3.13522387e+02
35              	3.13717883e+02
36              	3.13897578e+02
37              	3.14074499e+02
38              	3.14260839e+02
39              	3.14457497e+02
40              	3.14667653e+02
41              	3.14846664e+02
42              	3.15011889e+02
43              	3.15176312e+02
44              	3.15308226e+02
45              	3.15428676e+02
46              	3.15559479e+02
47              	3.15674890e+02
48              	3.15776216e+02
49              	3.15900153e+02
50              	3.16050534e+02
51              	3.16202603e+02
52              	3.16342998e+02
53              	3.16510757e+02
54              	3.16674199e+02
55              	3.16838288e+02
56              	3.17005400e+02
57              	3.17162505e+02
58              	3.17304866e+02
59              	3.17424558e+02
60              	3.17542361e+02
61              	3.17654318e+02
62              	3.17704848e+02
63              	3.17727437e+02
64              	3.17712425e+02
65              	3.17670531e+02
66              	3.17614332e+02
67              	3.17583305e+02
68              	3.17587968e+02
69              	3.17628572e+02
70              	3.17696618e+02
71              	3.17774778e+02
72              	3.17889458e+02
73              	3.17996440e+02
74              	3.18104130e+02
75              	3.18219591e+02
76              	3.18334825e+02
77              	3.18443498e+02
78              	3.18568256e+02
79              	3.18673265e+02
80              	3.18766438e+02
81              	3.18844140e+02
82              	3.18897061e+02
83              	3.18896379e+02
84              	3.18818578e+02
85              	3.18706372e+02
86              	3.18624520e+02
87              	3.18570532e+02
88              	3.18533299e+02
89              	3.18482022e+02
90              	3.18432117e+02
91              	3.18406278e+02
92              	3.18431476e+02
93              	3.18473023e+02
94              	3.18544060e+02
95              	3.18605667e+02
96              	3.18672118e+02
97              	3.18689027e+02
98              	3.18662375e+02
99              	3.18630080e+02
100             	3.18607170e+02
101             	3.18588733e+02
102             	3.18565910e+02
103             	3.18545336e+02
104             	3.18533191e+02
105             	3.18537964e+02
106             	3.18562757e+02
107             	3.18607063e+02
108             	3.18633171e+02
109             	3.18685749e+02
110             	3.18754024e+02
111             	3.18827067e+02
112             	3.18898768e+02
113             	3.18966057e+02
114             	3.19031599e+02
115             	3.19094876e+02
116             	3.19155903e+02
117             	3.19208857e+02
118             	3.19268426e+02
119             	3.19321881e+02
120             	3.19356124e+02
121             	3.19382058e+02
122             	3.19415072e+02
123             	3.19454902e+02
124             	3.19496435e+02
125             	3.19538719e+02
126             	3.19583939e+02
127             	3.19620257e+02
128             	3.19669439e+02
129             	3.19716725e+02
130             	3.19766151e+02
131             	3.19819146e+02
132             	3.19880509e+02
133             	3.19938538e+02
134             	3.19989088e+02
135             	3.20035356e+02
136             	3.20081381e+02
137             	3.20125370e+02
138             	3.20167474e+02
139             	3.20206940e+02
140             	3.20242491e+02
141             	3.20279529e+02
142             	3.20317978e+02
143             	3.20358689e+02
144             	3.20402198e+02
145             	3.20449061e+02
146             	3.20502272e+02
147             	3.20562860e+02
148             	3.20620252e+02
149             	3.20676446e+02
150             	3.20737423e+02
151             	3.20800047e+02
152             	3.20856259e+02
153             	3.20910134e+02
154             	3.20964742e+02
155             	3.21015855e+02
156             	3.21060352e+02
157             	3.21104356e+02
158             	3.21150998e+02
159             	3.21201606e+02
160             	3.21254819e+02
161             	3.21309078e+02
162             	3.21364533e+02
163             	3.21417927e+02
164             	3.21475990e+02
165             	3.21534783e+02
166             	3.21594088e+02
167             	3.21654944e+02
168             	3.21718409e+02
169             	3.21785277e+02
170             	3.21848812e+02
171             	3.21915673e+02
172             	3.21963325e+02
173             	3.22018978e+02
174             	3.22066819e+02
175             	3.22121985e+02
176             	3.22174941e+02
177             	3.22203131e+02
178             	3.22200356e+02
179             	3.22213361e+02
180             	3.22231236e+02
181             	3.22243307e+02
182             	3.22249600e+02
183             	3.22253827e+02
184             	3.22265590e+02
185             	3.22283722e+02
186             	3.22309464e+02
187             	3.22324752e+02
188             	3.22340281e+02
189             	3.22346514e+02
190             	3.22357852e+02
191             	3.22358407e+02
192             	3.22360113e+02
193             	3.22368735e+02
194             	3.22372213e+02
195             	3.22376245e+02
196             	3.22381473e+02
197             	3.22389013e+02
198             	3.22397926e+02
199             	3.22413095e+02
200             	3.22434282e+02
201             	3.22459098e+02
202             	3.22487004e+02
203             	3.22515870e+02
204             	3.22546545e+02
205             	3.22575987e+02
206             	3.22614650e+02
207             	3.22656987e+02
208             	3.22702812e+02
209             	3.22753040e+02
210             	3.22790476e+02
211             	3.22838453e+02
212             	3.22880004e+02
213             	3.22915649e+02
214             	3.22939353e+02
215             	3.22954073e+02
216             	3.22958301e+02
217             	3.22962454e+02
218             	3.22958631e+02
219             	3.22952213e+02
220             	3.22944510e+02
221             	3.22940032e+02
222             	3.22941401e+02
223             	3.22944685e+02
224             	3.22935614e+02
225             	3.22940140e+02
226             	3.22939737e+02
227             	3.22918329e+02
228             	3.22916443e+02
229             	3.22923612e+02
230             	3.22933700e+02
231             	3.22944961e+02
232             	3.22959345e+02
233             	3.22975454e+02
234             	3.22991018e+02
235             	3.23011463e+02
236             	3.23019325e+02
237             	3.23039459e+02
238             	3.23059502e+02
239             	3.23071794e+02
240             	3.23069444e+02
241             	3.23066030e+02
242             	3.23061033e+02
243             	3.23056592e+02
244             	3.23047531e+02
245             	3.23041155e+02
246             	3.23037372e+02
247             	3.23034855e+02
248             	3.23034059e+02
249             	3.23031186e+02
250             	3.23026219e+02
251             	3.23025172e+02
252             	3.23025449e+02
253             	3.23024255e+02
254             	3.23021122e+02
255             	3.23018224e+02
256             	3.23019092e+02
257             	3.23025026e+02
258             	3.23025392e+02
259             	3.23031083e+02
260             	3.23040688e+02
261             	3.23052126e+02
262             	3.23066638e+02
263             	3.23087833e+02
264             	3.23112078e+02
265             	3.23138654e+02
266             	3.23169648e+02
267             	3.23191861e+02
268             	3.23215109e+02
269             	3.23240853e+02
270             	3.23267531e+02
271             	3.23278340e+02
272             	3.23268197e+02
273             	3.23267551e+02
274             	3.23269207e+02
275             	3.23267075e+02
276             	3.23260937e+02
277             	3.23254107e+02
278             	3.23250518e+02
279             	3.23254334e+02
280             	3.23263577e+02
281             	3.23281051e+02
282             	3.23289533e+02
283             	3.23311786e+02
284             	3.23333476e+02
285             	3.23351461e+02
286             	3.23372185e+02
287             	3.23392600e+02
288             	3.23408176e+02
289             	3.23420554e+02
290             	3.23432582e+02
291             	3.23445321e+02
292             	3.23458270e+02
293             	3.23475597e+02
294             	3.23478340e+02
295             	3.23491805e+02
296             	3.23513810e+02
297             	3.23529542e+02
298             	3.23520517e+02
299             	3.23516099e+02
300             	3.23516989e+02
301             	3.23519150e+02
302             	3.23521572e+02
303             	3.23524638e+02
304             	3.23527163e+02
305             	3.23532450e+02
306             	3.23541851e+02
307             	3.23556129e+02
308             	3.23559609e+02
309             	3.23575342e+02
310             	3.23594797e+02
311             	3.23607791e+02
312             	3.23617792e+02
313             	3.23621816e+02
314             	3.23633126e+02
315             	3.23643320e+02
316             	3.23650153e+02
317             	3.23656198e+02
318             	3.23667024e+02
319             	3.23675069e+02
320             	3.23684249e+02
321             	3.23698594e+02
322             	3.23719244e+02
323             	3.23719381e+02
324             	3.23727452e+02
325             	3.23737325e+02
326             	3.23739261e+02
327             	3.23731926e+02
328             	3.23730515e+02
329             	3.23733767e+02
330             	3.23735929e+02
331             	3.23734922e+02
332             	3.23733821e+02
333             	3.23735997e+02
334             	3.23747239e+02
335             	3.23754553e+02
336             	3.23761380e+02
337             	3.23771080e+02
338             	3.23783107e+02
339             	3.23795493e+02
340             	3.23802827e+02
341             	3.23806689e+02
342             	3.23815092e+02
343             	3.23823875e+02
344             	3.23830609e+02
345             	3.23836161e+02
346             	3.23842652e+02
347             	3.23852877e+02
348             	3.23861639e+02
349             	3.23872719e+02
350             	3.23886136e+02
351             	3.23902041e+02
352             	3.23910397e+02
353             	3.23914463e+02
354             	3.23912202e+02
355             	3.23911193e+02
356             	3.23913860e+02
357             	3.23915762e+02
358             	3.23917254e+02
359             	3.23919066e+02
360             	3.23918576e+02
361             	3.23919277e+02
362             	3.23922691e+02
363             	3.23928294e+02
364             	3.23934826e+02
365             	3.23940953e+02
366             	3.23945848e+02
367             	3.23953827e+02
368             	3.23962487e+02
369             	3.23969083e+02
370             	3.23975631e+02
371             	3.23983280e+02
372             	3.23992256e+02
373             	3.24001548e+02
374             	3.24008278e+02
375             	3.24015658e+02
376             	3.24023398e+02
377             	3.24028601e+02
378             	3.24030095e+02
379             	3.24029073e+02
380             	3.24029329e+02
381             	3.24032165e+02
382             	3.24037643e+02
383             	3.24042569e+02
384             	3.24046921e+02
385             	3.24051696e+02
386             	3.24057298e+02
387             	3.24063515e+02
388             	3.24069923e+02
389             	3.24076780e+02
390             	3.24082817e+02
391             	3.24087823e+02
392             	3.24088640e+02
393             	3.24088463e+02
394             	3.24088834e+02
395             	3.24088700e+02
396             	3.24087571e+02
397             	3.24086797e+02
398             	3.24087177e+02
399             	3.24087710e+02
400             	3.24088422e+02
401             	3.24089963e+02
402             	3.24092817e+02
403             	3.24096907e+02
404             	3.24101335e+02
405             	3.24106199e+02
406             	3.24111419e+02
407             	3.24116915e+02
408             	3.24122884e+02
409             	3.24129142e+02
410             	3.24135449e+02
411             	3.24141485e+02
412             	3.24148605e+02
413             	3.24157636e+02
414             	3.24167667e+02
415             	3.24175869e+02
416             	3.24183811e+02
417             	3.24191507e+02
418             	3.24198510e+02
419             	3.24204323e+02
420             	3.24209502e+02
421             	3.24213539e+02
422             	3.24216473e+02
423             	3.24218717e+02
424             	3.24220102e+02
425             	3.24221285e+02
426             	3.24222582e+02
427             	3.24224028e+02
428             	3.24225561e+02
429             	3.24227493e+02
430             	3.24228777e+02
431             	3.24227179e+02
432             	3.24227374e+02
433             	3.24228274e+02
434             	3.24229402e+02
435             	3.24230057e+02
436             	3.24230026e+02
437             	3.24229496e+02
438             	3.24230182e+02
439             	3.24234321e+02
440             	3.24234963e+02
441             	3.24235714e+02
442             	3.24238187e+02
443             	3.24241119e+02
444             	3.24243861e+02
445             	3.24245790e+02
446             	3.24249844e+02
447             	3.24254300e+02
448             	3.24258332e+02
449             	3.24261431e+02
450             	3.24265056e+02
451             	3.24270254e+02
452             	3.24273798e+02
453             	3.24276192e+02
454             	3.24279236e+02
455             	3.24282571e+02
456             	3.24284910e+02
457             	3.24286060e+02
458             	3.24287317e+02
459             	3.24289237e+02
460             	3.24290762e+02
461             	3.24291826e+02
462             	3.24292768e+02
463             	3.24293393e+02
464             	3.24293430e+02
465             	3.24293069e+02
466             	3.24294028e+02
467             	3.24295907e+02
468             	3.24298003e+02
469             	3.24300234e+02
470             	3.24302281e+02
471             	3.24303070e+02
472             	3.24304128e+02
473             	3.24306101e+02
474             	3.24308135e+02
475             	3.24309120e+02
476             	3.24308614e+02
477             	3.24306386e+02
478             	3.24306367e+02
479             	3.24307103e+02
480             	3.24306565e+02
481             	3.24306292e+02
482             	3.24307895e+02
483             	3.24310450e+02
484             	3.24313721e+02
485             	3.24317084e+02
486             	3.24319038e+02
487             	3.24319812e+02
488             	3.24320773e+02
489             	3.24321997e+02
490             	3.24322975e+02
491             	3.24323390e+02
492             	3.24323277e+02
493             	3.24322846e+02
494             	3.24322333e+02
495             	3.24322399e+02
496             	3.24323298e+02
497             	3.24325045e+02
498             	3.24327362e+02
499             	3.24329975e+02
500             	3.24332754e+02
501             	3.24335466e+02
502             	3.24338400e+02
503             	3.24341437e+02
504             	3.24344663e+02
505             	3.24347532e+02
506             	3.24349772e+02
507             	3.24351500e+02
508             	3.24352877e+02
509             	3.24353134e+02
510             	3.24353435e+02
511             	3.24353468e+02
512             	3.24353314e+02
513             	3.24353051e+02
514             	3.24352787e+02
515             	3.24352606e+02
516             	3.24352461e+02
517             	3.24351806e+02
518             	3.24350810e+02
519             	3.24349966e+02
520             	3.24349347e+02
521             	3.24348791e+02
522             	3.24347965e+02
523             	3.24347425e+02
524             	3.24347035e+02
525             	3.24346358e+02
526             	3.24345789e+02
527             	3.24345469e+02
528             	3.24345586e+02
529             	3.24346299e+02
530             	3.24347364e+02
531             	3.24348411e+02
532             	3.24349521e+02
533             	3.24350656e+02
534             	3.24351848e+02
535             	3.24353212e+02
536             	3.24354290e+02
537             	3.24355733e+02
538             	3.24357589e+02
539             	3.24359432e+02
540             	3.24361777e+02
541             	3.24364469e+02
542             	3.24366456e+02
543             	3.24369758e+02
544             	3.24373411e+02
545             	3.24376817e+02
546             	3.24379924e+02
547             	3.24382410e+02
548             	3.24384480e+02
549             	3.24386464e+02
550             	3.24388181e+02
551             	3.24389430e+02
552             	3.24389730e+02
553             	3.24389467e+02
554             	3.24388833e+02
555             	3.24388018e+02
556             	3.24387475e+02
557             	3.24386335e+02
558             	3.24384961e+02
559             	3.24383596e+02
560             	3.24382421e+02
561             	3.24381474e+02
562             	3.24380700e+02
563             	3.24379853e+02
564             	3.24379031e+02
565             	3.24378361e+02
566             	3.24377962e+02
567             	3.24377234e+02
568             	3.24377336e+02
569             	3.24377913e+02
570             	3.24378609e+02
571             	3.24379443e+02
572             	3.24380598e+02
573             	3.24381667e+02
574             	3.24382733e+02
575             	3.24383821e+02
576             	3.24385027e+02
577             	3.24386332e+02
578             	3.24387714e+02
579             	3.24389083e+02
580             	3.24390161e+02
581             	3.24391026e+02
582             	3.24392289e+02
583             	3.24393599e+02
584             	3.24394808e+02
585             	3.24395816e+02
586             	3.24396675e+02
587             	3.24397400e+02
588             	3.24397970e+02
589             	3.24398290e+02
590             	3.24398398e+02
591             	3.24398302e+02
592             	3.24398052e+02
593             	3.24397649e+02
594             	3.24397092e+02
595             	3.24396365e+02
596             	3.24395475e+02
597             	3.24394637e+02
598             	3.24393002e+02
599             	3.24392088e+02
600             	3.24389828e+02
601             	3.24387369e+02
602             	3.24385057e+02
603             	3.24383133e+02
604             	3.24381321e+02
605             	3.24379206e+02
606             	3.24377782e+02
607             	3.24376728e+02
608             	3.24375873e+02
609             	3.24375236e+02
610             	3.24374919e+02
611             	3.24374860e+02
612             	3.24374966e+02
613             	3.24375244e+02
614             	3.24375657e+02
615             	3.24376143e+02
616             	3.24376772e+02
617             	3.24377681e+02
618             	3.24378141e+02
619             	3.24379808e+02
620             	3.24382044e+02
621             	3.24384462e+02
