# Region        : cellZone component_3
# Cells         : 86
# Volume        : 1.41528140e-01
# Time          	volAverage(T)
1               	3.00933795e+02
2               	3.01851585e+02
3               	3.02658991e+02
4               	3.03397429e+02
5               	3.04102099e+02
6               	3.04781602e+02
7               	3.05440257e+02
8               	3.06086239e+02
9               	3.06729966e+02
10              	3.07361197e+02
11              	3.07990214e+02
12              	3.08596538e+02
13              	3.09167581e+02
14              	3.09679979e+02
15              	3.10180577e+02
16              	3.10686171e+02
17              	3.11195739e+02
18              	3.11701048e+02
19              	3.12201550e+02
20              	3.12688560e+02
21              	3.13159168e+02
22              	3.13599110e+02
23              	3.14016673e+02
24              	3.14392063e+02
25              	3.14742182e+02
26              	3.15096876e+02
27              	3.15468790e+02
28              	3.15767379e+02
29              	3.15980951e+02
30              	3.16150130e+02
31              	3.16342840e+02
32              	3.16588924e+02
33              	3.16912019e+02
34              	3.17215669e+02
35              	3.17505247e+02
36              	3.17793757e+02
37              	3.18069241e+02
38              	3.18347120e+02
39              	3.18586323e+02
40              	3.18823839e+02
41              	3.19017674e+02
42              	3.19210391e+02
43              	3.19392905e+02
44              	3.19559611e+02
45              	3.19725506e+02
46              	3.19912516e+02
47              	3.20098223e+02
48              	3.20247920e+02
49              	3.20379602e+02
50              	3.20505092e+02
51              	3.20624061e+02
52              	3.20747607e+02
53              	3.20863457e+02
54              	3.20985486e+02
55              	3.21093273e+02
56              	3.21237761e+02
57              	3.21376262e+02
58              	3.21557707e+02
59              	3.21723278e+02
60              	3.21888979e+02
61              	3.22060614e+02
62              	3.22233813e+02
63              	3.22389422e+02
64              	3.22527801e+02
65              	3.22655620e+02
66              	3.22766834e+02
67              	3.22860319e+02
68              	3.22950336e+02
69              	3.23019579e+02
70              	3.23098408e+02
71              	3.23196132e+02
72              	3.23308636e+02
73              	3.23435374e+02
74              	3.23580409e+02
75              	3.23726145e+02
76              	3.23859294e+02
77              	3.23989448e+02
78              	3.24119833e+02
79              	3.24246606e+02
80              	3.24367037e+02
81              	3.24492403e+02
82              	3.24612700e+02
83              	3.24721179e+02
84              	3.24812623e+02
85              	3.24910588e+02
86              	3.25011191e+02
87              	3.25102001e+02
88              	3.25205151e+02
89              	3.25302416e+02
90              	3.25407451e+02
91              	3.25513283e+02
92              	3.25633530e+02
93              	3.25739608e+02
94              	3.25826477e+02
95              	3.25887349e+02
96              	3.25939577e+02
97              	3.25989934e+02
98              	3.26041252e+02
99              	3.26110487e+02
100             	3.26183189e+02
101             	3.26247446e+02
102             	3.26318656e+02
103             	3.26410076e+02
104             	3.26510644e+02
105             	3.26576239e+02
106             	3.26623731e+02
107             	3.26630723e+02
108             	3.26648455e+02
109             	3.26656928e+02
110             	3.26679451e+02
111             	3.26700505e+02
112             	3.26694826e+02
113             	3.26712769e+02
114             	3.26734453e+02
115             	3.26771914e+02
116             	3.26788620e+02
117             	3.26790689e+02
118             	3.26778849e+02
119             	3.26762360e+02
120             	3.26764441e+02
121             	3.26765069e+02
122             	3.26764190e+02
123             	3.26768377e+02
124             	3.26766640e+02
125             	3.26755460e+02
126             	3.26755075e+02
127             	3.26752484e+02
128             	3.26777027e+02
129             	3.26819846e+02
130             	3.26873773e+02
131             	3.26933111e+02
132             	3.26992143e+02
133             	3.27050675e+02
134             	3.27106232e+02
135             	3.27162815e+02
136             	3.27215441e+02
137             	3.27269707e+02
138             	3.27327587e+02
139             	3.27389195e+02
140             	3.27454042e+02
141             	3.27512851e+02
142             	3.27569078e+02
143             	3.27623478e+02
144             	3.27673777e+02
145             	3.27732388e+02
146             	3.27795719e+02
147             	3.27863806e+02
148             	3.27934700e+02
149             	3.28003240e+02
150             	3.28077370e+02
151             	3.28148321e+02
152             	3.28222023e+02
153             	3.28295807e+02
154             	3.28356320e+02
155             	3.28428274e+02
156             	3.28502606e+02
157             	3.28574975e+02
158             	3.28644035e+02
159             	3.28709638e+02
160             	3.28773668e+02
161             	3.28835415e+02
162             	3.28892861e+02
163             	3.28951560e+02
164             	3.29002049e+02
165             	3.29038119e+02
166             	3.29080283e+02
167             	3.29127172e+02
168             	3.29168419e+02
169             	3.29206392e+02
170             	3.29245309e+02
171             	3.29291573e+02
172             	3.29344127e+02
173             	3.29400899e+02
174             	3.29452162e+02
175             	3.29507740e+02
176             	3.29567821e+02
177             	3.29629357e+02
178             	3.29688450e+02
179             	3.29744457e+02
180             	3.29802769e+02
181             	3.29849735e+02
182             	3.29882887e+02
183             	3.29917746e+02
184             	3.29952391e+02
185             	3.29986419e+02
186             	3.30027623e+02
187             	3.30073214e+02
188             	3.30117403e+02
189             	3.30156313e+02
190             	3.30199169e+02
191             	3.30218697e+02
192             	3.30249487e+02
193             	3.30278565e+02
194             	3.30309132e+02
195             	3.30334775e+02
196             	3.30360752e+02
197             	3.30390587e+02
198             	3.30420283e+02
199             	3.30456266e+02
200             	3.30492807e+02
201             	3.30525875e+02
202             	3.30557359e+02
203             	3.30591980e+02
204             	3.30630624e+02
205             	3.30670893e+02
206             	3.30685998e+02
207             	3.30711694e+02
208             	3.30736509e+02
209             	3.30757611e+02
210             	3.30778271e+02
211             	3.30792434e+02
212             	3.30811639e+02
213             	3.30826748e+02
214             	3.30844953e+02
215             	3.30869257e+02
216             	3.30894972e+02
217             	3.30911556e+02
218             	3.30930244e+02
219             	3.30949687e+02
220             	3.30969508e+02
221             	3.30993924e+02
222             	3.31013798e+02
223             	3.31034018e+02
224             	3.31058197e+02
225             	3.31087056e+02
226             	3.31104159e+02
227             	3.31123771e+02
228             	3.31152533e+02
229             	3.31191619e+02
230             	3.31215550e+02
231             	3.31226175e+02
232             	3.31236453e+02
233             	3.31249984e+02
234             	3.31261875e+02
235             	3.31272657e+02
236             	3.31280779e+02
237             	3.31292169e+02
238             	3.31287067e+02
239             	3.31297639e+02
240             	3.31319836e+02
241             	3.31346665e+02
242             	3.31375712e+02
243             	3.31408375e+02
244             	3.31425883e+02
245             	3.31430899e+02
246             	3.31440125e+02
247             	3.31456572e+02
248             	3.31471590e+02
249             	3.31486967e+02
250             	3.31499036e+02
251             	3.31512825e+02
252             	3.31527675e+02
253             	3.31523397e+02
254             	3.31530588e+02
255             	3.31527607e+02
256             	3.31535965e+02
257             	3.31546500e+02
258             	3.31555336e+02
259             	3.31564892e+02
260             	3.31573891e+02
261             	3.31584561e+02
262             	3.31586714e+02
263             	3.31589370e+02
264             	3.31598479e+02
265             	3.31608048e+02
266             	3.31622458e+02
267             	3.31645601e+02
268             	3.31655360e+02
269             	3.31676719e+02
270             	3.31701373e+02
271             	3.31729021e+02
272             	3.31747007e+02
273             	3.31746327e+02
274             	3.31749382e+02
275             	3.31750348e+02
276             	3.31751881e+02
277             	3.31756168e+02
278             	3.31764578e+02
279             	3.31775907e+02
280             	3.31788345e+02
281             	3.31790084e+02
282             	3.31798521e+02
283             	3.31813865e+02
284             	3.31835520e+02
285             	3.31861454e+02
286             	3.31889006e+02
287             	3.31904946e+02
288             	3.31921634e+02
289             	3.31940541e+02
290             	3.31959117e+02
291             	3.31976335e+02
292             	3.31994487e+02
293             	3.32007182e+02
294             	3.32020042e+02
295             	3.32032990e+02
296             	3.32031419e+02
297             	3.32040040e+02
298             	3.32054622e+02
299             	3.32050887e+02
300             	3.32056866e+02
301             	3.32067828e+02
302             	3.32078352e+02
303             	3.32087473e+02
304             	3.32095433e+02
305             	3.32099319e+02
306             	3.32109750e+02
307             	3.32124997e+02
308             	3.32139984e+02
309             	3.32155900e+02
310             	3.32172731e+02
311             	3.32190378e+02
312             	3.32207780e+02
313             	3.32217142e+02
314             	3.32223224e+02
315             	3.32231174e+02
316             	3.32241216e+02
317             	3.32234396e+02
318             	3.32239466e+02
319             	3.32250045e+02
320             	3.32260376e+02
321             	3.32266028e+02
322             	3.32264833e+02
323             	3.32261042e+02
324             	3.32260810e+02
325             	3.32261557e+02
326             	3.32264479e+02
327             	3.32271345e+02
328             	3.32282530e+02
329             	3.32276062e+02
330             	3.32283327e+02
331             	3.32287277e+02
332             	3.32294603e+02
333             	3.32301698e+02
334             	3.32311018e+02
335             	3.32316509e+02
336             	3.32316750e+02
337             	3.32316415e+02
338             	3.32317058e+02
339             	3.32319377e+02
340             	3.32322340e+02
341             	3.32327590e+02
342             	3.32319950e+02
343             	3.32325074e+02
344             	3.32317608e+02
345             	3.32322993e+02
346             	3.32323712e+02
347             	3.32325032e+02
348             	3.32324474e+02
349             	3.32324203e+02
350             	3.32320321e+02
351             	3.32317218e+02
352             	3.32314785e+02
353             	3.32313615e+02
354             	3.32315498e+02
355             	3.32322756e+02
356             	3.32336538e+02
357             	3.32331862e+02
358             	3.32338910e+02
359             	3.32353728e+02
360             	3.32367935e+02
361             	3.32380595e+02
362             	3.32380844e+02
363             	3.32385264e+02
364             	3.32388802e+02
365             	3.32392705e+02
366             	3.32396112e+02
367             	3.32398620e+02
368             	3.32398385e+02
369             	3.32401933e+02
370             	3.32407340e+02
371             	3.32414165e+02
372             	3.32424298e+02
373             	3.32415572e+02
374             	3.32417823e+02
375             	3.32424939e+02
376             	3.32433053e+02
377             	3.32439282e+02
378             	3.32444806e+02
379             	3.32448671e+02
380             	3.32452612e+02
381             	3.32455475e+02
382             	3.32456723e+02
383             	3.32460472e+02
384             	3.32465591e+02
385             	3.32470940e+02
386             	3.32474812e+02
387             	3.32478285e+02
388             	3.32484687e+02
389             	3.32493263e+02
390             	3.32481917e+02
391             	3.32481590e+02
392             	3.32486093e+02
393             	3.32490551e+02
394             	3.32493454e+02
395             	3.32497254e+02
396             	3.32501952e+02
397             	3.32505502e+02
398             	3.32509829e+02
399             	3.32516447e+02
400             	3.32523916e+02
401             	3.32530088e+02
402             	3.32536071e+02
403             	3.32544815e+02
404             	3.32548849e+02
405             	3.32550155e+02
406             	3.32551139e+02
407             	3.32554180e+02
408             	3.32557965e+02
409             	3.32560501e+02
410             	3.32557718e+02
411             	3.32555905e+02
412             	3.32555890e+02
413             	3.32558538e+02
414             	3.32563079e+02
415             	3.32575513e+02
416             	3.32577141e+02
417             	3.32562541e+02
418             	3.32559544e+02
419             	3.32559720e+02
420             	3.32560093e+02
421             	3.32560512e+02
422             	3.32559154e+02
423             	3.32558553e+02
424             	3.32559051e+02
425             	3.32561761e+02
426             	3.32566203e+02
427             	3.32572442e+02
428             	3.32580231e+02
429             	3.32586826e+02
430             	3.32589217e+02
431             	3.32591086e+02
432             	3.32593213e+02
433             	3.32593898e+02
434             	3.32598028e+02
435             	3.32599081e+02
436             	3.32601847e+02
437             	3.32603986e+02
438             	3.32601035e+02
439             	3.32601008e+02
440             	3.32604372e+02
441             	3.32609054e+02
442             	3.32613796e+02
443             	3.32616600e+02
444             	3.32617577e+02
445             	3.32619309e+02
446             	3.32619079e+02
447             	3.32621239e+02
448             	3.32624910e+02
449             	3.32627581e+02
450             	3.32630672e+02
451             	3.32634522e+02
452             	3.32638524e+02
453             	3.32641549e+02
454             	3.32644170e+02
455             	3.32646371e+02
456             	3.32647876e+02
457             	3.32648688e+02
458             	3.32649012e+02
459             	3.32648707e+02
460             	3.32648573e+02
461             	3.32648588e+02
462             	3.32649126e+02
463             	3.32649949e+02
464             	3.32652838e+02
465             	3.32653886e+02
466             	3.32654796e+02
467             	3.32655663e+02
468             	3.32657241e+02
469             	3.32659261e+02
470             	3.32661648e+02
471             	3.32662900e+02
472             	3.32665970e+02
473             	3.32669668e+02
474             	3.32671324e+02
475             	3.32673546e+02
476             	3.32677172e+02
477             	3.32683019e+02
478             	3.32685877e+02
479             	3.32686406e+02
480             	3.32687028e+02
481             	3.32687362e+02
482             	3.32688227e+02
483             	3.32689593e+02
484             	3.32690778e+02
485             	3.32692184e+02
486             	3.32693867e+02
487             	3.32694885e+02
488             	3.32694897e+02
489             	3.32694416e+02
490             	3.32694240e+02
491             	3.32694354e+02
492             	3.32695372e+02
493             	3.32694625e+02
494             	3.32693117e+02
495             	3.32692003e+02
496             	3.32691861e+02
497             	3.32692027e+02
498             	3.32692387e+02
499             	3.32692280e+02
500             	3.32692608e+02
501             	3.32693808e+02
502             	3.32694689e+02
503             	3.32696336e+02
504             	3.32698193e+02
505             	3.32699658e+02
506             	3.32701307e+02
507             	3.32702726e+02
508             	3.32704522e+02
509             	3.32705281e+02
510             	3.32706636e+02
511             	3.32707937e+02
512             	3.32708602e+02
513             	3.32709192e+02
514             	3.32710819e+02
515             	3.32711215e+02
516             	3.32710166e+02
517             	3.32709222e+02
518             	3.32708087e+02
519             	3.32707218e+02
520             	3.32706887e+02
521             	3.32705351e+02
522             	3.32704486e+02
523             	3.32702047e+02
524             	3.32700739e+02
525             	3.32700060e+02
526             	3.32699959e+02
527             	3.32700974e+02
528             	3.32703412e+02
529             	3.32705643e+02
530             	3.32708132e+02
531             	3.32709246e+02
532             	3.32709769e+02
533             	3.32710872e+02
534             	3.32711569e+02
535             	3.32712001e+02
536             	3.32712204e+02
537             	3.32712762e+02
538             	3.32713756e+02
539             	3.32715027e+02
540             	3.32716045e+02
541             	3.32717568e+02
542             	3.32717766e+02
543             	3.32718672e+02
544             	3.32717424e+02
545             	3.32718098e+02
546             	3.32719359e+02
547             	3.32722447e+02
548             	3.32725094e+02
549             	3.32725742e+02
550             	3.32727004e+02
551             	3.32727201e+02
552             	3.32726983e+02
553             	3.32726850e+02
554             	3.32726993e+02
555             	3.32727408e+02
556             	3.32728886e+02
557             	3.32730933e+02
558             	3.32731653e+02
559             	3.32732184e+02
560             	3.32732433e+02
561             	3.32731971e+02
562             	3.32732097e+02
563             	3.32732483e+02
564             	3.32732713e+02
565             	3.32732583e+02
566             	3.32732308e+02
567             	3.32731906e+02
568             	3.32732673e+02
569             	3.32734258e+02
570             	3.32735829e+02
571             	3.32737374e+02
572             	3.32738056e+02
573             	3.32738335e+02
574             	3.32738189e+02
575             	3.32737601e+02
576             	3.32737018e+02
577             	3.32737481e+02
578             	3.32737586e+02
579             	3.32738093e+02
580             	3.32737155e+02
581             	3.32736560e+02
582             	3.32736169e+02
583             	3.32736306e+02
584             	3.32735803e+02
585             	3.32735227e+02
586             	3.32734774e+02
587             	3.32734645e+02
588             	3.32734780e+02
589             	3.32735415e+02
590             	3.32735986e+02
591             	3.32735734e+02
592             	3.32736694e+02
593             	3.32738065e+02
594             	3.32739225e+02
595             	3.32740567e+02
596             	3.32742154e+02
597             	3.32743849e+02
598             	3.32746021e+02
599             	3.32746490e+02
600             	3.32745861e+02
601             	3.32745156e+02
602             	3.32744488e+02
603             	3.32743883e+02
604             	3.32743057e+02
605             	3.32742835e+02
606             	3.32742644e+02
607             	3.32742387e+02
608             	3.32742125e+02
609             	3.32742450e+02
610             	3.32742862e+02
611             	3.32743485e+02
612             	3.32743270e+02
613             	3.32742981e+02
614             	3.32742768e+02
615             	3.32742576e+02
616             	3.32742758e+02
617             	3.32742971e+02
618             	3.32742955e+02
619             	3.32743279e+02
620             	3.32743969e+02
621             	3.32744679e+02
