# Region        : cellZone component_1
# Cells         : 156
# Volume        : 2.94634505e-01
# Time          	volAverage(T)
1               	3.00539208e+02
2               	3.01072892e+02
3               	3.01577629e+02
4               	3.02062226e+02
5               	3.02534102e+02
6               	3.02996504e+02
7               	3.03451714e+02
8               	3.03902179e+02
9               	3.04350462e+02
10              	3.04796116e+02
11              	3.05236868e+02
12              	3.05670367e+02
13              	3.06099263e+02
14              	3.06523686e+02
15              	3.06948219e+02
16              	3.07362135e+02
17              	3.07771954e+02
18              	3.08173169e+02
19              	3.08572162e+02
20              	3.08965364e+02
21              	3.09354393e+02
22              	3.09740957e+02
23              	3.10124757e+02
24              	3.10504444e+02
25              	3.10882904e+02
26              	3.11243817e+02
27              	3.11588339e+02
28              	3.11920714e+02
29              	3.12252192e+02
30              	3.12586636e+02
31              	3.12911357e+02
32              	3.13222977e+02
33              	3.13522943e+02
34              	3.13808024e+02
35              	3.14087757e+02
36              	3.14371432e+02
37              	3.14654304e+02
38              	3.14934787e+02
39              	3.15213637e+02
40              	3.15487483e+02
41              	3.15761073e+02
42              	3.16033249e+02
43              	3.16303602e+02
44              	3.16569193e+02
45              	3.16831123e+02
46              	3.17080824e+02
47              	3.17325735e+02
48              	3.17557088e+02
49              	3.17784578e+02
50              	3.18000968e+02
51              	3.18205646e+02
52              	3.18403112e+02
53              	3.18597771e+02
54              	3.18795236e+02
55              	3.18996217e+02
56              	3.19201621e+02
57              	3.19407019e+02
58              	3.19606554e+02
59              	3.19813804e+02
60              	3.20024263e+02
61              	3.20233077e+02
62              	3.20439410e+02
63              	3.20638969e+02
64              	3.20831703e+02
65              	3.21012536e+02
66              	3.21192677e+02
67              	3.21368991e+02
68              	3.21540307e+02
69              	3.21709183e+02
70              	3.21880264e+02
71              	3.22046866e+02
72              	3.22216799e+02
73              	3.22387983e+02
74              	3.22551887e+02
75              	3.22710052e+02
76              	3.22865423e+02
77              	3.23017567e+02
78              	3.23165760e+02
79              	3.23319168e+02
80              	3.23468449e+02
81              	3.23615862e+02
82              	3.23761246e+02
83              	3.23899283e+02
84              	3.24054492e+02
85              	3.24202556e+02
86              	3.24339822e+02
87              	3.24472617e+02
88              	3.24600186e+02
89              	3.24731705e+02
90              	3.24862636e+02
91              	3.24996896e+02
92              	3.25126456e+02
93              	3.25250259e+02
94              	3.25369976e+02
95              	3.25487259e+02
96              	3.25623362e+02
97              	3.25745896e+02
98              	3.25828798e+02
99              	3.25890393e+02
100             	3.25960256e+02
101             	3.26039314e+02
102             	3.26121505e+02
103             	3.26205634e+02
104             	3.26288162e+02
105             	3.26391394e+02
106             	3.26507372e+02
107             	3.26616321e+02
108             	3.26712694e+02
109             	3.26792346e+02
110             	3.26864580e+02
111             	3.26942388e+02
112             	3.27021387e+02
113             	3.27107950e+02
114             	3.27195356e+02
115             	3.27278831e+02
116             	3.27362247e+02
117             	3.27456012e+02
118             	3.27554312e+02
119             	3.27642523e+02
120             	3.27720372e+02
121             	3.27789227e+02
122             	3.27856288e+02
123             	3.27931242e+02
124             	3.28008512e+02
125             	3.28084805e+02
126             	3.28158286e+02
127             	3.28226526e+02
128             	3.28317825e+02
129             	3.28400180e+02
130             	3.28469735e+02
131             	3.28525177e+02
132             	3.28573359e+02
133             	3.28622050e+02
134             	3.28680246e+02
135             	3.28744488e+02
136             	3.28808124e+02
137             	3.28866409e+02
138             	3.28937914e+02
139             	3.29002888e+02
140             	3.29072258e+02
141             	3.29141791e+02
142             	3.29202687e+02
143             	3.29249232e+02
144             	3.29288893e+02
145             	3.29331930e+02
146             	3.29386378e+02
147             	3.29440741e+02
148             	3.29497330e+02
149             	3.29551045e+02
150             	3.29606948e+02
151             	3.29670461e+02
152             	3.29741191e+02
153             	3.29806114e+02
154             	3.29862252e+02
155             	3.29906164e+02
156             	3.29940238e+02
157             	3.29968141e+02
158             	3.30004168e+02
159             	3.30043148e+02
160             	3.30083386e+02
161             	3.30128283e+02
162             	3.30174317e+02
163             	3.30219774e+02
164             	3.30266844e+02
165             	3.30325830e+02
166             	3.30380820e+02
167             	3.30422407e+02
168             	3.30446143e+02
169             	3.30465189e+02
170             	3.30488253e+02
171             	3.30524586e+02
172             	3.30562562e+02
173             	3.30605084e+02
174             	3.30648288e+02
175             	3.30694852e+02
176             	3.30741997e+02
177             	3.30800791e+02
178             	3.30852890e+02
179             	3.30896366e+02
180             	3.30932320e+02
181             	3.30959505e+02
182             	3.30986812e+02
183             	3.31013751e+02
184             	3.31042395e+02
185             	3.31073574e+02
186             	3.31105424e+02
187             	3.31139676e+02
188             	3.31176165e+02
189             	3.31213881e+02
190             	3.31251048e+02
191             	3.31287586e+02
192             	3.31321917e+02
193             	3.31355466e+02
194             	3.31387454e+02
195             	3.31417502e+02
196             	3.31448009e+02
197             	3.31479975e+02
198             	3.31513478e+02
199             	3.31548913e+02
200             	3.31584045e+02
201             	3.31619175e+02
202             	3.31655413e+02
203             	3.31693298e+02
204             	3.31731855e+02
205             	3.31767650e+02
206             	3.31800024e+02
207             	3.31830498e+02
208             	3.31858396e+02
209             	3.31883430e+02
210             	3.31907182e+02
211             	3.31933032e+02
212             	3.31958486e+02
213             	3.31984989e+02
214             	3.32012719e+02
215             	3.32042058e+02
216             	3.32072344e+02
217             	3.32103457e+02
218             	3.32135529e+02
219             	3.32166454e+02
220             	3.32196272e+02
221             	3.32224633e+02
222             	3.32251662e+02
223             	3.32277525e+02
224             	3.32302927e+02
225             	3.32327847e+02
226             	3.32352371e+02
227             	3.32376920e+02
228             	3.32401420e+02
229             	3.32425642e+02
230             	3.32448993e+02
231             	3.32471638e+02
232             	3.32494361e+02
233             	3.32515746e+02
234             	3.32535485e+02
235             	3.32554322e+02
236             	3.32571808e+02
237             	3.32590010e+02
238             	3.32609137e+02
239             	3.32628452e+02
240             	3.32648833e+02
241             	3.32670014e+02
242             	3.32692187e+02
243             	3.32713770e+02
244             	3.32735466e+02
245             	3.32756973e+02
246             	3.32778355e+02
247             	3.32798691e+02
248             	3.32817617e+02
249             	3.32835578e+02
250             	3.32852514e+02
251             	3.32868109e+02
252             	3.32883092e+02
253             	3.32897779e+02
254             	3.32913307e+02
255             	3.32927979e+02
256             	3.32942738e+02
257             	3.32958052e+02
258             	3.32973972e+02
259             	3.32990037e+02
260             	3.33005321e+02
261             	3.33020192e+02
262             	3.33035273e+02
263             	3.33050239e+02
264             	3.33065236e+02
265             	3.33080171e+02
266             	3.33094577e+02
267             	3.33109153e+02
268             	3.33123115e+02
269             	3.33136337e+02
270             	3.33148664e+02
271             	3.33160365e+02
272             	3.33171863e+02
273             	3.33182891e+02
274             	3.33193830e+02
275             	3.33205505e+02
276             	3.33217747e+02
277             	3.33230371e+02
278             	3.33242806e+02
279             	3.33255729e+02
280             	3.33268897e+02
281             	3.33282498e+02
282             	3.33294931e+02
283             	3.33307156e+02
284             	3.33318145e+02
285             	3.33328646e+02
286             	3.33339112e+02
287             	3.33349697e+02
288             	3.33360185e+02
289             	3.33370866e+02
290             	3.33381633e+02
291             	3.33392194e+02
292             	3.33402894e+02
293             	3.33413018e+02
294             	3.33422976e+02
295             	3.33432459e+02
296             	3.33441567e+02
297             	3.33450695e+02
298             	3.33459854e+02
299             	3.33469038e+02
300             	3.33478326e+02
301             	3.33487833e+02
302             	3.33497258e+02
303             	3.33506342e+02
304             	3.33515355e+02
305             	3.33523620e+02
306             	3.33531628e+02
307             	3.33538780e+02
308             	3.33545675e+02
309             	3.33552276e+02
310             	3.33558761e+02
311             	3.33565355e+02
312             	3.33572330e+02
313             	3.33579517e+02
314             	3.33587114e+02
315             	3.33594869e+02
316             	3.33603229e+02
317             	3.33611505e+02
318             	3.33619927e+02
319             	3.33627885e+02
320             	3.33635935e+02
321             	3.33643228e+02
322             	3.33650140e+02
323             	3.33656363e+02
324             	3.33662391e+02
325             	3.33667889e+02
326             	3.33673295e+02
327             	3.33678508e+02
328             	3.33683843e+02
329             	3.33689648e+02
330             	3.33695442e+02
331             	3.33701500e+02
332             	3.33707805e+02
333             	3.33714392e+02
334             	3.33721015e+02
335             	3.33727796e+02
336             	3.33734452e+02
337             	3.33740875e+02
338             	3.33746617e+02
339             	3.33752237e+02
340             	3.33757109e+02
341             	3.33761883e+02
342             	3.33765933e+02
343             	3.33769757e+02
344             	3.33773273e+02
345             	3.33776946e+02
346             	3.33780529e+02
347             	3.33784511e+02
348             	3.33788845e+02
349             	3.33793293e+02
350             	3.33797949e+02
351             	3.33802669e+02
352             	3.33807679e+02
353             	3.33812640e+02
354             	3.33817856e+02
355             	3.33822810e+02
356             	3.33827855e+02
357             	3.33832286e+02
358             	3.33836697e+02
359             	3.33840654e+02
360             	3.33844330e+02
361             	3.33847790e+02
362             	3.33851397e+02
363             	3.33854969e+02
364             	3.33858624e+02
365             	3.33862382e+02
366             	3.33866034e+02
367             	3.33870097e+02
368             	3.33874104e+02
369             	3.33878229e+02
370             	3.33882216e+02
371             	3.33886281e+02
372             	3.33889990e+02
373             	3.33893946e+02
374             	3.33897322e+02
375             	3.33900677e+02
376             	3.33903758e+02
377             	3.33906814e+02
378             	3.33909365e+02
379             	3.33912079e+02
380             	3.33914439e+02
381             	3.33916815e+02
382             	3.33918977e+02
383             	3.33921261e+02
384             	3.33923292e+02
385             	3.33925516e+02
386             	3.33927634e+02
387             	3.33929944e+02
388             	3.33932094e+02
389             	3.33934481e+02
390             	3.33936795e+02
391             	3.33939391e+02
392             	3.33941765e+02
393             	3.33944350e+02
394             	3.33946813e+02
395             	3.33949421e+02
396             	3.33951750e+02
397             	3.33954343e+02
398             	3.33956684e+02
399             	3.33959137e+02
400             	3.33961358e+02
401             	3.33963631e+02
402             	3.33965653e+02
403             	3.33967850e+02
404             	3.33969659e+02
405             	3.33971587e+02
406             	3.33973326e+02
407             	3.33975234e+02
408             	3.33976818e+02
409             	3.33978642e+02
410             	3.33980264e+02
411             	3.33982062e+02
412             	3.33983637e+02
413             	3.33985375e+02
414             	3.33986946e+02
415             	3.33988710e+02
416             	3.33990226e+02
417             	3.33991888e+02
418             	3.33993395e+02
419             	3.33995040e+02
420             	3.33996441e+02
421             	3.33998086e+02
422             	3.33999454e+02
423             	3.34001003e+02
424             	3.34002421e+02
425             	3.34004006e+02
426             	3.34005325e+02
427             	3.34006903e+02
428             	3.34008322e+02
429             	3.34009917e+02
430             	3.34011315e+02
431             	3.34012871e+02
432             	3.34014351e+02
433             	3.34016002e+02
434             	3.34017484e+02
435             	3.34019110e+02
436             	3.34020592e+02
437             	3.34022251e+02
438             	3.34023635e+02
439             	3.34025232e+02
440             	3.34026647e+02
441             	3.34028169e+02
442             	3.34029473e+02
443             	3.34030895e+02
444             	3.34032113e+02
445             	3.34033501e+02
446             	3.34034622e+02
447             	3.34035896e+02
448             	3.34036985e+02
449             	3.34038229e+02
450             	3.34039217e+02
451             	3.34040409e+02
452             	3.34041361e+02
453             	3.34042470e+02
454             	3.34043332e+02
455             	3.34044367e+02
456             	3.34045224e+02
457             	3.34046294e+02
458             	3.34047054e+02
459             	3.34047968e+02
460             	3.34048839e+02
461             	3.34049795e+02
462             	3.34050579e+02
463             	3.34051529e+02
464             	3.34052290e+02
465             	3.34053236e+02
466             	3.34053978e+02
467             	3.34054956e+02
468             	3.34055684e+02
469             	3.34056650e+02
470             	3.34057356e+02
471             	3.34058232e+02
472             	3.34058927e+02
473             	3.34059765e+02
474             	3.34060375e+02
475             	3.34061196e+02
476             	3.34061854e+02
477             	3.34062690e+02
478             	3.34063330e+02
479             	3.34064151e+02
480             	3.34064833e+02
481             	3.34065725e+02
482             	3.34066417e+02
483             	3.34067291e+02
484             	3.34068080e+02
485             	3.34068988e+02
486             	3.34069627e+02
487             	3.34070437e+02
488             	3.34071012e+02
489             	3.34071755e+02
490             	3.34072257e+02
491             	3.34072946e+02
492             	3.34073398e+02
493             	3.34074023e+02
494             	3.34074480e+02
495             	3.34075118e+02
496             	3.34075540e+02
497             	3.34076167e+02
498             	3.34076628e+02
499             	3.34077275e+02
500             	3.34077717e+02
501             	3.34078340e+02
502             	3.34078813e+02
503             	3.34079483e+02
504             	3.34079877e+02
505             	3.34080451e+02
506             	3.34080904e+02
507             	3.34081527e+02
508             	3.34081895e+02
509             	3.34082465e+02
510             	3.34082868e+02
511             	3.34083462e+02
512             	3.34083799e+02
513             	3.34084304e+02
514             	3.34084686e+02
515             	3.34085248e+02
516             	3.34085628e+02
517             	3.34086193e+02
518             	3.34086607e+02
519             	3.34087245e+02
520             	3.34087658e+02
521             	3.34088273e+02
522             	3.34088708e+02
523             	3.34089302e+02
524             	3.34089575e+02
525             	3.34090016e+02
526             	3.34090278e+02
527             	3.34090698e+02
528             	3.34090863e+02
529             	3.34091208e+02
530             	3.34091409e+02
531             	3.34091816e+02
532             	3.34091995e+02
533             	3.34092386e+02
534             	3.34092682e+02
535             	3.34093157e+02
536             	3.34093430e+02
537             	3.34093891e+02
538             	3.34094197e+02
539             	3.34094708e+02
540             	3.34094982e+02
541             	3.34095445e+02
542             	3.34095802e+02
543             	3.34096336e+02
544             	3.34096650e+02
545             	3.34097171e+02
546             	3.34097461e+02
547             	3.34097927e+02
548             	3.34098183e+02
549             	3.34098599e+02
550             	3.34098748e+02
551             	3.34099073e+02
552             	3.34099203e+02
553             	3.34099498e+02
554             	3.34099499e+02
555             	3.34099672e+02
556             	3.34099756e+02
557             	3.34099999e+02
558             	3.34100086e+02
559             	3.34100386e+02
560             	3.34100494e+02
561             	3.34100816e+02
562             	3.34101002e+02
563             	3.34101416e+02
564             	3.34101571e+02
565             	3.34101910e+02
566             	3.34102148e+02
567             	3.34102539e+02
568             	3.34102711e+02
569             	3.34103074e+02
570             	3.34103204e+02
571             	3.34103519e+02
572             	3.34103640e+02
573             	3.34103949e+02
574             	3.34104013e+02
575             	3.34104275e+02
576             	3.34104353e+02
577             	3.34104628e+02
578             	3.34104645e+02
579             	3.34104855e+02
580             	3.34104953e+02
581             	3.34105201e+02
582             	3.34105232e+02
583             	3.34105448e+02
584             	3.34105482e+02
585             	3.34105718e+02
586             	3.34105750e+02
587             	3.34105985e+02
588             	3.34106056e+02
589             	3.34106337e+02
590             	3.34106403e+02
591             	3.34106672e+02
592             	3.34106806e+02
593             	3.34107151e+02
594             	3.34107242e+02
595             	3.34107511e+02
596             	3.34107662e+02
597             	3.34107988e+02
598             	3.34108085e+02
599             	3.34108372e+02
600             	3.34108468e+02
601             	3.34108760e+02
602             	3.34108816e+02
603             	3.34109054e+02
604             	3.34109136e+02
605             	3.34109413e+02
606             	3.34109420e+02
607             	3.34109603e+02
608             	3.34109674e+02
609             	3.34109903e+02
610             	3.34109905e+02
611             	3.34110088e+02
612             	3.34110082e+02
613             	3.34110269e+02
614             	3.34110251e+02
615             	3.34110429e+02
616             	3.34110441e+02
617             	3.34110658e+02
618             	3.34110679e+02
619             	3.34110911e+02
620             	3.34110973e+02
621             	3.34111252e+02
