# Region        : cellZone component_4
# Cells         : 362
# Volume        : 7.45651233e-01
# Time          	volAverage(T)
1               	3.00865075e+02
2               	3.01721670e+02
3               	3.02526248e+02
4               	3.03297098e+02
5               	3.04049848e+02
6               	3.04789847e+02
7               	3.05518926e+02
8               	3.06240318e+02
9               	3.06956031e+02
10              	3.07665900e+02
11              	3.08368863e+02
12              	3.09066477e+02
13              	3.09757787e+02
14              	3.10441785e+02
15              	3.11122353e+02
16              	3.11796534e+02
17              	3.12467326e+02
18              	3.13135348e+02
19              	3.13798255e+02
20              	3.14457701e+02
21              	3.15110490e+02
22              	3.15756440e+02
23              	3.16393714e+02
24              	3.17019394e+02
25              	3.17632143e+02
26              	3.18235627e+02
27              	3.18828339e+02
28              	3.19418692e+02
29              	3.20005177e+02
30              	3.20581670e+02
31              	3.21151149e+02
32              	3.21719061e+02
33              	3.22262499e+02
34              	3.22786806e+02
35              	3.23305741e+02
36              	3.23827294e+02
37              	3.24338511e+02
38              	3.24838555e+02
39              	3.25324801e+02
40              	3.25798974e+02
41              	3.26266800e+02
42              	3.26729628e+02
43              	3.27201618e+02
44              	3.27667995e+02
45              	3.28109042e+02
46              	3.28529859e+02
47              	3.28943293e+02
48              	3.29364786e+02
49              	3.29785080e+02
50              	3.30195422e+02
51              	3.30595128e+02
52              	3.30982483e+02
53              	3.31358790e+02
54              	3.31748864e+02
55              	3.32142990e+02
56              	3.32549380e+02
57              	3.32954706e+02
58              	3.33323840e+02
59              	3.33661564e+02
60              	3.33998720e+02
61              	3.34320432e+02
62              	3.34636488e+02
63              	3.34948169e+02
64              	3.35250171e+02
65              	3.35540934e+02
66              	3.35838319e+02
67              	3.36144514e+02
68              	3.36462310e+02
69              	3.36796122e+02
70              	3.37073336e+02
71              	3.37293252e+02
72              	3.37511575e+02
73              	3.37747448e+02
74              	3.37984224e+02
75              	3.38208915e+02
76              	3.38425024e+02
77              	3.38633471e+02
78              	3.38849421e+02
79              	3.39078215e+02
80              	3.39323785e+02
81              	3.39587810e+02
82              	3.39847926e+02
83              	3.40086212e+02
84              	3.40305909e+02
85              	3.40519007e+02
86              	3.40734524e+02
87              	3.40943570e+02
88              	3.41136435e+02
89              	3.41320972e+02
90              	3.41493000e+02
91              	3.41672027e+02
92              	3.41861577e+02
93              	3.42060259e+02
94              	3.42269486e+02
95              	3.42486209e+02
96              	3.42697737e+02
97              	3.42902599e+02
98              	3.43104634e+02
99              	3.43293376e+02
100             	3.43473925e+02
101             	3.43643458e+02
102             	3.43805302e+02
103             	3.43962522e+02
104             	3.44113254e+02
105             	3.44266084e+02
106             	3.44419167e+02
107             	3.44579988e+02
108             	3.44747799e+02
109             	3.44922887e+02
110             	3.45099283e+02
111             	3.45274593e+02
112             	3.45449839e+02
113             	3.45619374e+02
114             	3.45784930e+02
115             	3.45941399e+02
116             	3.46089319e+02
117             	3.46229707e+02
118             	3.46360077e+02
119             	3.46484273e+02
120             	3.46611831e+02
121             	3.46738364e+02
122             	3.46871066e+02
123             	3.47010464e+02
124             	3.47155620e+02
125             	3.47301452e+02
126             	3.47446832e+02
127             	3.47586514e+02
128             	3.47722263e+02
129             	3.47853551e+02
130             	3.47979325e+02
131             	3.48100692e+02
132             	3.48217896e+02
133             	3.48333607e+02
134             	3.48446704e+02
135             	3.48559673e+02
136             	3.48671281e+02
137             	3.48783478e+02
138             	3.48895496e+02
139             	3.49008220e+02
140             	3.49121815e+02
141             	3.49235615e+02
142             	3.49349214e+02
143             	3.49462024e+02
144             	3.49572294e+02
145             	3.49679336e+02
146             	3.49784045e+02
147             	3.49886139e+02
148             	3.49983283e+02
149             	3.50078810e+02
150             	3.50171253e+02
151             	3.50260211e+02
152             	3.50346144e+02
153             	3.50429138e+02
154             	3.50509508e+02
155             	3.50588749e+02
156             	3.50669407e+02
157             	3.50750899e+02
158             	3.50833598e+02
159             	3.50917676e+02
160             	3.51000275e+02
161             	3.51079443e+02
162             	3.51154599e+02
163             	3.51224897e+02
164             	3.51290858e+02
165             	3.51353129e+02
166             	3.51414590e+02
167             	3.51474877e+02
168             	3.51535404e+02
169             	3.51595824e+02
170             	3.51658630e+02
171             	3.51722541e+02
172             	3.51785482e+02
173             	3.51848993e+02
174             	3.51911401e+02
175             	3.51972550e+02
176             	3.52031497e+02
177             	3.52087281e+02
178             	3.52141002e+02
179             	3.52192282e+02
180             	3.52241463e+02
181             	3.52289036e+02
182             	3.52335507e+02
183             	3.52381378e+02
184             	3.52426826e+02
185             	3.52473041e+02
186             	3.52519621e+02
187             	3.52566889e+02
188             	3.52614808e+02
189             	3.52662969e+02
190             	3.52710776e+02
191             	3.52756624e+02
192             	3.52801180e+02
193             	3.52843582e+02
194             	3.52884167e+02
195             	3.52922460e+02
196             	3.52958918e+02
197             	3.52994057e+02
198             	3.53028706e+02
199             	3.53062864e+02
200             	3.53097118e+02
201             	3.53132223e+02
202             	3.53167371e+02
203             	3.53202567e+02
204             	3.53237845e+02
205             	3.53273325e+02
206             	3.53308425e+02
207             	3.53343017e+02
208             	3.53376705e+02
209             	3.53409277e+02
210             	3.53441054e+02
211             	3.53471336e+02
212             	3.53500421e+02
213             	3.53528398e+02
214             	3.53555140e+02
215             	3.53581117e+02
216             	3.53606673e+02
217             	3.53631936e+02
218             	3.53656826e+02
219             	3.53681609e+02
220             	3.53706283e+02
221             	3.53730888e+02
222             	3.53754667e+02
223             	3.53778461e+02
224             	3.53801739e+02
225             	3.53825261e+02
226             	3.53849263e+02
227             	3.53873725e+02
228             	3.53897990e+02
229             	3.53921645e+02
230             	3.53944400e+02
231             	3.53965768e+02
232             	3.53985378e+02
233             	3.54003609e+02
234             	3.54020824e+02
235             	3.54037603e+02
236             	3.54054160e+02
237             	3.54070937e+02
238             	3.54088218e+02
239             	3.54106359e+02
240             	3.54125448e+02
241             	3.54145105e+02
242             	3.54164902e+02
243             	3.54184423e+02
244             	3.54203434e+02
245             	3.54221650e+02
246             	3.54238836e+02
247             	3.54255077e+02
248             	3.54270367e+02
249             	3.54284887e+02
250             	3.54298932e+02
251             	3.54312350e+02
252             	3.54325170e+02
253             	3.54337405e+02
254             	3.54349220e+02
255             	3.54361141e+02
256             	3.54372960e+02
257             	3.54385482e+02
258             	3.54398915e+02
259             	3.54412971e+02
260             	3.54427279e+02
261             	3.54441532e+02
262             	3.54455364e+02
263             	3.54468471e+02
264             	3.54480276e+02
265             	3.54490760e+02
266             	3.54500110e+02
267             	3.54508340e+02
268             	3.54515978e+02
269             	3.54523264e+02
270             	3.54530471e+02
271             	3.54537890e+02
272             	3.54545889e+02
273             	3.54554736e+02
274             	3.54564335e+02
275             	3.54574755e+02
276             	3.54585705e+02
277             	3.54596794e+02
278             	3.54607503e+02
279             	3.54617394e+02
280             	3.54626201e+02
281             	3.54634266e+02
282             	3.54641605e+02
283             	3.54648197e+02
284             	3.54654025e+02
285             	3.54659430e+02
286             	3.54664339e+02
287             	3.54668882e+02
288             	3.54673474e+02
289             	3.54678212e+02
290             	3.54683280e+02
291             	3.54688984e+02
292             	3.54695373e+02
293             	3.54702373e+02
294             	3.54709635e+02
295             	3.54716948e+02
296             	3.54724034e+02
297             	3.54730665e+02
298             	3.54736351e+02
299             	3.54741028e+02
300             	3.54744673e+02
301             	3.54747377e+02
302             	3.54749391e+02
303             	3.54751210e+02
304             	3.54752855e+02
305             	3.54754899e+02
306             	3.54757609e+02
307             	3.54761223e+02
308             	3.54765310e+02
309             	3.54770179e+02
310             	3.54775547e+02
311             	3.54781142e+02
312             	3.54786652e+02
313             	3.54791606e+02
314             	3.54796099e+02
315             	3.54799459e+02
316             	3.54801714e+02
317             	3.54803060e+02
318             	3.54803743e+02
319             	3.54803980e+02
320             	3.54804083e+02
321             	3.54804401e+02
322             	3.54805564e+02
323             	3.54807479e+02
324             	3.54810467e+02
325             	3.54814339e+02
326             	3.54818593e+02
327             	3.54822826e+02
328             	3.54826218e+02
329             	3.54828152e+02
330             	3.54828613e+02
331             	3.54827875e+02
332             	3.54826539e+02
333             	3.54825364e+02
334             	3.54824768e+02
335             	3.54825324e+02
336             	3.54827285e+02
337             	3.54830193e+02
338             	3.54833568e+02
339             	3.54837157e+02
340             	3.54839936e+02
341             	3.54842006e+02
342             	3.54843216e+02
343             	3.54843634e+02
344             	3.54843481e+02
345             	3.54843109e+02
346             	3.54842835e+02
347             	3.54842882e+02
348             	3.54843356e+02
349             	3.54844127e+02
350             	3.54844957e+02
351             	3.54845604e+02
352             	3.54845962e+02
353             	3.54846053e+02
354             	3.54845885e+02
355             	3.54845702e+02
356             	3.54845804e+02
357             	3.54846388e+02
358             	3.54847471e+02
359             	3.54849011e+02
360             	3.54850652e+02
361             	3.54852090e+02
362             	3.54853128e+02
363             	3.54853416e+02
364             	3.54852937e+02
365             	3.54851812e+02
366             	3.54850331e+02
367             	3.54848843e+02
368             	3.54847750e+02
369             	3.54846960e+02
370             	3.54846920e+02
371             	3.54847393e+02
372             	3.54848243e+02
373             	3.54849277e+02
374             	3.54850143e+02
375             	3.54850710e+02
376             	3.54850944e+02
377             	3.54850883e+02
378             	3.54850647e+02
379             	3.54850390e+02
380             	3.54850103e+02
381             	3.54849755e+02
382             	3.54849352e+02
383             	3.54848869e+02
384             	3.54848172e+02
385             	3.54847297e+02
386             	3.54846316e+02
387             	3.54845283e+02
388             	3.54844334e+02
389             	3.54843523e+02
390             	3.54842951e+02
391             	3.54842655e+02
392             	3.54842641e+02
393             	3.54842830e+02
394             	3.54842983e+02
395             	3.54843191e+02
396             	3.54843262e+02
397             	3.54843145e+02
398             	3.54842694e+02
399             	3.54842034e+02
400             	3.54841143e+02
401             	3.54840118e+02
402             	3.54839020e+02
403             	3.54837880e+02
404             	3.54836871e+02
405             	3.54835962e+02
406             	3.54835228e+02
407             	3.54834617e+02
408             	3.54834163e+02
409             	3.54833820e+02
410             	3.54833540e+02
411             	3.54833292e+02
412             	3.54833059e+02
413             	3.54832850e+02
414             	3.54832655e+02
415             	3.54832364e+02
416             	3.54832024e+02
417             	3.54831624e+02
418             	3.54831107e+02
419             	3.54830481e+02
420             	3.54829768e+02
421             	3.54829012e+02
422             	3.54828238e+02
423             	3.54827426e+02
424             	3.54826599e+02
425             	3.54825865e+02
426             	3.54825161e+02
427             	3.54824524e+02
428             	3.54823978e+02
429             	3.54823520e+02
430             	3.54823110e+02
431             	3.54822712e+02
432             	3.54822377e+02
433             	3.54822044e+02
434             	3.54821691e+02
435             	3.54821277e+02
436             	3.54820806e+02
437             	3.54820294e+02
438             	3.54819743e+02
439             	3.54819106e+02
440             	3.54818405e+02
441             	3.54817662e+02
442             	3.54816943e+02
443             	3.54816235e+02
444             	3.54815574e+02
445             	3.54814983e+02
446             	3.54814487e+02
447             	3.54814078e+02
448             	3.54813746e+02
449             	3.54813483e+02
450             	3.54813261e+02
451             	3.54813046e+02
452             	3.54812807e+02
453             	3.54812510e+02
454             	3.54812140e+02
455             	3.54811717e+02
456             	3.54811279e+02
457             	3.54810824e+02
458             	3.54810375e+02
459             	3.54809941e+02
460             	3.54809524e+02
461             	3.54809111e+02
462             	3.54808691e+02
463             	3.54808252e+02
464             	3.54807788e+02
465             	3.54807294e+02
466             	3.54806801e+02
467             	3.54806295e+02
468             	3.54805813e+02
469             	3.54805358e+02
470             	3.54804929e+02
471             	3.54804525e+02
472             	3.54804143e+02
473             	3.54803780e+02
474             	3.54803429e+02
475             	3.54803090e+02
476             	3.54802764e+02
477             	3.54802457e+02
478             	3.54802160e+02
479             	3.54801860e+02
480             	3.54801554e+02
481             	3.54801230e+02
482             	3.54800882e+02
483             	3.54800513e+02
484             	3.54800127e+02
485             	3.54799730e+02
486             	3.54799331e+02
487             	3.54798926e+02
488             	3.54798528e+02
489             	3.54798131e+02
490             	3.54797759e+02
491             	3.54797407e+02
492             	3.54797077e+02
493             	3.54796762e+02
494             	3.54796464e+02
495             	3.54796182e+02
496             	3.54795905e+02
497             	3.54795630e+02
498             	3.54795357e+02
499             	3.54795086e+02
500             	3.54794818e+02
501             	3.54794548e+02
502             	3.54794279e+02
503             	3.54794005e+02
504             	3.54793727e+02
505             	3.54793444e+02
506             	3.54793159e+02
507             	3.54792879e+02
508             	3.54792605e+02
509             	3.54792338e+02
510             	3.54792072e+02
511             	3.54791811e+02
512             	3.54791552e+02
513             	3.54791297e+02
514             	3.54791046e+02
515             	3.54790799e+02
516             	3.54790555e+02
517             	3.54790316e+02
518             	3.54790093e+02
519             	3.54789877e+02
520             	3.54789675e+02
521             	3.54789492e+02
522             	3.54789322e+02
523             	3.54789160e+02
524             	3.54789009e+02
525             	3.54788864e+02
526             	3.54788723e+02
527             	3.54788584e+02
528             	3.54788447e+02
529             	3.54788312e+02
530             	3.54788179e+02
531             	3.54788048e+02
532             	3.54787913e+02
533             	3.54787775e+02
534             	3.54787636e+02
535             	3.54787495e+02
536             	3.54787357e+02
537             	3.54787220e+02
538             	3.54787083e+02
539             	3.54786944e+02
540             	3.54786807e+02
541             	3.54786671e+02
542             	3.54786532e+02
543             	3.54786394e+02
544             	3.54786255e+02
545             	3.54786120e+02
546             	3.54785987e+02
547             	3.54785867e+02
548             	3.54785759e+02
549             	3.54785667e+02
550             	3.54785589e+02
551             	3.54785519e+02
552             	3.54785458e+02
553             	3.54785400e+02
554             	3.54785342e+02
555             	3.54785285e+02
556             	3.54785219e+02
557             	3.54785157e+02
558             	3.54785098e+02
559             	3.54785041e+02
560             	3.54784986e+02
561             	3.54784936e+02
562             	3.54784890e+02
563             	3.54784846e+02
564             	3.54784801e+02
565             	3.54784755e+02
566             	3.54784709e+02
567             	3.54784664e+02
568             	3.54784621e+02
569             	3.54784582e+02
570             	3.54784549e+02
571             	3.54784514e+02
572             	3.54784489e+02
573             	3.54784469e+02
574             	3.54784455e+02
575             	3.54784441e+02
576             	3.54784427e+02
577             	3.54784414e+02
578             	3.54784403e+02
579             	3.54784397e+02
580             	3.54784396e+02
581             	3.54784399e+02
582             	3.54784409e+02
583             	3.54784425e+02
584             	3.54784448e+02
585             	3.54784475e+02
586             	3.54784510e+02
587             	3.54784549e+02
588             	3.54784587e+02
589             	3.54784626e+02
590             	3.54784664e+02
591             	3.54784699e+02
592             	3.54784734e+02
593             	3.54784770e+02
594             	3.54784804e+02
595             	3.54784842e+02
596             	3.54784891e+02
597             	3.54784953e+02
598             	3.54785024e+02
599             	3.54785108e+02
600             	3.54785198e+02
601             	3.54785293e+02
602             	3.54785388e+02
603             	3.54785478e+02
604             	3.54785562e+02
605             	3.54785642e+02
606             	3.54785720e+02
607             	3.54785795e+02
608             	3.54785868e+02
609             	3.54785941e+02
610             	3.54786016e+02
611             	3.54786100e+02
612             	3.54786196e+02
613             	3.54786303e+02
614             	3.54786419e+02
615             	3.54786539e+02
616             	3.54786659e+02
617             	3.54786778e+02
618             	3.54786884e+02
619             	3.54786978e+02
620             	3.54787062e+02
621             	3.54787137e+02
