# Region        : cellZone pcb
# Cells         : 395
# Volume        : 8.07291779e-01
# Time          	volAverage(T)
1               	3.00017203e+02
2               	3.00050296e+02
3               	3.00095363e+02
4               	3.00148609e+02
5               	3.00204761e+02
6               	3.00265688e+02
7               	3.00335072e+02
8               	3.00409437e+02
9               	3.00488647e+02
10              	3.00572510e+02
11              	3.00660485e+02
12              	3.00751973e+02
13              	3.00844751e+02
14              	3.00939756e+02
15              	3.01034542e+02
16              	3.01129145e+02
17              	3.01227859e+02
18              	3.01325211e+02
19              	3.01423575e+02
20              	3.01523656e+02
21              	3.01624085e+02
22              	3.01724203e+02
23              	3.01824984e+02
24              	3.01926983e+02
25              	3.02027626e+02
26              	3.02128894e+02
27              	3.02228357e+02
28              	3.02325642e+02
29              	3.02425148e+02
30              	3.02522921e+02
31              	3.02618294e+02
32              	3.02714803e+02
33              	3.02813505e+02
34              	3.02911141e+02
35              	3.03007374e+02
36              	3.03101881e+02
37              	3.03194790e+02
38              	3.03285026e+02
39              	3.03376890e+02
40              	3.03467766e+02
41              	3.03554460e+02
42              	3.03639863e+02
43              	3.03722011e+02
44              	3.03802595e+02
45              	3.03882700e+02
46              	3.03959840e+02
47              	3.04039633e+02
48              	3.04122401e+02
49              	3.04194608e+02
50              	3.04265108e+02
51              	3.04345296e+02
52              	3.04414256e+02
53              	3.04470885e+02
54              	3.04538717e+02
55              	3.04612943e+02
56              	3.04675258e+02
57              	3.04727913e+02
58              	3.04780073e+02
59              	3.04832586e+02
60              	3.04888547e+02
61              	3.04939353e+02
62              	3.04985173e+02
63              	3.05030225e+02
64              	3.05076325e+02
65              	3.05123432e+02
66              	3.05171727e+02
67              	3.05219027e+02
68              	3.05266732e+02
69              	3.05313412e+02
70              	3.05361770e+02
71              	3.05408088e+02
72              	3.05449809e+02
73              	3.05489943e+02
74              	3.05533454e+02
75              	3.05578492e+02
76              	3.05623485e+02
77              	3.05664501e+02
78              	3.05704979e+02
79              	3.05746192e+02
80              	3.05785796e+02
81              	3.05820985e+02
82              	3.05854959e+02
83              	3.05889196e+02
84              	3.05922253e+02
85              	3.05956055e+02
86              	3.05989747e+02
87              	3.06022631e+02
88              	3.06055736e+02
89              	3.06087037e+02
90              	3.06115585e+02
91              	3.06138427e+02
92              	3.06159062e+02
93              	3.06182167e+02
94              	3.06207383e+02
95              	3.06232865e+02
96              	3.06261159e+02
97              	3.06294591e+02
98              	3.06329645e+02
99              	3.06358827e+02
100             	3.06381406e+02
101             	3.06405350e+02
102             	3.06427459e+02
103             	3.06446867e+02
104             	3.06464974e+02
105             	3.06484648e+02
106             	3.06505523e+02
107             	3.06527376e+02
108             	3.06551309e+02
109             	3.06574641e+02
110             	3.06597080e+02
111             	3.06622838e+02
112             	3.06648887e+02
113             	3.06677507e+02
114             	3.06703873e+02
115             	3.06724965e+02
116             	3.06746183e+02
117             	3.06768431e+02
118             	3.06790798e+02
119             	3.06813253e+02
120             	3.06833823e+02
121             	3.06857577e+02
122             	3.06880221e+02
123             	3.06907456e+02
124             	3.06932133e+02
125             	3.06951997e+02
126             	3.06972413e+02
127             	3.06996530e+02
128             	3.07015409e+02
129             	3.07030112e+02
130             	3.07045174e+02
131             	3.07067527e+02
132             	3.07088452e+02
133             	3.07105695e+02
134             	3.07122672e+02
135             	3.07141132e+02
136             	3.07160013e+02
137             	3.07178288e+02
138             	3.07197942e+02
139             	3.07218252e+02
140             	3.07233668e+02
141             	3.07249794e+02
142             	3.07264237e+02
143             	3.07279581e+02
144             	3.07297810e+02
145             	3.07309805e+02
146             	3.07321442e+02
147             	3.07334324e+02
148             	3.07344458e+02
149             	3.07354796e+02
150             	3.07365040e+02
151             	3.07381873e+02
152             	3.07400396e+02
153             	3.07413650e+02
154             	3.07424088e+02
155             	3.07438209e+02
156             	3.07453325e+02
157             	3.07468208e+02
158             	3.07481334e+02
159             	3.07494501e+02
160             	3.07499146e+02
161             	3.07504514e+02
162             	3.07509485e+02
163             	3.07510695e+02
164             	3.07517662e+02
165             	3.07528072e+02
166             	3.07540287e+02
167             	3.07554349e+02
168             	3.07567508e+02
169             	3.07580581e+02
170             	3.07590667e+02
171             	3.07595751e+02
172             	3.07603597e+02
173             	3.07611106e+02
174             	3.07615971e+02
175             	3.07624750e+02
176             	3.07632499e+02
177             	3.07645333e+02
178             	3.07658145e+02
179             	3.07672017e+02
180             	3.07685557e+02
181             	3.07698124e+02
182             	3.07702563e+02
183             	3.07703210e+02
184             	3.07710956e+02
185             	3.07717538e+02
186             	3.07722166e+02
187             	3.07728478e+02
188             	3.07733694e+02
189             	3.07744957e+02
190             	3.07756869e+02
191             	3.07770373e+02
192             	3.07781924e+02
193             	3.07792745e+02
194             	3.07797950e+02
195             	3.07803015e+02
196             	3.07803130e+02
197             	3.07809430e+02
198             	3.07814762e+02
199             	3.07816690e+02
200             	3.07819963e+02
201             	3.07830264e+02
202             	3.07841263e+02
203             	3.07852722e+02
204             	3.07863014e+02
205             	3.07872624e+02
206             	3.07883242e+02
207             	3.07887315e+02
208             	3.07889450e+02
209             	3.07893181e+02
210             	3.07897373e+02
211             	3.07902955e+02
212             	3.07907752e+02
213             	3.07914391e+02
214             	3.07919659e+02
215             	3.07925495e+02
216             	3.07931402e+02
217             	3.07937540e+02
218             	3.07943158e+02
219             	3.07952810e+02
220             	3.07959148e+02
221             	3.07961283e+02
222             	3.07966509e+02
223             	3.07972409e+02
224             	3.07978798e+02
225             	3.07984183e+02
226             	3.07991880e+02
227             	3.07997678e+02
228             	3.08004308e+02
229             	3.08010823e+02
230             	3.08021151e+02
231             	3.08031384e+02
232             	3.08035705e+02
233             	3.08038641e+02
234             	3.08043203e+02
235             	3.08047161e+02
236             	3.08051923e+02
237             	3.08055417e+02
238             	3.08059920e+02
239             	3.08063889e+02
240             	3.08067753e+02
241             	3.08071622e+02
242             	3.08075258e+02
243             	3.08078113e+02
244             	3.08082571e+02
245             	3.08085107e+02
246             	3.08087825e+02
247             	3.08090003e+02
248             	3.08093551e+02
249             	3.08096845e+02
250             	3.08100027e+02
251             	3.08103048e+02
252             	3.08106758e+02
253             	3.08110197e+02
254             	3.08114996e+02
255             	3.08118079e+02
256             	3.08122976e+02
257             	3.08127422e+02
258             	3.08131275e+02
259             	3.08132948e+02
260             	3.08135124e+02
261             	3.08136915e+02
262             	3.08139357e+02
263             	3.08141576e+02
264             	3.08144047e+02
265             	3.08146294e+02
266             	3.08149501e+02
267             	3.08151961e+02
268             	3.08153766e+02
269             	3.08155489e+02
270             	3.08158060e+02
271             	3.08160695e+02
272             	3.08162469e+02
273             	3.08164751e+02
274             	3.08166573e+02
275             	3.08168684e+02
276             	3.08170218e+02
277             	3.08172807e+02
278             	3.08175275e+02
279             	3.08178273e+02
280             	3.08179407e+02
281             	3.08181896e+02
282             	3.08183361e+02
283             	3.08185133e+02
284             	3.08185561e+02
285             	3.08186506e+02
286             	3.08187046e+02
287             	3.08188162e+02
288             	3.08189935e+02
289             	3.08191388e+02
290             	3.08192699e+02
291             	3.08193008e+02
292             	3.08194763e+02
293             	3.08196373e+02
294             	3.08198336e+02
295             	3.08198743e+02
296             	3.08200511e+02
297             	3.08201376e+02
298             	3.08203605e+02
299             	3.08204773e+02
300             	3.08206386e+02
301             	3.08208534e+02
302             	3.08211706e+02
303             	3.08213463e+02
304             	3.08215624e+02
305             	3.08216373e+02
306             	3.08217428e+02
307             	3.08218071e+02
308             	3.08217782e+02
309             	3.08218373e+02
310             	3.08219414e+02
311             	3.08219495e+02
312             	3.08220692e+02
313             	3.08221467e+02
314             	3.08222864e+02
315             	3.08223746e+02
316             	3.08224838e+02
317             	3.08224941e+02
318             	3.08225512e+02
319             	3.08225488e+02
320             	3.08226670e+02
321             	3.08227106e+02
322             	3.08228607e+02
323             	3.08229108e+02
324             	3.08230830e+02
325             	3.08231418e+02
326             	3.08231841e+02
327             	3.08232624e+02
328             	3.08234138e+02
329             	3.08234351e+02
330             	3.08235253e+02
331             	3.08235776e+02
332             	3.08236086e+02
333             	3.08236021e+02
334             	3.08236504e+02
335             	3.08235831e+02
336             	3.08236263e+02
337             	3.08236104e+02
338             	3.08236913e+02
339             	3.08236690e+02
340             	3.08236633e+02
341             	3.08236808e+02
342             	3.08238131e+02
343             	3.08238741e+02
344             	3.08240026e+02
345             	3.08239512e+02
346             	3.08239932e+02
347             	3.08239675e+02
348             	3.08239784e+02
349             	3.08239341e+02
350             	3.08239914e+02
351             	3.08239470e+02
352             	3.08239932e+02
353             	3.08240054e+02
354             	3.08240549e+02
355             	3.08240336e+02
356             	3.08240469e+02
357             	3.08239614e+02
358             	3.08240004e+02
359             	3.08239975e+02
360             	3.08240929e+02
361             	3.08240473e+02
362             	3.08241354e+02
363             	3.08240524e+02
364             	3.08241097e+02
365             	3.08241197e+02
366             	3.08242512e+02
367             	3.08242018e+02
368             	3.08242508e+02
369             	3.08242597e+02
370             	3.08242771e+02
371             	3.08242772e+02
372             	3.08243464e+02
373             	3.08243153e+02
374             	3.08243710e+02
375             	3.08244001e+02
376             	3.08244040e+02
377             	3.08243759e+02
378             	3.08244225e+02
379             	3.08243609e+02
380             	3.08244074e+02
381             	3.08244120e+02
382             	3.08244537e+02
383             	3.08244353e+02
384             	3.08244998e+02
385             	3.08245017e+02
386             	3.08246077e+02
387             	3.08246219e+02
388             	3.08247447e+02
389             	3.08247632e+02
390             	3.08247895e+02
391             	3.08247933e+02
392             	3.08248679e+02
393             	3.08248246e+02
394             	3.08248802e+02
395             	3.08248715e+02
396             	3.08249373e+02
397             	3.08249223e+02
398             	3.08249779e+02
399             	3.08249562e+02
400             	3.08250048e+02
401             	3.08250104e+02
402             	3.08250281e+02
403             	3.08250138e+02
404             	3.08250753e+02
405             	3.08250500e+02
406             	3.08250466e+02
407             	3.08249847e+02
408             	3.08250219e+02
409             	3.08250048e+02
410             	3.08250278e+02
411             	3.08250072e+02
412             	3.08250663e+02
413             	3.08250741e+02
414             	3.08250788e+02
415             	3.08250613e+02
416             	3.08251285e+02
417             	3.08251431e+02
418             	3.08251754e+02
419             	3.08251614e+02
420             	3.08252201e+02
421             	3.08251746e+02
422             	3.08252252e+02
423             	3.08252209e+02
424             	3.08252559e+02
425             	3.08252459e+02
426             	3.08253094e+02
427             	3.08252595e+02
428             	3.08253073e+02
429             	3.08253067e+02
430             	3.08253042e+02
431             	3.08252753e+02
432             	3.08253320e+02
433             	3.08252875e+02
434             	3.08253350e+02
435             	3.08253338e+02
436             	3.08253497e+02
437             	3.08253194e+02
438             	3.08253750e+02
439             	3.08253126e+02
440             	3.08253557e+02
441             	3.08253717e+02
442             	3.08253656e+02
443             	3.08253423e+02
444             	3.08253962e+02
445             	3.08253444e+02
446             	3.08253947e+02
447             	3.08253968e+02
448             	3.08254233e+02
449             	3.08254133e+02
450             	3.08254718e+02
451             	3.08254224e+02
452             	3.08254694e+02
453             	3.08254713e+02
454             	3.08254943e+02
455             	3.08254791e+02
456             	3.08255372e+02
457             	3.08254927e+02
458             	3.08255439e+02
459             	3.08255461e+02
460             	3.08255738e+02
461             	3.08255659e+02
462             	3.08256336e+02
463             	3.08255956e+02
464             	3.08256487e+02
465             	3.08256468e+02
466             	3.08256668e+02
467             	3.08256550e+02
468             	3.08257300e+02
469             	3.08256722e+02
470             	3.08257182e+02
471             	3.08257263e+02
472             	3.08257272e+02
473             	3.08257115e+02
474             	3.08257727e+02
475             	3.08257206e+02
476             	3.08257710e+02
477             	3.08257721e+02
478             	3.08257891e+02
479             	3.08257693e+02
480             	3.08258244e+02
481             	3.08257767e+02
482             	3.08258228e+02
483             	3.08258188e+02
484             	3.08258377e+02
485             	3.08258192e+02
486             	3.08258774e+02
487             	3.08258318e+02
488             	3.08258828e+02
489             	3.08258857e+02
490             	3.08259088e+02
491             	3.08258950e+02
492             	3.08259548e+02
493             	3.08259027e+02
494             	3.08259428e+02
495             	3.08259310e+02
496             	3.08259441e+02
497             	3.08259219e+02
498             	3.08259753e+02
499             	3.08259208e+02
500             	3.08259631e+02
501             	3.08259550e+02
502             	3.08259680e+02
503             	3.08259409e+02
504             	3.08259923e+02
505             	3.08259291e+02
506             	3.08259609e+02
507             	3.08259518e+02
508             	3.08259550e+02
509             	3.08259323e+02
510             	3.08259845e+02
511             	3.08259222e+02
512             	3.08259559e+02
513             	3.08259458e+02
514             	3.08259531e+02
515             	3.08259303e+02
516             	3.08259842e+02
517             	3.08259303e+02
518             	3.08259734e+02
519             	3.08259715e+02
520             	3.08259868e+02
521             	3.08259719e+02
522             	3.08260309e+02
523             	3.08259823e+02
524             	3.08260282e+02
525             	3.08260274e+02
526             	3.08260412e+02
527             	3.08260231e+02
528             	3.08260803e+02
529             	3.08260339e+02
530             	3.08260818e+02
531             	3.08260802e+02
532             	3.08261004e+02
533             	3.08260846e+02
534             	3.08261448e+02
535             	3.08261006e+02
536             	3.08261459e+02
537             	3.08261533e+02
538             	3.08261688e+02
539             	3.08261526e+02
540             	3.08262122e+02
541             	3.08261567e+02
542             	3.08261937e+02
543             	3.08261884e+02
544             	3.08261918e+02
545             	3.08261632e+02
546             	3.08262127e+02
547             	3.08261543e+02
548             	3.08261925e+02
549             	3.08261834e+02
550             	3.08261966e+02
551             	3.08261745e+02
552             	3.08262264e+02
553             	3.08261738e+02
554             	3.08262155e+02
555             	3.08262068e+02
556             	3.08262170e+02
557             	3.08261932e+02
558             	3.08262446e+02
559             	3.08261933e+02
560             	3.08262356e+02
561             	3.08262304e+02
562             	3.08262357e+02
563             	3.08262079e+02
564             	3.08262549e+02
565             	3.08261945e+02
566             	3.08262315e+02
567             	3.08262228e+02
568             	3.08262292e+02
569             	3.08262039e+02
570             	3.08262546e+02
571             	3.08261966e+02
572             	3.08262352e+02
573             	3.08262278e+02
574             	3.08262353e+02
575             	3.08262122e+02
576             	3.08262651e+02
577             	3.08262094e+02
578             	3.08262475e+02
579             	3.08262410e+02
580             	3.08262462e+02
581             	3.08262228e+02
582             	3.08262753e+02
583             	3.08262192e+02
584             	3.08262559e+02
585             	3.08262452e+02
586             	3.08262508e+02
587             	3.08262232e+02
588             	3.08262727e+02
589             	3.08262162e+02
590             	3.08262547e+02
591             	3.08262457e+02
592             	3.08262554e+02
593             	3.08262327e+02
594             	3.08262843e+02
595             	3.08262321e+02
596             	3.08262737e+02
597             	3.08262675e+02
598             	3.08262761e+02
599             	3.08262532e+02
600             	3.08263058e+02
601             	3.08262493e+02
602             	3.08262885e+02
603             	3.08262797e+02
604             	3.08262868e+02
605             	3.08262627e+02
606             	3.08263145e+02
607             	3.08262578e+02
608             	3.08262966e+02
609             	3.08262873e+02
610             	3.08262946e+02
611             	3.08262703e+02
612             	3.08263199e+02
613             	3.08262651e+02
614             	3.08263042e+02
615             	3.08262945e+02
616             	3.08263019e+02
617             	3.08262770e+02
618             	3.08263275e+02
619             	3.08262694e+02
620             	3.08263061e+02
621             	3.08262957e+02
