# Region        : cellZone component_4
# Cells         : 35
# Volume        : 5.45116781e-02
# Time          	volAverage(T)
1               	3.01976879e+02
2               	3.03899375e+02
3               	3.05551316e+02
4               	3.07041629e+02
5               	3.08448387e+02
6               	3.09775613e+02
7               	3.11031558e+02
8               	3.12239114e+02
9               	3.13401363e+02
10              	3.14538496e+02
11              	3.15579709e+02
12              	3.16583893e+02
13              	3.17549623e+02
14              	3.18498594e+02
15              	3.19460463e+02
16              	3.20380002e+02
17              	3.21246126e+02
18              	3.22073030e+02
19              	3.22873997e+02
20              	3.23674181e+02
21              	3.24486911e+02
22              	3.25318510e+02
23              	3.26163635e+02
24              	3.27006037e+02
25              	3.27799535e+02
26              	3.28538112e+02
27              	3.29196903e+02
28              	3.29782453e+02
29              	3.30312892e+02
30              	3.30729563e+02
31              	3.31070124e+02
32              	3.31285351e+02
33              	3.31442241e+02
34              	3.31550685e+02
35              	3.31611019e+02
36              	3.31677975e+02
37              	3.31766270e+02
38              	3.31946458e+02
39              	3.32090703e+02
40              	3.32239160e+02
41              	3.32456420e+02
42              	3.32673776e+02
43              	3.32852797e+02
44              	3.32991062e+02
45              	3.33124203e+02
46              	3.33233744e+02
47              	3.33383529e+02
48              	3.33501541e+02
49              	3.33629857e+02
50              	3.33738045e+02
51              	3.33897123e+02
52              	3.33962337e+02
53              	3.34074306e+02
54              	3.34108678e+02
55              	3.34139191e+02
56              	3.34174982e+02
57              	3.34189046e+02
58              	3.34183391e+02
59              	3.34162900e+02
60              	3.34148203e+02
61              	3.34177463e+02
62              	3.34204680e+02
63              	3.34282712e+02
64              	3.34361996e+02
65              	3.34426537e+02
66              	3.34445992e+02
67              	3.34571505e+02
68              	3.34662821e+02
69              	3.34722998e+02
70              	3.34743720e+02
71              	3.34734972e+02
72              	3.34722297e+02
73              	3.34712962e+02
74              	3.34734948e+02
75              	3.34758983e+02
76              	3.34796196e+02
77              	3.34798407e+02
78              	3.34765031e+02
79              	3.34699355e+02
80              	3.34644063e+02
81              	3.34623032e+02
82              	3.34651802e+02
83              	3.34720867e+02
84              	3.34797336e+02
85              	3.34875247e+02
86              	3.34975458e+02
87              	3.35092371e+02
88              	3.35229246e+02
89              	3.35380394e+02
90              	3.35542336e+02
91              	3.35708834e+02
92              	3.35861665e+02
93              	3.36027210e+02
94              	3.36186842e+02
95              	3.36343436e+02
96              	3.36499801e+02
97              	3.36669270e+02
98              	3.36815869e+02
99              	3.36954181e+02
100             	3.37027907e+02
101             	3.37120561e+02
102             	3.37196272e+02
103             	3.37257211e+02
104             	3.37309007e+02
105             	3.37357851e+02
106             	3.37415149e+02
107             	3.37463205e+02
108             	3.37522539e+02
109             	3.37572650e+02
110             	3.37606825e+02
111             	3.37620180e+02
112             	3.37644437e+02
113             	3.37681612e+02
114             	3.37756983e+02
115             	3.37827248e+02
116             	3.37868567e+02
117             	3.37917732e+02
118             	3.37956908e+02
119             	3.37998994e+02
120             	3.38042364e+02
121             	3.38094597e+02
122             	3.38136565e+02
123             	3.38188546e+02
124             	3.38237607e+02
125             	3.38250757e+02
126             	3.38242976e+02
127             	3.38232092e+02
128             	3.38225919e+02
129             	3.38229059e+02
130             	3.38265561e+02
131             	3.38293489e+02
132             	3.38306498e+02
133             	3.38308336e+02
134             	3.38312709e+02
135             	3.38332196e+02
136             	3.38365650e+02
137             	3.38408979e+02
138             	3.38454566e+02
139             	3.38478141e+02
140             	3.38502181e+02
141             	3.38531760e+02
142             	3.38592882e+02
143             	3.38670482e+02
144             	3.38762475e+02
145             	3.38855401e+02
146             	3.38944544e+02
147             	3.39031087e+02
148             	3.39117898e+02
149             	3.39208050e+02
150             	3.39300276e+02
151             	3.39389280e+02
152             	3.39472230e+02
153             	3.39550847e+02
154             	3.39626563e+02
155             	3.39701944e+02
156             	3.39786021e+02
157             	3.39858970e+02
158             	3.39957305e+02
159             	3.40064227e+02
160             	3.40183691e+02
161             	3.40308991e+02
162             	3.40446273e+02
163             	3.40594405e+02
164             	3.40742577e+02
165             	3.40909073e+02
166             	3.41009628e+02
167             	3.41118569e+02
168             	3.41232037e+02
169             	3.41336276e+02
170             	3.41426255e+02
171             	3.41494250e+02
172             	3.41543357e+02
173             	3.41589222e+02
174             	3.41637085e+02
175             	3.41688433e+02
176             	3.41743559e+02
177             	3.41803957e+02
178             	3.41874919e+02
179             	3.41954557e+02
180             	3.42043706e+02
181             	3.42132433e+02
182             	3.42225941e+02
183             	3.42324023e+02
184             	3.42419659e+02
185             	3.42511872e+02
186             	3.42601673e+02
187             	3.42686874e+02
188             	3.42757067e+02
189             	3.42814332e+02
190             	3.42868386e+02
191             	3.42916063e+02
192             	3.42962854e+02
193             	3.42990866e+02
194             	3.43009574e+02
195             	3.43032783e+02
196             	3.43061923e+02
197             	3.43082653e+02
198             	3.43102861e+02
199             	3.43119286e+02
200             	3.43131638e+02
201             	3.43147204e+02
202             	3.43184069e+02
203             	3.43225541e+02
204             	3.43263813e+02
205             	3.43303746e+02
206             	3.43346859e+02
207             	3.43395579e+02
208             	3.43455852e+02
209             	3.43516569e+02
210             	3.43586119e+02
211             	3.43638840e+02
212             	3.43681495e+02
213             	3.43724390e+02
214             	3.43761768e+02
215             	3.43779711e+02
216             	3.43791340e+02
217             	3.43808828e+02
218             	3.43822754e+02
219             	3.43828561e+02
220             	3.43845938e+02
221             	3.43864452e+02
222             	3.43894910e+02
223             	3.43927883e+02
224             	3.43961610e+02
225             	3.43995809e+02
226             	3.44038977e+02
227             	3.44086811e+02
228             	3.44143667e+02
229             	3.44190005e+02
230             	3.44230543e+02
231             	3.44262805e+02
232             	3.44284914e+02
233             	3.44294218e+02
234             	3.44304059e+02
235             	3.44304244e+02
236             	3.44299754e+02
237             	3.44294707e+02
238             	3.44291975e+02
239             	3.44292541e+02
240             	3.44295178e+02
241             	3.44302286e+02
242             	3.44315168e+02
243             	3.44333643e+02
244             	3.44349565e+02
245             	3.44376373e+02
246             	3.44404391e+02
247             	3.44437676e+02
248             	3.44471601e+02
249             	3.44503800e+02
250             	3.44533762e+02
251             	3.44560994e+02
252             	3.44592809e+02
253             	3.44619275e+02
254             	3.44640093e+02
255             	3.44654190e+02
256             	3.44671064e+02
257             	3.44673716e+02
258             	3.44669791e+02
259             	3.44665601e+02
260             	3.44662159e+02
261             	3.44659215e+02
262             	3.44659045e+02
263             	3.44659364e+02
264             	3.44660056e+02
265             	3.44664681e+02
266             	3.44672037e+02
267             	3.44685140e+02
268             	3.44706999e+02
269             	3.44729725e+02
270             	3.44751700e+02
271             	3.44772593e+02
272             	3.44793804e+02
273             	3.44815139e+02
274             	3.44835002e+02
275             	3.44858876e+02
276             	3.44874610e+02
277             	3.44883349e+02
278             	3.44886678e+02
279             	3.44883796e+02
280             	3.44881973e+02
281             	3.44880520e+02
282             	3.44879716e+02
283             	3.44878066e+02
284             	3.44876706e+02
285             	3.44878510e+02
286             	3.44883471e+02
287             	3.44885693e+02
288             	3.44890621e+02
289             	3.44896947e+02
290             	3.44904443e+02
291             	3.44911524e+02
292             	3.44920993e+02
293             	3.44933246e+02
294             	3.44946400e+02
295             	3.44957482e+02
296             	3.44967773e+02
297             	3.44977924e+02
298             	3.44988770e+02
299             	3.44996613e+02
300             	3.45003303e+02
301             	3.45009709e+02
302             	3.45015319e+02
303             	3.45020068e+02
304             	3.45024708e+02
305             	3.45027772e+02
306             	3.45032733e+02
307             	3.45035982e+02
308             	3.45034952e+02
309             	3.45033558e+02
310             	3.45033234e+02
311             	3.45032880e+02
312             	3.45033373e+02
313             	3.45031829e+02
314             	3.45028702e+02
315             	3.45028230e+02
316             	3.45028593e+02
317             	3.45028556e+02
318             	3.45029188e+02
319             	3.45031226e+02
320             	3.45036013e+02
321             	3.45041440e+02
322             	3.45047168e+02
323             	3.45055394e+02
324             	3.45062696e+02
325             	3.45064752e+02
326             	3.45065375e+02
327             	3.45067217e+02
328             	3.45067638e+02
329             	3.45066129e+02
330             	3.45063482e+02
331             	3.45060120e+02
332             	3.45056805e+02
333             	3.45053743e+02
334             	3.45053007e+02
335             	3.45054370e+02
336             	3.45056944e+02
337             	3.45059776e+02
338             	3.45062905e+02
339             	3.45066329e+02
340             	3.45070773e+02
341             	3.45074797e+02
342             	3.45081353e+02
343             	3.45084806e+02
344             	3.45087030e+02
345             	3.45088366e+02
346             	3.45086170e+02
347             	3.45083498e+02
348             	3.45080490e+02
349             	3.45077688e+02
350             	3.45073666e+02
351             	3.45066988e+02
352             	3.45061209e+02
353             	3.45060414e+02
354             	3.45062216e+02
355             	3.45064299e+02
356             	3.45067209e+02
357             	3.45070628e+02
358             	3.45075314e+02
359             	3.45082318e+02
360             	3.45087591e+02
361             	3.45094593e+02
362             	3.45099518e+02
363             	3.45102796e+02
364             	3.45106339e+02
365             	3.45104831e+02
366             	3.45101208e+02
367             	3.45097451e+02
368             	3.45093762e+02
369             	3.45088576e+02
370             	3.45084041e+02
371             	3.45080461e+02
372             	3.45076613e+02
373             	3.45074587e+02
374             	3.45075974e+02
375             	3.45078600e+02
376             	3.45081700e+02
377             	3.45085887e+02
378             	3.45091068e+02
379             	3.45097050e+02
380             	3.45104779e+02
381             	3.45111790e+02
382             	3.45114459e+02
383             	3.45116879e+02
384             	3.45117585e+02
385             	3.45117751e+02
386             	3.45115703e+02
387             	3.45112777e+02
388             	3.45109726e+02
389             	3.45106038e+02
390             	3.45103226e+02
391             	3.45098822e+02
392             	3.45098411e+02
393             	3.45099698e+02
394             	3.45101402e+02
395             	3.45103987e+02
396             	3.45107665e+02
397             	3.45111833e+02
398             	3.45117790e+02
399             	3.45123900e+02
400             	3.45129098e+02
401             	3.45132848e+02
402             	3.45135004e+02
403             	3.45138530e+02
404             	3.45140574e+02
405             	3.45138269e+02
406             	3.45134746e+02
407             	3.45131507e+02
408             	3.45128606e+02
409             	3.45125565e+02
410             	3.45122367e+02
411             	3.45118981e+02
412             	3.45115624e+02
413             	3.45112309e+02
414             	3.45112688e+02
415             	3.45114138e+02
416             	3.45115818e+02
417             	3.45118607e+02
418             	3.45121649e+02
419             	3.45124790e+02
420             	3.45128470e+02
421             	3.45134695e+02
422             	3.45140361e+02
423             	3.45141637e+02
424             	3.45141340e+02
425             	3.45141693e+02
426             	3.45142070e+02
427             	3.45139741e+02
428             	3.45136810e+02
429             	3.45132305e+02
430             	3.45131019e+02
431             	3.45129299e+02
432             	3.45129598e+02
433             	3.45130738e+02
434             	3.45132265e+02
435             	3.45134300e+02
436             	3.45137026e+02
437             	3.45139850e+02
438             	3.45142867e+02
439             	3.45147465e+02
440             	3.45151396e+02
441             	3.45153696e+02
442             	3.45152765e+02
443             	3.45150630e+02
444             	3.45148148e+02
445             	3.45145531e+02
446             	3.45141952e+02
447             	3.45138644e+02
448             	3.45133847e+02
449             	3.45128885e+02
450             	3.45125914e+02
451             	3.45123619e+02
452             	3.45120137e+02
453             	3.45120126e+02
454             	3.45121917e+02
455             	3.45123589e+02
456             	3.45125545e+02
457             	3.45130307e+02
458             	3.45132790e+02
459             	3.45136696e+02
460             	3.45138347e+02
461             	3.45138604e+02
462             	3.45137431e+02
463             	3.45135700e+02
464             	3.45133329e+02
465             	3.45130614e+02
466             	3.45127484e+02
467             	3.45123698e+02
468             	3.45120823e+02
469             	3.45118246e+02
470             	3.45117643e+02
471             	3.45117867e+02
472             	3.45118872e+02
473             	3.45120743e+02
474             	3.45123577e+02
475             	3.45126638e+02
476             	3.45130121e+02
477             	3.45133858e+02
478             	3.45137066e+02
479             	3.45139720e+02
480             	3.45141535e+02
481             	3.45142648e+02
482             	3.45143117e+02
483             	3.45142783e+02
484             	3.45142019e+02
485             	3.45140482e+02
486             	3.45138489e+02
487             	3.45137057e+02
488             	3.45134537e+02
489             	3.45131802e+02
490             	3.45129469e+02
491             	3.45128082e+02
492             	3.45126512e+02
493             	3.45125314e+02
494             	3.45124097e+02
495             	3.45122688e+02
496             	3.45121704e+02
497             	3.45121061e+02
498             	3.45120546e+02
499             	3.45119672e+02
500             	3.45121304e+02
501             	3.45123309e+02
502             	3.45125028e+02
503             	3.45126620e+02
504             	3.45128389e+02
505             	3.45130558e+02
506             	3.45132908e+02
507             	3.45135295e+02
508             	3.45137500e+02
509             	3.45139579e+02
510             	3.45141127e+02
511             	3.45141852e+02
512             	3.45141458e+02
513             	3.45140765e+02
514             	3.45140418e+02
515             	3.45140168e+02
516             	3.45138555e+02
517             	3.45136927e+02
518             	3.45135526e+02
519             	3.45134347e+02
520             	3.45133739e+02
521             	3.45132711e+02
522             	3.45133381e+02
523             	3.45134416e+02
524             	3.45135253e+02
525             	3.45136166e+02
526             	3.45137504e+02
527             	3.45139577e+02
528             	3.45142339e+02
529             	3.45145455e+02
530             	3.45148349e+02
531             	3.45150048e+02
532             	3.45151995e+02
533             	3.45153789e+02
534             	3.45154814e+02
535             	3.45155202e+02
536             	3.45155019e+02
537             	3.45154189e+02
538             	3.45154621e+02
539             	3.45154264e+02
540             	3.45153227e+02
541             	3.45151787e+02
542             	3.45150939e+02
543             	3.45150583e+02
544             	3.45149731e+02
545             	3.45149489e+02
546             	3.45147617e+02
547             	3.45146198e+02
548             	3.45145668e+02
549             	3.45145151e+02
550             	3.45143963e+02
551             	3.45144692e+02
552             	3.45145840e+02
553             	3.45147316e+02
554             	3.45148046e+02
555             	3.45149289e+02
556             	3.45149886e+02
557             	3.45150264e+02
558             	3.45150520e+02
559             	3.45151675e+02
560             	3.45150905e+02
561             	3.45149605e+02
562             	3.45147956e+02
563             	3.45146373e+02
564             	3.45144904e+02
565             	3.45143436e+02
566             	3.45142022e+02
567             	3.45140817e+02
568             	3.45139608e+02
569             	3.45139106e+02
570             	3.45140439e+02
571             	3.45142387e+02
572             	3.45143773e+02
573             	3.45145439e+02
574             	3.45147674e+02
575             	3.45150093e+02
576             	3.45152075e+02
577             	3.45153998e+02
578             	3.45155696e+02
579             	3.45156686e+02
580             	3.45156321e+02
581             	3.45156335e+02
582             	3.45155438e+02
583             	3.45154255e+02
584             	3.45153056e+02
585             	3.45151928e+02
586             	3.45150497e+02
587             	3.45148619e+02
588             	3.45148183e+02
589             	3.45148241e+02
590             	3.45148291e+02
591             	3.45148512e+02
592             	3.45149017e+02
593             	3.45149828e+02
594             	3.45151341e+02
595             	3.45152495e+02
596             	3.45153780e+02
597             	3.45154578e+02
598             	3.45155369e+02
599             	3.45156149e+02
600             	3.45155625e+02
601             	3.45155138e+02
602             	3.45153808e+02
603             	3.45152560e+02
604             	3.45150347e+02
605             	3.45147649e+02
606             	3.45145449e+02
607             	3.45143120e+02
608             	3.45141309e+02
609             	3.45139672e+02
610             	3.45138257e+02
611             	3.45137354e+02
612             	3.45136945e+02
613             	3.45137188e+02
614             	3.45137789e+02
615             	3.45138871e+02
616             	3.45139067e+02
617             	3.45140462e+02
618             	3.45142278e+02
619             	3.45143623e+02
620             	3.45144689e+02
621             	3.45146491e+02
