# Region        : cellZone pcb
# Cells         : 702
# Volume        : 1.33434561e+00
# Time          	volAverage(T)
1               	3.00003777e+02
2               	3.00011014e+02
3               	3.00021228e+02
4               	3.00034223e+02
5               	3.00049119e+02
6               	3.00066478e+02
7               	3.00085690e+02
8               	3.00106978e+02
9               	3.00130407e+02
10              	3.00156091e+02
11              	3.00183805e+02
12              	3.00213059e+02
13              	3.00244398e+02
14              	3.00277527e+02
15              	3.00312721e+02
16              	3.00348528e+02
17              	3.00385129e+02
18              	3.00423877e+02
19              	3.00463849e+02
20              	3.00504619e+02
21              	3.00546708e+02
22              	3.00589954e+02
23              	3.00634023e+02
24              	3.00679246e+02
25              	3.00725322e+02
26              	3.00772280e+02
27              	3.00819806e+02
28              	3.00867771e+02
29              	3.00916996e+02
30              	3.00967428e+02
31              	3.01018538e+02
32              	3.01070712e+02
33              	3.01124983e+02
34              	3.01179793e+02
35              	3.01235129e+02
36              	3.01291012e+02
37              	3.01347345e+02
38              	3.01403506e+02
39              	3.01459476e+02
40              	3.01516855e+02
41              	3.01574813e+02
42              	3.01633132e+02
43              	3.01691949e+02
44              	3.01750818e+02
45              	3.01810088e+02
46              	3.01871763e+02
47              	3.01933880e+02
48              	3.01995030e+02
49              	3.02058395e+02
50              	3.02121755e+02
51              	3.02184203e+02
52              	3.02245504e+02
53              	3.02306943e+02
54              	3.02368710e+02
55              	3.02429575e+02
56              	3.02490396e+02
57              	3.02551398e+02
58              	3.02612388e+02
59              	3.02675651e+02
60              	3.02737141e+02
61              	3.02797472e+02
62              	3.02856923e+02
63              	3.02917052e+02
64              	3.02978305e+02
65              	3.03040257e+02
66              	3.03101854e+02
67              	3.03163228e+02
68              	3.03225260e+02
69              	3.03287000e+02
70              	3.03347497e+02
71              	3.03407071e+02
72              	3.03465972e+02
73              	3.03525159e+02
74              	3.03583253e+02
75              	3.03641156e+02
76              	3.03699091e+02
77              	3.03756969e+02
78              	3.03814392e+02
79              	3.03873228e+02
80              	3.03932375e+02
81              	3.03992003e+02
82              	3.04048480e+02
83              	3.04107102e+02
84              	3.04165926e+02
85              	3.04223877e+02
86              	3.04281974e+02
87              	3.04339102e+02
88              	3.04396229e+02
89              	3.04453559e+02
90              	3.04509674e+02
91              	3.04565081e+02
92              	3.04621130e+02
93              	3.04678836e+02
94              	3.04734969e+02
95              	3.04790590e+02
96              	3.04845904e+02
97              	3.04899885e+02
98              	3.04954750e+02
99              	3.05009295e+02
100             	3.05063126e+02
101             	3.05117693e+02
102             	3.05171415e+02
103             	3.05225074e+02
104             	3.05279288e+02
105             	3.05332893e+02
106             	3.05387920e+02
107             	3.05441236e+02
108             	3.05493917e+02
109             	3.05546366e+02
110             	3.05598653e+02
111             	3.05649970e+02
112             	3.05699606e+02
113             	3.05749703e+02
114             	3.05800377e+02
115             	3.05850367e+02
116             	3.05900492e+02
117             	3.05949519e+02
118             	3.05999103e+02
119             	3.06048214e+02
120             	3.06097393e+02
121             	3.06146483e+02
122             	3.06194393e+02
123             	3.06240632e+02
124             	3.06287514e+02
125             	3.06334813e+02
126             	3.06382235e+02
127             	3.06429156e+02
128             	3.06476319e+02
129             	3.06522373e+02
130             	3.06568530e+02
131             	3.06614773e+02
132             	3.06660081e+02
133             	3.06704519e+02
134             	3.06748420e+02
135             	3.06792743e+02
136             	3.06835853e+02
137             	3.06878649e+02
138             	3.06921403e+02
139             	3.06963053e+02
140             	3.07004545e+02
141             	3.07046499e+02
142             	3.07087028e+02
143             	3.07129363e+02
144             	3.07171304e+02
145             	3.07212166e+02
146             	3.07252875e+02
147             	3.07293892e+02
148             	3.07334633e+02
149             	3.07374015e+02
150             	3.07412303e+02
151             	3.07450250e+02
152             	3.07488663e+02
153             	3.07527727e+02
154             	3.07566773e+02
155             	3.07604424e+02
156             	3.07642671e+02
157             	3.07680862e+02
158             	3.07718360e+02
159             	3.07756750e+02
160             	3.07794391e+02
161             	3.07830985e+02
162             	3.07866689e+02
163             	3.07901831e+02
164             	3.07936488e+02
165             	3.07971571e+02
166             	3.08006386e+02
167             	3.08041644e+02
168             	3.08075431e+02
169             	3.08109986e+02
170             	3.08143685e+02
171             	3.08177755e+02
172             	3.08211577e+02
173             	3.08245032e+02
174             	3.08277879e+02
175             	3.08310516e+02
176             	3.08342782e+02
177             	3.08375052e+02
178             	3.08407195e+02
179             	3.08438795e+02
180             	3.08470670e+02
181             	3.08501738e+02
182             	3.08532070e+02
183             	3.08563014e+02
184             	3.08593857e+02
185             	3.08624542e+02
186             	3.08655452e+02
187             	3.08686006e+02
188             	3.08716167e+02
189             	3.08746000e+02
190             	3.08775218e+02
191             	3.08803837e+02
192             	3.08832745e+02
193             	3.08861581e+02
194             	3.08890092e+02
195             	3.08918407e+02
196             	3.08945995e+02
197             	3.08973485e+02
198             	3.09001111e+02
199             	3.09028520e+02
200             	3.09055677e+02
201             	3.09082658e+02
202             	3.09109453e+02
203             	3.09136120e+02
204             	3.09162594e+02
205             	3.09188541e+02
206             	3.09214166e+02
207             	3.09239675e+02
208             	3.09265043e+02
209             	3.09290290e+02
210             	3.09315367e+02
211             	3.09340577e+02
212             	3.09365570e+02
213             	3.09390208e+02
214             	3.09414778e+02
215             	3.09439425e+02
216             	3.09463765e+02
217             	3.09488127e+02
218             	3.09512000e+02
219             	3.09535659e+02
220             	3.09559418e+02
221             	3.09583077e+02
222             	3.09606380e+02
223             	3.09629704e+02
224             	3.09652842e+02
225             	3.09675595e+02
226             	3.09698220e+02
227             	3.09720782e+02
228             	3.09743215e+02
229             	3.09765383e+02
230             	3.09787472e+02
231             	3.09809297e+02
232             	3.09830983e+02
233             	3.09852227e+02
234             	3.09873473e+02
235             	3.09894567e+02
236             	3.09915442e+02
237             	3.09936145e+02
238             	3.09956641e+02
239             	3.09976922e+02
240             	3.09997076e+02
241             	3.10017127e+02
242             	3.10037109e+02
243             	3.10056964e+02
244             	3.10076678e+02
245             	3.10096216e+02
246             	3.10115688e+02
247             	3.10134988e+02
248             	3.10154101e+02
249             	3.10173050e+02
250             	3.10191986e+02
251             	3.10210796e+02
252             	3.10229486e+02
253             	3.10248062e+02
254             	3.10266501e+02
255             	3.10284803e+02
256             	3.10303042e+02
257             	3.10321091e+02
258             	3.10339095e+02
259             	3.10356919e+02
260             	3.10374453e+02
261             	3.10391774e+02
262             	3.10408989e+02
263             	3.10426204e+02
264             	3.10443316e+02
265             	3.10460187e+02
266             	3.10476974e+02
267             	3.10493691e+02
268             	3.10510339e+02
269             	3.10526729e+02
270             	3.10543008e+02
271             	3.10559181e+02
272             	3.10575270e+02
273             	3.10591202e+02
274             	3.10607023e+02
275             	3.10622680e+02
276             	3.10638358e+02
277             	3.10653712e+02
278             	3.10668816e+02
279             	3.10683865e+02
280             	3.10698737e+02
281             	3.10713570e+02
282             	3.10728354e+02
283             	3.10742802e+02
284             	3.10757010e+02
285             	3.10771265e+02
286             	3.10785538e+02
287             	3.10799842e+02
288             	3.10814061e+02
289             	3.10828118e+02
290             	3.10842099e+02
291             	3.10856046e+02
292             	3.10869986e+02
293             	3.10883808e+02
294             	3.10897486e+02
295             	3.10911033e+02
296             	3.10924482e+02
297             	3.10937825e+02
298             	3.10951201e+02
299             	3.10964312e+02
300             	3.10977185e+02
301             	3.10989963e+02
302             	3.11002529e+02
303             	3.11015073e+02
304             	3.11027620e+02
305             	3.11040041e+02
306             	3.11052318e+02
307             	3.11064489e+02
308             	3.11076632e+02
309             	3.11088495e+02
310             	3.11100345e+02
311             	3.11112161e+02
312             	3.11123904e+02
313             	3.11135575e+02
314             	3.11147223e+02
315             	3.11158830e+02
316             	3.11170309e+02
317             	3.11181766e+02
318             	3.11193136e+02
319             	3.11204451e+02
320             	3.11215620e+02
321             	3.11226667e+02
322             	3.11237726e+02
323             	3.11248596e+02
324             	3.11259365e+02
325             	3.11270065e+02
326             	3.11280645e+02
327             	3.11291126e+02
328             	3.11301634e+02
329             	3.11312016e+02
330             	3.11322266e+02
331             	3.11332373e+02
332             	3.11342524e+02
333             	3.11352665e+02
334             	3.11362673e+02
335             	3.11372686e+02
336             	3.11382675e+02
337             	3.11392524e+02
338             	3.11402342e+02
339             	3.11412151e+02
340             	3.11421833e+02
341             	3.11431398e+02
342             	3.11440895e+02
343             	3.11450285e+02
344             	3.11459553e+02
345             	3.11468707e+02
346             	3.11477800e+02
347             	3.11486842e+02
348             	3.11495863e+02
349             	3.11504831e+02
350             	3.11513684e+02
351             	3.11522425e+02
352             	3.11531088e+02
353             	3.11539678e+02
354             	3.11548207e+02
355             	3.11556662e+02
356             	3.11564988e+02
357             	3.11573177e+02
358             	3.11581210e+02
359             	3.11589253e+02
360             	3.11597272e+02
361             	3.11605283e+02
362             	3.11613294e+02
363             	3.11621275e+02
364             	3.11629217e+02
365             	3.11637127e+02
366             	3.11645014e+02
367             	3.11652902e+02
368             	3.11660724e+02
369             	3.11668485e+02
370             	3.11676189e+02
371             	3.11683812e+02
372             	3.11691349e+02
373             	3.11698815e+02
374             	3.11706192e+02
375             	3.11713468e+02
376             	3.11720684e+02
377             	3.11727841e+02
378             	3.11734926e+02
379             	3.11742001e+02
380             	3.11749060e+02
381             	3.11756051e+02
382             	3.11762981e+02
383             	3.11769829e+02
384             	3.11776618e+02
385             	3.11783381e+02
386             	3.11790072e+02
387             	3.11796685e+02
388             	3.11803210e+02
389             	3.11809701e+02
390             	3.11816154e+02
391             	3.11822589e+02
392             	3.11828978e+02
393             	3.11835304e+02
394             	3.11841606e+02
395             	3.11847867e+02
396             	3.11854080e+02
397             	3.11860271e+02
398             	3.11866424e+02
399             	3.11872524e+02
400             	3.11878583e+02
401             	3.11884592e+02
402             	3.11890570e+02
403             	3.11896525e+02
404             	3.11902439e+02
405             	3.11908287e+02
406             	3.11914078e+02
407             	3.11919802e+02
408             	3.11925507e+02
409             	3.11931188e+02
410             	3.11936801e+02
411             	3.11942353e+02
412             	3.11947848e+02
413             	3.11953316e+02
414             	3.11958703e+02
415             	3.11964059e+02
416             	3.11969412e+02
417             	3.11974728e+02
418             	3.11980003e+02
419             	3.11985234e+02
420             	3.11990422e+02
421             	3.11995580e+02
422             	3.12000668e+02
423             	3.12005709e+02
424             	3.12010742e+02
425             	3.12015721e+02
426             	3.12020650e+02
427             	3.12025561e+02
428             	3.12030444e+02
429             	3.12035287e+02
430             	3.12040085e+02
431             	3.12044868e+02
432             	3.12049628e+02
433             	3.12054356e+02
434             	3.12059020e+02
435             	3.12063642e+02
436             	3.12068220e+02
437             	3.12072782e+02
438             	3.12077274e+02
439             	3.12081768e+02
440             	3.12086249e+02
441             	3.12090696e+02
442             	3.12095106e+02
443             	3.12099477e+02
444             	3.12103832e+02
445             	3.12108208e+02
446             	3.12112535e+02
447             	3.12116838e+02
448             	3.12121101e+02
449             	3.12125350e+02
450             	3.12129533e+02
451             	3.12133648e+02
452             	3.12137680e+02
453             	3.12141696e+02
454             	3.12145666e+02
455             	3.12149625e+02
456             	3.12153521e+02
457             	3.12157390e+02
458             	3.12161224e+02
459             	3.12165037e+02
460             	3.12168834e+02
461             	3.12172614e+02
462             	3.12176369e+02
463             	3.12180117e+02
464             	3.12183860e+02
465             	3.12187574e+02
466             	3.12191248e+02
467             	3.12194892e+02
468             	3.12198518e+02
469             	3.12202124e+02
470             	3.12205708e+02
471             	3.12209269e+02
472             	3.12212801e+02
473             	3.12216303e+02
474             	3.12219796e+02
475             	3.12223244e+02
476             	3.12226658e+02
477             	3.12230041e+02
478             	3.12233392e+02
479             	3.12236707e+02
480             	3.12239985e+02
481             	3.12243220e+02
482             	3.12246427e+02
483             	3.12249611e+02
484             	3.12252771e+02
485             	3.12255901e+02
486             	3.12259004e+02
487             	3.12262084e+02
488             	3.12265150e+02
489             	3.12268207e+02
490             	3.12271251e+02
491             	3.12274272e+02
492             	3.12277277e+02
493             	3.12280257e+02
494             	3.12283220e+02
495             	3.12286157e+02
496             	3.12289078e+02
497             	3.12291977e+02
498             	3.12294851e+02
499             	3.12297699e+02
500             	3.12300524e+02
501             	3.12303309e+02
502             	3.12306078e+02
503             	3.12308836e+02
504             	3.12311571e+02
505             	3.12314283e+02
506             	3.12316984e+02
507             	3.12319663e+02
508             	3.12322322e+02
509             	3.12324956e+02
510             	3.12327566e+02
511             	3.12330145e+02
512             	3.12332706e+02
513             	3.12335245e+02
514             	3.12337761e+02
515             	3.12340253e+02
516             	3.12342721e+02
517             	3.12345174e+02
518             	3.12347610e+02
519             	3.12350026e+02
520             	3.12352413e+02
521             	3.12354788e+02
522             	3.12357145e+02
523             	3.12359483e+02
524             	3.12361803e+02
525             	3.12364110e+02
526             	3.12366398e+02
527             	3.12368672e+02
528             	3.12370930e+02
529             	3.12373177e+02
530             	3.12375399e+02
531             	3.12377604e+02
532             	3.12379793e+02
533             	3.12381958e+02
534             	3.12384108e+02
535             	3.12386251e+02
536             	3.12388368e+02
537             	3.12390468e+02
538             	3.12392540e+02
539             	3.12394597e+02
540             	3.12396637e+02
541             	3.12398654e+02
542             	3.12400658e+02
543             	3.12402645e+02
544             	3.12404625e+02
545             	3.12406595e+02
546             	3.12408553e+02
547             	3.12410498e+02
548             	3.12412434e+02
549             	3.12414361e+02
550             	3.12416280e+02
551             	3.12418192e+02
552             	3.12420088e+02
553             	3.12421963e+02
554             	3.12423814e+02
555             	3.12425645e+02
556             	3.12427467e+02
557             	3.12429262e+02
558             	3.12431038e+02
559             	3.12432799e+02
560             	3.12434544e+02
561             	3.12436284e+02
562             	3.12438010e+02
563             	3.12439720e+02
564             	3.12441415e+02
565             	3.12443095e+02
566             	3.12444757e+02
567             	3.12446399e+02
568             	3.12448024e+02
569             	3.12449636e+02
570             	3.12451240e+02
571             	3.12452823e+02
572             	3.12454404e+02
573             	3.12455980e+02
574             	3.12457546e+02
575             	3.12459103e+02
576             	3.12460655e+02
577             	3.12462191e+02
578             	3.12463714e+02
579             	3.12465227e+02
580             	3.12466732e+02
581             	3.12468228e+02
582             	3.12469713e+02
583             	3.12471184e+02
584             	3.12472638e+02
585             	3.12474079e+02
586             	3.12475510e+02
587             	3.12476927e+02
588             	3.12478333e+02
589             	3.12479727e+02
590             	3.12481109e+02
591             	3.12482478e+02
592             	3.12483835e+02
593             	3.12485189e+02
594             	3.12486530e+02
595             	3.12487855e+02
596             	3.12489165e+02
597             	3.12490460e+02
598             	3.12491736e+02
599             	3.12493000e+02
600             	3.12494257e+02
601             	3.12495504e+02
602             	3.12496738e+02
603             	3.12497961e+02
604             	3.12499178e+02
605             	3.12500387e+02
606             	3.12501588e+02
607             	3.12502783e+02
608             	3.12503969e+02
609             	3.12505147e+02
610             	3.12506314e+02
611             	3.12507469e+02
612             	3.12508620e+02
613             	3.12509765e+02
614             	3.12510901e+02
615             	3.12512033e+02
616             	3.12513159e+02
617             	3.12514279e+02
618             	3.12515394e+02
619             	3.12516503e+02
620             	3.12517603e+02
621             	3.12518692e+02
