# Region        : cellZone component_1
# Cells         : 94
# Volume        : 1.32283713e-01
# Time          	volAverage(T)
1               	3.01616946e+02
2               	3.03176554e+02
3               	3.04243904e+02
4               	3.04998827e+02
5               	3.05820799e+02
6               	3.06791358e+02
7               	3.07738107e+02
8               	3.08517329e+02
9               	3.09119917e+02
10              	3.09687156e+02
11              	3.10277392e+02
12              	3.10863219e+02
13              	3.11382084e+02
14              	3.11907184e+02
15              	3.12523726e+02
16              	3.13175323e+02
17              	3.13738508e+02
18              	3.14132635e+02
19              	3.14410366e+02
20              	3.14701129e+02
21              	3.15018815e+02
22              	3.15276087e+02
23              	3.15487776e+02
24              	3.15725988e+02
25              	3.16072655e+02
26              	3.16403292e+02
27              	3.16631334e+02
28              	3.16805318e+02
29              	3.17058939e+02
30              	3.17459464e+02
31              	3.17920756e+02
32              	3.18286900e+02
33              	3.18531627e+02
34              	3.18756380e+02
35              	3.18972037e+02
36              	3.19241873e+02
37              	3.19405549e+02
38              	3.19484483e+02
39              	3.19511700e+02
40              	3.19601712e+02
41              	3.19704249e+02
42              	3.19808961e+02
43              	3.19921273e+02
44              	3.20115933e+02
45              	3.20358555e+02
46              	3.20541155e+02
47              	3.20679196e+02
48              	3.20788409e+02
49              	3.21012732e+02
50              	3.21110350e+02
51              	3.21059675e+02
52              	3.20949745e+02
53              	3.20970620e+02
54              	3.21143605e+02
55              	3.21378257e+02
56              	3.21649060e+02
57              	3.21914896e+02
58              	3.22112094e+02
59              	3.22198257e+02
60              	3.22307559e+02
61              	3.22427902e+02
62              	3.22605846e+02
63              	3.22759595e+02
64              	3.22838789e+02
65              	3.22820559e+02
66              	3.22903148e+02
67              	3.23079481e+02
68              	3.23266707e+02
69              	3.23464997e+02
70              	3.23642387e+02
71              	3.23777238e+02
72              	3.23918964e+02
73              	3.24064937e+02
74              	3.24153391e+02
75              	3.24174364e+02
76              	3.24108259e+02
77              	3.23996305e+02
78              	3.24049861e+02
79              	3.24207822e+02
80              	3.24453268e+02
81              	3.24620591e+02
82              	3.24692684e+02
83              	3.24702327e+02
84              	3.24768048e+02
85              	3.24918034e+02
86              	3.25057834e+02
87              	3.25071000e+02
88              	3.24916969e+02
89              	3.24697854e+02
90              	3.24452637e+02
91              	3.24374035e+02
92              	3.24448347e+02
93              	3.24495636e+02
94              	3.24502132e+02
95              	3.24463631e+02
96              	3.24563279e+02
97              	3.24707373e+02
98              	3.24795403e+02
99              	3.24879948e+02
100             	3.24970966e+02
101             	3.25209228e+02
102             	3.25354910e+02
103             	3.25507157e+02
104             	3.25689693e+02
105             	3.25836101e+02
106             	3.26092091e+02
107             	3.26220199e+02
108             	3.26175756e+02
109             	3.26088661e+02
110             	3.26042617e+02
111             	3.26072974e+02
112             	3.26145259e+02
113             	3.26243784e+02
114             	3.26337598e+02
115             	3.26456634e+02
116             	3.26646447e+02
117             	3.26851862e+02
118             	3.27072063e+02
119             	3.27209804e+02
120             	3.27387076e+02
121             	3.27541828e+02
122             	3.27588294e+02
123             	3.27523368e+02
124             	3.27347652e+02
125             	3.27176529e+02
126             	3.27213661e+02
127             	3.27515934e+02
128             	3.27725125e+02
129             	3.27792985e+02
130             	3.27899156e+02
131             	3.27979470e+02
132             	3.28045916e+02
133             	3.28123286e+02
134             	3.28190222e+02
135             	3.28203802e+02
136             	3.28243496e+02
137             	3.28292889e+02
138             	3.28337329e+02
139             	3.28335224e+02
140             	3.28314234e+02
141             	3.28281983e+02
142             	3.28255417e+02
143             	3.28235042e+02
144             	3.28216269e+02
145             	3.28197772e+02
146             	3.28189597e+02
147             	3.28188022e+02
148             	3.28206584e+02
149             	3.28249556e+02
150             	3.28315571e+02
151             	3.28397059e+02
152             	3.28490928e+02
153             	3.28586027e+02
154             	3.28690753e+02
155             	3.28787504e+02
156             	3.28849639e+02
157             	3.28920664e+02
158             	3.28996210e+02
159             	3.29049827e+02
160             	3.29066401e+02
161             	3.29077607e+02
162             	3.29122664e+02
163             	3.29184288e+02
164             	3.29230098e+02
165             	3.29247105e+02
166             	3.29238317e+02
167             	3.29209369e+02
168             	3.29174788e+02
169             	3.29129427e+02
170             	3.29075905e+02
171             	3.29023924e+02
172             	3.28983598e+02
173             	3.28958003e+02
174             	3.28995621e+02
175             	3.29044372e+02
176             	3.29123019e+02
177             	3.29207586e+02
178             	3.29278164e+02
179             	3.29332768e+02
180             	3.29401116e+02
181             	3.29446476e+02
182             	3.29478557e+02
183             	3.29494951e+02
184             	3.29486460e+02
185             	3.29467311e+02
186             	3.29449443e+02
187             	3.29439722e+02
188             	3.29436660e+02
189             	3.29430808e+02
190             	3.29409105e+02
191             	3.29374537e+02
192             	3.29328987e+02
193             	3.29303704e+02
194             	3.29300090e+02
195             	3.29319693e+02
196             	3.29383256e+02
197             	3.29443215e+02
198             	3.29531110e+02
199             	3.29621680e+02
200             	3.29666385e+02
201             	3.29715574e+02
202             	3.29756783e+02
203             	3.29774160e+02
204             	3.29767015e+02
205             	3.29740785e+02
206             	3.29695574e+02
207             	3.29632100e+02
208             	3.29582254e+02
209             	3.29581160e+02
210             	3.29605465e+02
211             	3.29645739e+02
212             	3.29689895e+02
213             	3.29744756e+02
214             	3.29785638e+02
215             	3.29829856e+02
216             	3.29878964e+02
217             	3.29892947e+02
218             	3.29871240e+02
219             	3.29836485e+02
220             	3.29804417e+02
221             	3.29770586e+02
222             	3.29745643e+02
223             	3.29728087e+02
224             	3.29730806e+02
225             	3.29732042e+02
226             	3.29727051e+02
227             	3.29728442e+02
228             	3.29738254e+02
229             	3.29761659e+02
230             	3.29791703e+02
231             	3.29805027e+02
232             	3.29810881e+02
233             	3.29802113e+02
234             	3.29786771e+02
235             	3.29772389e+02
236             	3.29757523e+02
237             	3.29738005e+02
238             	3.29720579e+02
239             	3.29723344e+02
240             	3.29747369e+02
241             	3.29779729e+02
242             	3.29804129e+02
243             	3.29816241e+02
244             	3.29825325e+02
245             	3.29828864e+02
246             	3.29834261e+02
247             	3.29838936e+02
248             	3.29841643e+02
249             	3.29839838e+02
250             	3.29831076e+02
251             	3.29813222e+02
252             	3.29799298e+02
253             	3.29804233e+02
254             	3.29818223e+02
255             	3.29832532e+02
256             	3.29841282e+02
257             	3.29844090e+02
258             	3.29849919e+02
259             	3.29853880e+02
260             	3.29830447e+02
261             	3.29769517e+02
262             	3.29710290e+02
263             	3.29680229e+02
264             	3.29670471e+02
265             	3.29668186e+02
266             	3.29672772e+02
267             	3.29698242e+02
268             	3.29735178e+02
269             	3.29776268e+02
270             	3.29818848e+02
271             	3.29859084e+02
272             	3.29900325e+02
273             	3.29932902e+02
274             	3.29934472e+02
275             	3.29906845e+02
276             	3.29867641e+02
277             	3.29832228e+02
278             	3.29807848e+02
279             	3.29789430e+02
280             	3.29802269e+02
281             	3.29818641e+02
282             	3.29862185e+02
283             	3.29897548e+02
284             	3.29905289e+02
285             	3.29929484e+02
286             	3.29950988e+02
287             	3.29957106e+02
288             	3.29950562e+02
289             	3.29938216e+02
290             	3.29926122e+02
291             	3.29914194e+02
292             	3.29903750e+02
293             	3.29894980e+02
294             	3.29891172e+02
295             	3.29898857e+02
296             	3.29914448e+02
297             	3.29930734e+02
298             	3.29945296e+02
299             	3.29957312e+02
300             	3.29966326e+02
301             	3.29967378e+02
302             	3.29958963e+02
303             	3.29938988e+02
304             	3.29913912e+02
305             	3.29892352e+02
306             	3.29878444e+02
307             	3.29867882e+02
308             	3.29859260e+02
309             	3.29850264e+02
310             	3.29837734e+02
311             	3.29825968e+02
312             	3.29816169e+02
313             	3.29807729e+02
314             	3.29809140e+02
315             	3.29814722e+02
316             	3.29818933e+02
317             	3.29821677e+02
318             	3.29827324e+02
319             	3.29839910e+02
320             	3.29858504e+02
321             	3.29876272e+02
322             	3.29894558e+02
323             	3.29914365e+02
324             	3.29928973e+02
325             	3.29930184e+02
326             	3.29917380e+02
327             	3.29895954e+02
328             	3.29877604e+02
329             	3.29871469e+02
330             	3.29876196e+02
331             	3.29882147e+02
332             	3.29892509e+02
333             	3.29907226e+02
334             	3.29925322e+02
335             	3.29943653e+02
336             	3.29959692e+02
337             	3.29972736e+02
338             	3.29982210e+02
339             	3.29987431e+02
340             	3.29987522e+02
341             	3.29981366e+02
342             	3.29971577e+02
343             	3.29959040e+02
344             	3.29945112e+02
345             	3.29930908e+02
346             	3.29916409e+02
347             	3.29902626e+02
348             	3.29892243e+02
349             	3.29887418e+02
350             	3.29889722e+02
351             	3.29901667e+02
352             	3.29914805e+02
353             	3.29925615e+02
354             	3.29927937e+02
355             	3.29927988e+02
356             	3.29930249e+02
357             	3.29932343e+02
358             	3.29930259e+02
359             	3.29923579e+02
360             	3.29916219e+02
361             	3.29910211e+02
362             	3.29904222e+02
363             	3.29898262e+02
364             	3.29894381e+02
365             	3.29892322e+02
366             	3.29890908e+02
367             	3.29889529e+02
368             	3.29888777e+02
369             	3.29887711e+02
370             	3.29883066e+02
371             	3.29875732e+02
372             	3.29869318e+02
373             	3.29864618e+02
374             	3.29861690e+02
375             	3.29859961e+02
376             	3.29860259e+02
377             	3.29863224e+02
378             	3.29867814e+02
379             	3.29873466e+02
380             	3.29879890e+02
381             	3.29887193e+02
382             	3.29894175e+02
383             	3.29900530e+02
384             	3.29907685e+02
385             	3.29915029e+02
386             	3.29921308e+02
387             	3.29926699e+02
388             	3.29928826e+02
389             	3.29924714e+02
390             	3.29917323e+02
391             	3.29910209e+02
392             	3.29905421e+02
393             	3.29903133e+02
394             	3.29901512e+02
395             	3.29900253e+02
396             	3.29900082e+02
397             	3.29902746e+02
398             	3.29909318e+02
399             	3.29917956e+02
400             	3.29925917e+02
401             	3.29931507e+02
402             	3.29934219e+02
403             	3.29935665e+02
404             	3.29936107e+02
405             	3.29934585e+02
406             	3.29930992e+02
407             	3.29926424e+02
408             	3.29921577e+02
409             	3.29916722e+02
410             	3.29912472e+02
411             	3.29909469e+02
412             	3.29907626e+02
413             	3.29906969e+02
414             	3.29907874e+02
415             	3.29910367e+02
416             	3.29913453e+02
417             	3.29916645e+02
418             	3.29919847e+02
419             	3.29922854e+02
420             	3.29925007e+02
421             	3.29926147e+02
422             	3.29926608e+02
423             	3.29926550e+02
424             	3.29926029e+02
425             	3.29925191e+02
426             	3.29923812e+02
427             	3.29921605e+02
428             	3.29918979e+02
429             	3.29916533e+02
430             	3.29914740e+02
431             	3.29913656e+02
432             	3.29912797e+02
433             	3.29912289e+02
434             	3.29912015e+02
435             	3.29911752e+02
436             	3.29911551e+02
437             	3.29911503e+02
438             	3.29911726e+02
439             	3.29912342e+02
440             	3.29913145e+02
441             	3.29914050e+02
442             	3.29914996e+02
443             	3.29915983e+02
444             	3.29916846e+02
445             	3.29917600e+02
446             	3.29918255e+02
447             	3.29918787e+02
448             	3.29919164e+02
449             	3.29919364e+02
450             	3.29919375e+02
451             	3.29919183e+02
452             	3.29918805e+02
453             	3.29918205e+02
454             	3.29917414e+02
455             	3.29916574e+02
456             	3.29915650e+02
457             	3.29914316e+02
458             	3.29912775e+02
459             	3.29911386e+02
460             	3.29910525e+02
461             	3.29910419e+02
462             	3.29910649e+02
463             	3.29910887e+02
464             	3.29911310e+02
465             	3.29911895e+02
466             	3.29912751e+02
467             	3.29913563e+02
468             	3.29914243e+02
469             	3.29914784e+02
470             	3.29915203e+02
471             	3.29915407e+02
472             	3.29915534e+02
473             	3.29915915e+02
474             	3.29916448e+02
475             	3.29917013e+02
476             	3.29917279e+02
477             	3.29916707e+02
478             	3.29915820e+02
479             	3.29915035e+02
480             	3.29914420e+02
481             	3.29913767e+02
482             	3.29912928e+02
483             	3.29912291e+02
484             	3.29912210e+02
485             	3.29912490e+02
486             	3.29912840e+02
487             	3.29913070e+02
488             	3.29913256e+02
489             	3.29913422e+02
490             	3.29913572e+02
491             	3.29913634e+02
492             	3.29913553e+02
493             	3.29913356e+02
494             	3.29913091e+02
495             	3.29912781e+02
496             	3.29912437e+02
497             	3.29912066e+02
498             	3.29911699e+02
499             	3.29911322e+02
500             	3.29910918e+02
501             	3.29910535e+02
502             	3.29910192e+02
503             	3.29909854e+02
504             	3.29909538e+02
505             	3.29909281e+02
506             	3.29909097e+02
507             	3.29908932e+02
508             	3.29908749e+02
509             	3.29908547e+02
510             	3.29908396e+02
511             	3.29908279e+02
512             	3.29908152e+02
513             	3.29907988e+02
514             	3.29907854e+02
515             	3.29907737e+02
516             	3.29907634e+02
517             	3.29907531e+02
518             	3.29907475e+02
519             	3.29907511e+02
520             	3.29907584e+02
521             	3.29907648e+02
522             	3.29907697e+02
523             	3.29907673e+02
524             	3.29907558e+02
525             	3.29907379e+02
526             	3.29907197e+02
527             	3.29906973e+02
528             	3.29906768e+02
529             	3.29906668e+02
530             	3.29906631e+02
531             	3.29906593e+02
532             	3.29906553e+02
533             	3.29906520e+02
534             	3.29906497e+02
535             	3.29906463e+02
536             	3.29906406e+02
537             	3.29906309e+02
538             	3.29906184e+02
539             	3.29906052e+02
540             	3.29905905e+02
541             	3.29905708e+02
542             	3.29905490e+02
543             	3.29905304e+02
544             	3.29905167e+02
545             	3.29905065e+02
546             	3.29905015e+02
547             	3.29905073e+02
548             	3.29905206e+02
549             	3.29905328e+02
550             	3.29905396e+02
551             	3.29905362e+02
552             	3.29905232e+02
553             	3.29905076e+02
554             	3.29904901e+02
555             	3.29904698e+02
556             	3.29904462e+02
557             	3.29904220e+02
558             	3.29904000e+02
559             	3.29903823e+02
560             	3.29903699e+02
561             	3.29903609e+02
562             	3.29903557e+02
563             	3.29903525e+02
564             	3.29903521e+02
565             	3.29903537e+02
566             	3.29903559e+02
567             	3.29903583e+02
568             	3.29903610e+02
569             	3.29903650e+02
570             	3.29903688e+02
571             	3.29903709e+02
572             	3.29903719e+02
573             	3.29903728e+02
574             	3.29903735e+02
575             	3.29903738e+02
576             	3.29903728e+02
577             	3.29903708e+02
578             	3.29903677e+02
579             	3.29903643e+02
580             	3.29903619e+02
581             	3.29903606e+02
582             	3.29903592e+02
583             	3.29903584e+02
584             	3.29903587e+02
585             	3.29903603e+02
586             	3.29903622e+02
587             	3.29903659e+02
588             	3.29903714e+02
589             	3.29903777e+02
590             	3.29903838e+02
591             	3.29903897e+02
592             	3.29903958e+02
593             	3.29904020e+02
594             	3.29904075e+02
595             	3.29904124e+02
596             	3.29904176e+02
597             	3.29904224e+02
598             	3.29904258e+02
599             	3.29904279e+02
600             	3.29904291e+02
601             	3.29904302e+02
602             	3.29904308e+02
603             	3.29904304e+02
604             	3.29904289e+02
605             	3.29904244e+02
606             	3.29904196e+02
607             	3.29904180e+02
608             	3.29904165e+02
609             	3.29904130e+02
610             	3.29904066e+02
611             	3.29903980e+02
612             	3.29903902e+02
613             	3.29903852e+02
614             	3.29903843e+02
615             	3.29903851e+02
616             	3.29903862e+02
617             	3.29903964e+02
618             	3.29904103e+02
619             	3.29904239e+02
620             	3.29904354e+02
621             	3.29904444e+02
