# Region        : cellZone component_0
# Cells         : 89
# Volume        : 1.90692196e-01
# Time          	volAverage(T)
1               	3.00837188e+02
2               	3.01656056e+02
3               	3.02365358e+02
4               	3.02999429e+02
5               	3.03597692e+02
6               	3.04173780e+02
7               	3.04733335e+02
8               	3.05283101e+02
9               	3.05826167e+02
10              	3.06369941e+02
11              	3.06898291e+02
12              	3.07402575e+02
13              	3.07884724e+02
14              	3.08360054e+02
15              	3.08829597e+02
16              	3.09289972e+02
17              	3.09740244e+02
18              	3.10170352e+02
19              	3.10580082e+02
20              	3.10970168e+02
21              	3.11346999e+02
22              	3.11713324e+02
23              	3.12071520e+02
24              	3.12422182e+02
25              	3.12769459e+02
26              	3.13104544e+02
27              	3.13375057e+02
28              	3.13637709e+02
29              	3.13900635e+02
30              	3.14165205e+02
31              	3.14425438e+02
32              	3.14680659e+02
33              	3.14934175e+02
34              	3.15168803e+02
35              	3.15396066e+02
36              	3.15623946e+02
37              	3.15849311e+02
38              	3.16070494e+02
39              	3.16278182e+02
40              	3.16461596e+02
41              	3.16630688e+02
42              	3.16788807e+02
43              	3.16932816e+02
44              	3.17061973e+02
45              	3.17193380e+02
46              	3.17344874e+02
47              	3.17491227e+02
48              	3.17579918e+02
49              	3.17615846e+02
50              	3.17637528e+02
51              	3.17668365e+02
52              	3.17696255e+02
53              	3.17722952e+02
54              	3.17754006e+02
55              	3.17787170e+02
56              	3.17824621e+02
57              	3.17888920e+02
58              	3.17972238e+02
59              	3.18050640e+02
60              	3.18073093e+02
61              	3.18053275e+02
62              	3.18050542e+02
63              	3.18070538e+02
64              	3.18102607e+02
65              	3.18143887e+02
66              	3.18178048e+02
67              	3.18211923e+02
68              	3.18246984e+02
69              	3.18278019e+02
70              	3.18318219e+02
71              	3.18378395e+02
72              	3.18464264e+02
73              	3.18483550e+02
74              	3.18438731e+02
75              	3.18333663e+02
76              	3.18274503e+02
77              	3.18256375e+02
78              	3.18253852e+02
79              	3.18254058e+02
80              	3.18259273e+02
81              	3.18274199e+02
82              	3.18303740e+02
83              	3.18341169e+02
84              	3.18379451e+02
85              	3.18426677e+02
86              	3.18485596e+02
87              	3.18562764e+02
88              	3.18645694e+02
89              	3.18718919e+02
90              	3.18780309e+02
91              	3.18841393e+02
92              	3.18893810e+02
93              	3.18929808e+02
94              	3.18952617e+02
95              	3.18971461e+02
96              	3.18995966e+02
97              	3.19022441e+02
98              	3.19057013e+02
99              	3.19098969e+02
100             	3.19152069e+02
101             	3.19194542e+02
102             	3.19235610e+02
103             	3.19271278e+02
104             	3.19299616e+02
105             	3.19322382e+02
106             	3.19339829e+02
107             	3.19358415e+02
108             	3.19380915e+02
109             	3.19409806e+02
110             	3.19443860e+02
111             	3.19486644e+02
112             	3.19526195e+02
113             	3.19572731e+02
114             	3.19619745e+02
115             	3.19656667e+02
116             	3.19691910e+02
117             	3.19723339e+02
118             	3.19750186e+02
119             	3.19774066e+02
120             	3.19791931e+02
121             	3.19802913e+02
122             	3.19812735e+02
123             	3.19825252e+02
124             	3.19841577e+02
125             	3.19866366e+02
126             	3.19903789e+02
127             	3.19936005e+02
128             	3.19973237e+02
129             	3.19998312e+02
130             	3.20009676e+02
131             	3.20011698e+02
132             	3.20007859e+02
133             	3.19998008e+02
134             	3.19985719e+02
135             	3.19977666e+02
136             	3.19979188e+02
137             	3.19989674e+02
138             	3.20011546e+02
139             	3.20040314e+02
140             	3.20066953e+02
141             	3.20086474e+02
142             	3.20097913e+02
143             	3.20102853e+02
144             	3.20105438e+02
145             	3.20106116e+02
146             	3.20110478e+02
147             	3.20118037e+02
148             	3.20130068e+02
149             	3.20147872e+02
150             	3.20160245e+02
151             	3.20170610e+02
152             	3.20178648e+02
153             	3.20189398e+02
154             	3.20196102e+02
155             	3.20203542e+02
156             	3.20211717e+02
157             	3.20227185e+02
158             	3.20250567e+02
159             	3.20268619e+02
160             	3.20281004e+02
161             	3.20295535e+02
162             	3.20309144e+02
163             	3.20318819e+02
164             	3.20321791e+02
165             	3.20322362e+02
166             	3.20321761e+02
167             	3.20324056e+02
168             	3.20322201e+02
169             	3.20327245e+02
170             	3.20338487e+02
171             	3.20348476e+02
172             	3.20361655e+02
173             	3.20367764e+02
174             	3.20373722e+02
175             	3.20379016e+02
176             	3.20379939e+02
177             	3.20381573e+02
178             	3.20385220e+02
179             	3.20388511e+02
180             	3.20392871e+02
181             	3.20399883e+02
182             	3.20410635e+02
183             	3.20421227e+02
184             	3.20422957e+02
185             	3.20428779e+02
186             	3.20434151e+02
187             	3.20437566e+02
188             	3.20438968e+02
189             	3.20438847e+02
190             	3.20444179e+02
191             	3.20450396e+02
192             	3.20453517e+02
193             	3.20460156e+02
194             	3.20469296e+02
195             	3.20481151e+02
196             	3.20494963e+02
197             	3.20508947e+02
198             	3.20521331e+02
199             	3.20531214e+02
200             	3.20538268e+02
201             	3.20541003e+02
202             	3.20541138e+02
203             	3.20542700e+02
204             	3.20543598e+02
205             	3.20544451e+02
206             	3.20546599e+02
207             	3.20550091e+02
208             	3.20555211e+02
209             	3.20559264e+02
210             	3.20559975e+02
211             	3.20561485e+02
212             	3.20561631e+02
213             	3.20560964e+02
214             	3.20559979e+02
215             	3.20559926e+02
216             	3.20564534e+02
217             	3.20568304e+02
218             	3.20569340e+02
219             	3.20573868e+02
220             	3.20577238e+02
221             	3.20577791e+02
222             	3.20577324e+02
223             	3.20574930e+02
224             	3.20570047e+02
225             	3.20562901e+02
226             	3.20557663e+02
227             	3.20552934e+02
228             	3.20548451e+02
229             	3.20547701e+02
230             	3.20549006e+02
231             	3.20552096e+02
232             	3.20558601e+02
233             	3.20565330e+02
234             	3.20572432e+02
235             	3.20577644e+02
236             	3.20580092e+02
237             	3.20580667e+02
238             	3.20580157e+02
239             	3.20578218e+02
240             	3.20576058e+02
241             	3.20572289e+02
242             	3.20570297e+02
243             	3.20572385e+02
244             	3.20574025e+02
245             	3.20575563e+02
246             	3.20578160e+02
247             	3.20583368e+02
248             	3.20589556e+02
249             	3.20595858e+02
250             	3.20601704e+02
251             	3.20605643e+02
252             	3.20605945e+02
253             	3.20605908e+02
254             	3.20605210e+02
255             	3.20603821e+02
256             	3.20602188e+02
257             	3.20601183e+02
258             	3.20602050e+02
259             	3.20602988e+02
260             	3.20604597e+02
261             	3.20606894e+02
262             	3.20609960e+02
263             	3.20613173e+02
264             	3.20616188e+02
265             	3.20616131e+02
266             	3.20616943e+02
267             	3.20616979e+02
268             	3.20616662e+02
269             	3.20615544e+02
270             	3.20613435e+02
271             	3.20610774e+02
272             	3.20609229e+02
273             	3.20608205e+02
274             	3.20608352e+02
275             	3.20610247e+02
276             	3.20613737e+02
277             	3.20616920e+02
278             	3.20617948e+02
279             	3.20620398e+02
280             	3.20622411e+02
281             	3.20623175e+02
282             	3.20622603e+02
283             	3.20621158e+02
284             	3.20618944e+02
285             	3.20616548e+02
286             	3.20614818e+02
287             	3.20614196e+02
288             	3.20614719e+02
289             	3.20616670e+02
290             	3.20619209e+02
291             	3.20620900e+02
292             	3.20623049e+02
293             	3.20625904e+02
294             	3.20627713e+02
295             	3.20629655e+02
296             	3.20631077e+02
297             	3.20632219e+02
298             	3.20633276e+02
299             	3.20634277e+02
300             	3.20635517e+02
301             	3.20637345e+02
302             	3.20638336e+02
303             	3.20639638e+02
304             	3.20640219e+02
305             	3.20640090e+02
306             	3.20639815e+02
307             	3.20639392e+02
308             	3.20638893e+02
309             	3.20638358e+02
310             	3.20638070e+02
311             	3.20638037e+02
312             	3.20637986e+02
313             	3.20638238e+02
314             	3.20638635e+02
315             	3.20639116e+02
316             	3.20639914e+02
317             	3.20640851e+02
318             	3.20641579e+02
319             	3.20641524e+02
320             	3.20641491e+02
321             	3.20641088e+02
322             	3.20640415e+02
323             	3.20640172e+02
324             	3.20640565e+02
325             	3.20641605e+02
326             	3.20642762e+02
327             	3.20644581e+02
328             	3.20646932e+02
329             	3.20648961e+02
330             	3.20650321e+02
331             	3.20650188e+02
332             	3.20649383e+02
333             	3.20648433e+02
334             	3.20646668e+02
335             	3.20645879e+02
336             	3.20644591e+02
337             	3.20644292e+02
338             	3.20644486e+02
339             	3.20645303e+02
340             	3.20646395e+02
341             	3.20647119e+02
342             	3.20648162e+02
343             	3.20649158e+02
344             	3.20649756e+02
345             	3.20650503e+02
346             	3.20651295e+02
347             	3.20652078e+02
348             	3.20652323e+02
349             	3.20651444e+02
350             	3.20650057e+02
351             	3.20648788e+02
352             	3.20647439e+02
353             	3.20646454e+02
354             	3.20645934e+02
355             	3.20646014e+02
356             	3.20647507e+02
357             	3.20648460e+02
358             	3.20649651e+02
359             	3.20649308e+02
360             	3.20649838e+02
361             	3.20650525e+02
362             	3.20650799e+02
363             	3.20649645e+02
364             	3.20648336e+02
365             	3.20646833e+02
366             	3.20645607e+02
367             	3.20645150e+02
368             	3.20645215e+02
369             	3.20645212e+02
370             	3.20645659e+02
371             	3.20646461e+02
372             	3.20647314e+02
373             	3.20647763e+02
374             	3.20647403e+02
375             	3.20647343e+02
376             	3.20647073e+02
377             	3.20646718e+02
378             	3.20646272e+02
379             	3.20646341e+02
380             	3.20646567e+02
381             	3.20646157e+02
382             	3.20646513e+02
383             	3.20647173e+02
384             	3.20648342e+02
385             	3.20649848e+02
386             	3.20651562e+02
387             	3.20653223e+02
388             	3.20654528e+02
389             	3.20654097e+02
390             	3.20653430e+02
391             	3.20652593e+02
392             	3.20651394e+02
393             	3.20649953e+02
394             	3.20648543e+02
395             	3.20648213e+02
396             	3.20648594e+02
397             	3.20649054e+02
398             	3.20650110e+02
399             	3.20651486e+02
400             	3.20653218e+02
401             	3.20653913e+02
402             	3.20654578e+02
403             	3.20655149e+02
404             	3.20655304e+02
405             	3.20655055e+02
406             	3.20654469e+02
407             	3.20653749e+02
408             	3.20653377e+02
409             	3.20653682e+02
410             	3.20653862e+02
411             	3.20654291e+02
412             	3.20655049e+02
413             	3.20656029e+02
414             	3.20656875e+02
415             	3.20656849e+02
416             	3.20656339e+02
417             	3.20655636e+02
418             	3.20654712e+02
419             	3.20653646e+02
420             	3.20652770e+02
421             	3.20652447e+02
422             	3.20652793e+02
423             	3.20652983e+02
424             	3.20653653e+02
425             	3.20654642e+02
426             	3.20655867e+02
427             	3.20656521e+02
428             	3.20656723e+02
429             	3.20657050e+02
430             	3.20657239e+02
431             	3.20657228e+02
432             	3.20656962e+02
433             	3.20656357e+02
434             	3.20655809e+02
435             	3.20655877e+02
436             	3.20655696e+02
437             	3.20655715e+02
438             	3.20656327e+02
439             	3.20657222e+02
440             	3.20657885e+02
441             	3.20658388e+02
442             	3.20658948e+02
443             	3.20659208e+02
444             	3.20658915e+02
445             	3.20658181e+02
446             	3.20657543e+02
447             	3.20656883e+02
448             	3.20656689e+02
449             	3.20656716e+02
450             	3.20657105e+02
451             	3.20657740e+02
452             	3.20658497e+02
453             	3.20658981e+02
454             	3.20659507e+02
455             	3.20659496e+02
456             	3.20659408e+02
457             	3.20659161e+02
458             	3.20658821e+02
459             	3.20658585e+02
460             	3.20658236e+02
461             	3.20658384e+02
462             	3.20658396e+02
463             	3.20658448e+02
464             	3.20658623e+02
465             	3.20658924e+02
466             	3.20659291e+02
467             	3.20659578e+02
468             	3.20659810e+02
469             	3.20659860e+02
470             	3.20659833e+02
471             	3.20659630e+02
472             	3.20659251e+02
473             	3.20659050e+02
474             	3.20658794e+02
475             	3.20658593e+02
476             	3.20658477e+02
477             	3.20658460e+02
478             	3.20658584e+02
479             	3.20658845e+02
480             	3.20659126e+02
481             	3.20659369e+02
482             	3.20659544e+02
483             	3.20659630e+02
484             	3.20659665e+02
485             	3.20659574e+02
486             	3.20659476e+02
487             	3.20659383e+02
488             	3.20659225e+02
489             	3.20659077e+02
490             	3.20658966e+02
491             	3.20658924e+02
492             	3.20658741e+02
493             	3.20658652e+02
494             	3.20658599e+02
495             	3.20658549e+02
496             	3.20658454e+02
497             	3.20658318e+02
498             	3.20658439e+02
499             	3.20658464e+02
500             	3.20658446e+02
501             	3.20658478e+02
502             	3.20658637e+02
503             	3.20658869e+02
504             	3.20659065e+02
505             	3.20659186e+02
506             	3.20659348e+02
507             	3.20659462e+02
508             	3.20659499e+02
509             	3.20659459e+02
510             	3.20659365e+02
511             	3.20659252e+02
512             	3.20659125e+02
513             	3.20658999e+02
514             	3.20658916e+02
515             	3.20658844e+02
516             	3.20658771e+02
517             	3.20658717e+02
518             	3.20658684e+02
519             	3.20658673e+02
520             	3.20658731e+02
521             	3.20658781e+02
522             	3.20658853e+02
523             	3.20658915e+02
524             	3.20658961e+02
525             	3.20659001e+02
526             	3.20659033e+02
527             	3.20659031e+02
528             	3.20659036e+02
529             	3.20659041e+02
530             	3.20659040e+02
531             	3.20659127e+02
532             	3.20659183e+02
533             	3.20659233e+02
534             	3.20659283e+02
535             	3.20659251e+02
536             	3.20659232e+02
537             	3.20659170e+02
538             	3.20659100e+02
539             	3.20659040e+02
540             	3.20658970e+02
541             	3.20658894e+02
542             	3.20658819e+02
543             	3.20658752e+02
544             	3.20658701e+02
545             	3.20658673e+02
546             	3.20658646e+02
547             	3.20658707e+02
548             	3.20658759e+02
549             	3.20658841e+02
550             	3.20658930e+02
551             	3.20659011e+02
552             	3.20659098e+02
553             	3.20659100e+02
554             	3.20659113e+02
555             	3.20659117e+02
556             	3.20659114e+02
557             	3.20659121e+02
558             	3.20659098e+02
559             	3.20659107e+02
560             	3.20659140e+02
561             	3.20659147e+02
562             	3.20659169e+02
563             	3.20659188e+02
564             	3.20659168e+02
565             	3.20659154e+02
566             	3.20659174e+02
567             	3.20659232e+02
568             	3.20659273e+02
569             	3.20659304e+02
570             	3.20659316e+02
571             	3.20659345e+02
572             	3.20659378e+02
573             	3.20659416e+02
574             	3.20659450e+02
575             	3.20659495e+02
576             	3.20659546e+02
577             	3.20659584e+02
578             	3.20659616e+02
579             	3.20659586e+02
580             	3.20659527e+02
581             	3.20659476e+02
582             	3.20659439e+02
583             	3.20659400e+02
584             	3.20659379e+02
585             	3.20659370e+02
586             	3.20659368e+02
587             	3.20659367e+02
588             	3.20659371e+02
589             	3.20659380e+02
590             	3.20659378e+02
591             	3.20659373e+02
592             	3.20659362e+02
593             	3.20659353e+02
594             	3.20659353e+02
595             	3.20659371e+02
596             	3.20659380e+02
597             	3.20659383e+02
598             	3.20659371e+02
599             	3.20659360e+02
600             	3.20659362e+02
601             	3.20659358e+02
602             	3.20659342e+02
603             	3.20659327e+02
604             	3.20659317e+02
605             	3.20659303e+02
606             	3.20659284e+02
607             	3.20659268e+02
608             	3.20659248e+02
609             	3.20659225e+02
610             	3.20659202e+02
611             	3.20659187e+02
612             	3.20659179e+02
613             	3.20659176e+02
614             	3.20659183e+02
615             	3.20659202e+02
616             	3.20659225e+02
617             	3.20659249e+02
618             	3.20659266e+02
619             	3.20659280e+02
620             	3.20659288e+02
621             	3.20659292e+02
