# Region        : cellZone component_2
# Cells         : 115
# Volume        : 2.31507210e-01
# Time          	volAverage(T)
1               	3.00338211e+02
2               	3.00673548e+02
3               	3.00987859e+02
4               	3.01290484e+02
5               	3.01588260e+02
6               	3.01882941e+02
7               	3.02175080e+02
8               	3.02465605e+02
9               	3.02756640e+02
10              	3.03045314e+02
11              	3.03330481e+02
12              	3.03612892e+02
13              	3.03892258e+02
14              	3.04169165e+02
15              	3.04443786e+02
16              	3.04715714e+02
17              	3.04985153e+02
18              	3.05252782e+02
19              	3.05519044e+02
20              	3.05783400e+02
21              	3.06044547e+02
22              	3.06301709e+02
23              	3.06554915e+02
24              	3.06806482e+02
25              	3.07054821e+02
26              	3.07301489e+02
27              	3.07544866e+02
28              	3.07787606e+02
29              	3.08028560e+02
30              	3.08267221e+02
31              	3.08503800e+02
32              	3.08744377e+02
33              	3.08976076e+02
34              	3.09206059e+02
35              	3.09434635e+02
36              	3.09660288e+02
37              	3.09881747e+02
38              	3.10098754e+02
39              	3.10311332e+02
40              	3.10522878e+02
41              	3.10727300e+02
42              	3.10931151e+02
43              	3.11125998e+02
44              	3.11317405e+02
45              	3.11507311e+02
46              	3.11698289e+02
47              	3.11890979e+02
48              	3.12086075e+02
49              	3.12278469e+02
50              	3.12469373e+02
51              	3.12654847e+02
52              	3.12835621e+02
53              	3.13011349e+02
54              	3.13183048e+02
55              	3.13351090e+02
56              	3.13516182e+02
57              	3.13678301e+02
58              	3.13837360e+02
59              	3.13994914e+02
60              	3.14151782e+02
61              	3.14308616e+02
62              	3.14465927e+02
63              	3.14623290e+02
64              	3.14780394e+02
65              	3.14936482e+02
66              	3.15091182e+02
67              	3.15243700e+02
68              	3.15392853e+02
69              	3.15536033e+02
70              	3.15674929e+02
71              	3.15811992e+02
72              	3.15945195e+02
73              	3.16074164e+02
74              	3.16199689e+02
75              	3.16324972e+02
76              	3.16448796e+02
77              	3.16572023e+02
78              	3.16694629e+02
79              	3.16816831e+02
80              	3.16936694e+02
81              	3.17054836e+02
82              	3.17168807e+02
83              	3.17280151e+02
84              	3.17386725e+02
85              	3.17491230e+02
86              	3.17591449e+02
87              	3.17688680e+02
88              	3.17785186e+02
89              	3.17881289e+02
90              	3.17976632e+02
91              	3.18072175e+02
92              	3.18164959e+02
93              	3.18257138e+02
94              	3.18347943e+02
95              	3.18438471e+02
96              	3.18526796e+02
97              	3.18613263e+02
98              	3.18693912e+02
99              	3.18773344e+02
100             	3.18850581e+02
101             	3.18926402e+02
102             	3.19003480e+02
103             	3.19074582e+02
104             	3.19144116e+02
105             	3.19212823e+02
106             	3.19280566e+02
107             	3.19347413e+02
108             	3.19414658e+02
109             	3.19482375e+02
110             	3.19548557e+02
111             	3.19615328e+02
112             	3.19679245e+02
113             	3.19742311e+02
114             	3.19802996e+02
115             	3.19861710e+02
116             	3.19919530e+02
117             	3.19975161e+02
118             	3.20028862e+02
119             	3.20081637e+02
120             	3.20133649e+02
121             	3.20184913e+02
122             	3.20235372e+02
123             	3.20285668e+02
124             	3.20335914e+02
125             	3.20385895e+02
126             	3.20435079e+02
127             	3.20481873e+02
128             	3.20527783e+02
129             	3.20571792e+02
130             	3.20613813e+02
131             	3.20655284e+02
132             	3.20694822e+02
133             	3.20733050e+02
134             	3.20770119e+02
135             	3.20806372e+02
136             	3.20842173e+02
137             	3.20877466e+02
138             	3.20912735e+02
139             	3.20947317e+02
140             	3.20981547e+02
141             	3.21015535e+02
142             	3.21048581e+02
143             	3.21080491e+02
144             	3.21112401e+02
145             	3.21143428e+02
146             	3.21173979e+02
147             	3.21203242e+02
148             	3.21232359e+02
149             	3.21260566e+02
150             	3.21287408e+02
151             	3.21312804e+02
152             	3.21337250e+02
153             	3.21360472e+02
154             	3.21383486e+02
155             	3.21405174e+02
156             	3.21426431e+02
157             	3.21447809e+02
158             	3.21468673e+02
159             	3.21489417e+02
160             	3.21509793e+02
161             	3.21529738e+02
162             	3.21548999e+02
163             	3.21568100e+02
164             	3.21586623e+02
165             	3.21605076e+02
166             	3.21622969e+02
167             	3.21640608e+02
168             	3.21656738e+02
169             	3.21672562e+02
170             	3.21687698e+02
171             	3.21702391e+02
172             	3.21715873e+02
173             	3.21728826e+02
174             	3.21741570e+02
175             	3.21753814e+02
176             	3.21766077e+02
177             	3.21777660e+02
178             	3.21789198e+02
179             	3.21800593e+02
180             	3.21811321e+02
181             	3.21821762e+02
182             	3.21831956e+02
183             	3.21842067e+02
184             	3.21851581e+02
185             	3.21861104e+02
186             	3.21870336e+02
187             	3.21879516e+02
188             	3.21888111e+02
189             	3.21896317e+02
190             	3.21904053e+02
191             	3.21911376e+02
192             	3.21918601e+02
193             	3.21925551e+02
194             	3.21931888e+02
195             	3.21937887e+02
196             	3.21943465e+02
197             	3.21948996e+02
198             	3.21954379e+02
199             	3.21959697e+02
200             	3.21964650e+02
201             	3.21969190e+02
202             	3.21973511e+02
203             	3.21977611e+02
204             	3.21981583e+02
205             	3.21985530e+02
206             	3.21989202e+02
207             	3.21992811e+02
208             	3.21996030e+02
209             	3.21999090e+02
210             	3.22001974e+02
211             	3.22004689e+02
212             	3.22006958e+02
213             	3.22008993e+02
214             	3.22010766e+02
215             	3.22012370e+02
216             	3.22013855e+02
217             	3.22015122e+02
218             	3.22016247e+02
219             	3.22017095e+02
220             	3.22018139e+02
221             	3.22018812e+02
222             	3.22019403e+02
223             	3.22019827e+02
224             	3.22020172e+02
225             	3.22020435e+02
226             	3.22020587e+02
227             	3.22020581e+02
228             	3.22020418e+02
229             	3.22020234e+02
230             	3.22019968e+02
231             	3.22019588e+02
232             	3.22019039e+02
233             	3.22018355e+02
234             	3.22017491e+02
235             	3.22016506e+02
236             	3.22015356e+02
237             	3.22014192e+02
238             	3.22012855e+02
239             	3.22011403e+02
240             	3.22009953e+02
241             	3.22008452e+02
242             	3.22006851e+02
243             	3.22005163e+02
244             	3.22003440e+02
245             	3.22001711e+02
246             	3.21999859e+02
247             	3.21997907e+02
248             	3.21995887e+02
249             	3.21993855e+02
250             	3.21991716e+02
251             	3.21989420e+02
252             	3.21987107e+02
253             	3.21984782e+02
254             	3.21982334e+02
255             	3.21979780e+02
256             	3.21977211e+02
257             	3.21974631e+02
258             	3.21971936e+02
259             	3.21969148e+02
260             	3.21966370e+02
261             	3.21963590e+02
262             	3.21960743e+02
263             	3.21957802e+02
264             	3.21954878e+02
265             	3.21951976e+02
266             	3.21948972e+02
267             	3.21945887e+02
268             	3.21942835e+02
269             	3.21939813e+02
270             	3.21936699e+02
271             	3.21933672e+02
272             	3.21930529e+02
273             	3.21927413e+02
274             	3.21924212e+02
275             	3.21920925e+02
276             	3.21917678e+02
277             	3.21914408e+02
278             	3.21911059e+02
279             	3.21907631e+02
280             	3.21904235e+02
281             	3.21900874e+02
282             	3.21897461e+02
283             	3.21893956e+02
284             	3.21890526e+02
285             	3.21887138e+02
286             	3.21883672e+02
287             	3.21880155e+02
288             	3.21876707e+02
289             	3.21873319e+02
290             	3.21869866e+02
291             	3.21866352e+02
292             	3.21862891e+02
293             	3.21859457e+02
294             	3.21855965e+02
295             	3.21852408e+02
296             	3.21848911e+02
297             	3.21845457e+02
298             	3.21841939e+02
299             	3.21838351e+02
300             	3.21834822e+02
301             	3.21831354e+02
302             	3.21827833e+02
303             	3.21824265e+02
304             	3.21820768e+02
305             	3.21817337e+02
306             	3.21813852e+02
307             	3.21810316e+02
308             	3.21806849e+02
309             	3.21803444e+02
310             	3.21800016e+02
311             	3.21796523e+02
312             	3.21793096e+02
313             	3.21789732e+02
314             	3.21786327e+02
315             	3.21782861e+02
316             	3.21779483e+02
317             	3.21776165e+02
318             	3.21772811e+02
319             	3.21769403e+02
320             	3.21766053e+02
321             	3.21762760e+02
322             	3.21759435e+02
323             	3.21756057e+02
324             	3.21752747e+02
325             	3.21749509e+02
326             	3.21746245e+02
327             	3.21742927e+02
328             	3.21739681e+02
329             	3.21736485e+02
330             	3.21733268e+02
331             	3.21730018e+02
332             	3.21726840e+02
333             	3.21723723e+02
334             	3.21720587e+02
335             	3.21717428e+02
336             	3.21714340e+02
337             	3.21711314e+02
338             	3.21708272e+02
339             	3.21705184e+02
340             	3.21702169e+02
341             	3.21699215e+02
342             	3.21696230e+02
343             	3.21693201e+02
344             	3.21690247e+02
345             	3.21687347e+02
346             	3.21684433e+02
347             	3.21681479e+02
348             	3.21678594e+02
349             	3.21675765e+02
350             	3.21672925e+02
351             	3.21670062e+02
352             	3.21667265e+02
353             	3.21664525e+02
354             	3.21661786e+02
355             	3.21659018e+02
356             	3.21656322e+02
357             	3.21653682e+02
358             	3.21651037e+02
359             	3.21648366e+02
360             	3.21645759e+02
361             	3.21643194e+02
362             	3.21640616e+02
363             	3.21638015e+02
364             	3.21635475e+02
365             	3.21632984e+02
366             	3.21630504e+02
367             	3.21627993e+02
368             	3.21625536e+02
369             	3.21623130e+02
370             	3.21620731e+02
371             	3.21618310e+02
372             	3.21615950e+02
373             	3.21613643e+02
374             	3.21611342e+02
375             	3.21609020e+02
376             	3.21606759e+02
377             	3.21604538e+02
378             	3.21602305e+02
379             	3.21600053e+02
380             	3.21597858e+02
381             	3.21595701e+02
382             	3.21593542e+02
383             	3.21591363e+02
384             	3.21589237e+02
385             	3.21587178e+02
386             	3.21585113e+02
387             	3.21583035e+02
388             	3.21581010e+02
389             	3.21579043e+02
390             	3.21577084e+02
391             	3.21575116e+02
392             	3.21573202e+02
393             	3.21571328e+02
394             	3.21569460e+02
395             	3.21567550e+02
396             	3.21565696e+02
397             	3.21563875e+02
398             	3.21562066e+02
399             	3.21560233e+02
400             	3.21558445e+02
401             	3.21556687e+02
402             	3.21554945e+02
403             	3.21553194e+02
404             	3.21551490e+02
405             	3.21549824e+02
406             	3.21548176e+02
407             	3.21546517e+02
408             	3.21544902e+02
409             	3.21543321e+02
410             	3.21541758e+02
411             	3.21540187e+02
412             	3.21538658e+02
413             	3.21537164e+02
414             	3.21535682e+02
415             	3.21534188e+02
416             	3.21532734e+02
417             	3.21531303e+02
418             	3.21529874e+02
419             	3.21528442e+02
420             	3.21527045e+02
421             	3.21525680e+02
422             	3.21524322e+02
423             	3.21522957e+02
424             	3.21521634e+02
425             	3.21520340e+02
426             	3.21519058e+02
427             	3.21517777e+02
428             	3.21516526e+02
429             	3.21515307e+02
430             	3.21514097e+02
431             	3.21512885e+02
432             	3.21511699e+02
433             	3.21510540e+02
434             	3.21509390e+02
435             	3.21508234e+02
436             	3.21507106e+02
437             	3.21506004e+02
438             	3.21504913e+02
439             	3.21503826e+02
440             	3.21502769e+02
441             	3.21501738e+02
442             	3.21500719e+02
443             	3.21499700e+02
444             	3.21498709e+02
445             	3.21497740e+02
446             	3.21496779e+02
447             	3.21495816e+02
448             	3.21494885e+02
449             	3.21493973e+02
450             	3.21493060e+02
451             	3.21492151e+02
452             	3.21491268e+02
453             	3.21490403e+02
454             	3.21489545e+02
455             	3.21488741e+02
456             	3.21487907e+02
457             	3.21487090e+02
458             	3.21486291e+02
459             	3.21485539e+02
460             	3.21484760e+02
461             	3.21484001e+02
462             	3.21483255e+02
463             	3.21482558e+02
464             	3.21481836e+02
465             	3.21481134e+02
466             	3.21480443e+02
467             	3.21479799e+02
468             	3.21479127e+02
469             	3.21478473e+02
470             	3.21477827e+02
471             	3.21477224e+02
472             	3.21476598e+02
473             	3.21475988e+02
474             	3.21475387e+02
475             	3.21474824e+02
476             	3.21474240e+02
477             	3.21473670e+02
478             	3.21473109e+02
479             	3.21472587e+02
480             	3.21472047e+02
481             	3.21471522e+02
482             	3.21471006e+02
483             	3.21470526e+02
484             	3.21470027e+02
485             	3.21469544e+02
486             	3.21469067e+02
487             	3.21468623e+02
488             	3.21468162e+02
489             	3.21467714e+02
490             	3.21467273e+02
491             	3.21466863e+02
492             	3.21466439e+02
493             	3.21466027e+02
494             	3.21465635e+02
495             	3.21465270e+02
496             	3.21464894e+02
497             	3.21464532e+02
498             	3.21464179e+02
499             	3.21463855e+02
500             	3.21463520e+02
501             	3.21463196e+02
502             	3.21462881e+02
503             	3.21462591e+02
504             	3.21462293e+02
505             	3.21462002e+02
506             	3.21461721e+02
507             	3.21461461e+02
508             	3.21461192e+02
509             	3.21460930e+02
510             	3.21460677e+02
511             	3.21460444e+02
512             	3.21460208e+02
513             	3.21459982e+02
514             	3.21459763e+02
515             	3.21459565e+02
516             	3.21459365e+02
517             	3.21459176e+02
518             	3.21458985e+02
519             	3.21458814e+02
520             	3.21458641e+02
521             	3.21458476e+02
522             	3.21458317e+02
523             	3.21458173e+02
524             	3.21458024e+02
525             	3.21457879e+02
526             	3.21457741e+02
527             	3.21457626e+02
528             	3.21457505e+02
529             	3.21457397e+02
530             	3.21457298e+02
531             	3.21457212e+02
532             	3.21457131e+02
533             	3.21457059e+02
534             	3.21456988e+02
535             	3.21456932e+02
536             	3.21456876e+02
537             	3.21456828e+02
538             	3.21456783e+02
539             	3.21456745e+02
540             	3.21456710e+02
541             	3.21456679e+02
542             	3.21456654e+02
543             	3.21456635e+02
544             	3.21456621e+02
545             	3.21456612e+02
546             	3.21456609e+02
547             	3.21456613e+02
548             	3.21456623e+02
549             	3.21456639e+02
550             	3.21456661e+02
551             	3.21456687e+02
552             	3.21456721e+02
553             	3.21456765e+02
554             	3.21456814e+02
555             	3.21456867e+02
556             	3.21456928e+02
557             	3.21456997e+02
558             	3.21457073e+02
559             	3.21457151e+02
560             	3.21457238e+02
561             	3.21457332e+02
562             	3.21457431e+02
563             	3.21457530e+02
564             	3.21457635e+02
565             	3.21457746e+02
566             	3.21457860e+02
567             	3.21457973e+02
568             	3.21458095e+02
569             	3.21458221e+02
570             	3.21458351e+02
571             	3.21458478e+02
572             	3.21458627e+02
573             	3.21458777e+02
574             	3.21458932e+02
575             	3.21459087e+02
576             	3.21459254e+02
577             	3.21459426e+02
578             	3.21459602e+02
579             	3.21459776e+02
580             	3.21459966e+02
581             	3.21460160e+02
582             	3.21460352e+02
583             	3.21460539e+02
584             	3.21460739e+02
585             	3.21460943e+02
586             	3.21461147e+02
587             	3.21461342e+02
588             	3.21461552e+02
589             	3.21461762e+02
590             	3.21461979e+02
591             	3.21462189e+02
592             	3.21462417e+02
593             	3.21462649e+02
594             	3.21462886e+02
595             	3.21463117e+02
596             	3.21463365e+02
597             	3.21463615e+02
598             	3.21463868e+02
599             	3.21464112e+02
600             	3.21464371e+02
601             	3.21464632e+02
602             	3.21464896e+02
603             	3.21465150e+02
604             	3.21465420e+02
605             	3.21465691e+02
606             	3.21465966e+02
607             	3.21466230e+02
608             	3.21466513e+02
609             	3.21466797e+02
610             	3.21467086e+02
611             	3.21467362e+02
612             	3.21467655e+02
613             	3.21467949e+02
614             	3.21468245e+02
615             	3.21468530e+02
616             	3.21468832e+02
617             	3.21469135e+02
618             	3.21469442e+02
619             	3.21469737e+02
620             	3.21470051e+02
621             	3.21470366e+02
