# Region        : cellZone component_0
# Cells         : 225
# Volume        : 4.20949553e-01
# Time          	volAverage(T)
1               	3.01487376e+02
2               	3.02931742e+02
3               	3.04188608e+02
4               	3.05312793e+02
5               	3.06374590e+02
6               	3.07401702e+02
7               	3.08397928e+02
8               	3.09365327e+02
9               	3.10311428e+02
10              	3.11221286e+02
11              	3.12100526e+02
12              	3.12965412e+02
13              	3.13819922e+02
14              	3.14656561e+02
15              	3.15450240e+02
16              	3.16228129e+02
17              	3.16985696e+02
18              	3.17736139e+02
19              	3.18474118e+02
20              	3.19221739e+02
21              	3.19930446e+02
22              	3.20618717e+02
23              	3.21286124e+02
24              	3.21921264e+02
25              	3.22543716e+02
26              	3.23160515e+02
27              	3.23721597e+02
28              	3.24227437e+02
29              	3.24717851e+02
30              	3.25187232e+02
31              	3.25639344e+02
32              	3.26079759e+02
33              	3.26540423e+02
34              	3.27027501e+02
35              	3.27489795e+02
36              	3.27867870e+02
37              	3.28167716e+02
38              	3.28358561e+02
39              	3.28599120e+02
40              	3.28888722e+02
41              	3.29161035e+02
42              	3.29466363e+02
43              	3.29792233e+02
44              	3.30109613e+02
45              	3.30497530e+02
46              	3.30878146e+02
47              	3.31190359e+02
48              	3.31418377e+02
49              	3.31596490e+02
50              	3.31733178e+02
51              	3.31778666e+02
52              	3.31867914e+02
53              	3.31998267e+02
54              	3.32161847e+02
55              	3.32364110e+02
56              	3.32589245e+02
57              	3.32839358e+02
58              	3.33090579e+02
59              	3.33336019e+02
60              	3.33608246e+02
61              	3.33875456e+02
62              	3.34155866e+02
63              	3.34441922e+02
64              	3.34598828e+02
65              	3.34626134e+02
66              	3.34582794e+02
67              	3.34521108e+02
68              	3.34475886e+02
69              	3.34565141e+02
70              	3.34721706e+02
71              	3.34867633e+02
72              	3.35012157e+02
73              	3.35174679e+02
74              	3.35405713e+02
75              	3.35642271e+02
76              	3.35847081e+02
77              	3.36064142e+02
78              	3.36277814e+02
79              	3.36445503e+02
80              	3.36557439e+02
81              	3.36635655e+02
82              	3.36697281e+02
83              	3.36823554e+02
84              	3.36992590e+02
85              	3.37190924e+02
86              	3.37386043e+02
87              	3.37593805e+02
88              	3.37804258e+02
89              	3.37984222e+02
90              	3.38194948e+02
91              	3.38454025e+02
92              	3.38667356e+02
93              	3.38805733e+02
94              	3.38850400e+02
95              	3.38791671e+02
96              	3.38797011e+02
97              	3.38870020e+02
98              	3.38961791e+02
99              	3.39055226e+02
100             	3.39159672e+02
101             	3.39260699e+02
102             	3.39441920e+02
103             	3.39630592e+02
104             	3.39818108e+02
105             	3.39957952e+02
106             	3.40042584e+02
107             	3.40063141e+02
108             	3.40101763e+02
109             	3.40159686e+02
110             	3.40240873e+02
111             	3.40335786e+02
112             	3.40445764e+02
113             	3.40579502e+02
114             	3.40733432e+02
115             	3.40864051e+02
116             	3.41024370e+02
117             	3.41143919e+02
118             	3.41294036e+02
119             	3.41465883e+02
120             	3.41600352e+02
121             	3.41728726e+02
122             	3.41848405e+02
123             	3.41943672e+02
124             	3.41990970e+02
125             	3.41984205e+02
126             	3.41941687e+02
127             	3.41908686e+02
128             	3.41906074e+02
129             	3.41931682e+02
130             	3.41984086e+02
131             	3.42068219e+02
132             	3.42189096e+02
133             	3.42333419e+02
134             	3.42488636e+02
135             	3.42637963e+02
136             	3.42767760e+02
137             	3.42938477e+02
138             	3.43062280e+02
139             	3.43159992e+02
140             	3.43272204e+02
141             	3.43380732e+02
142             	3.43477075e+02
143             	3.43559493e+02
144             	3.43620775e+02
145             	3.43657710e+02
146             	3.43699474e+02
147             	3.43694244e+02
148             	3.43694708e+02
149             	3.43705083e+02
150             	3.43717326e+02
151             	3.43742406e+02
152             	3.43802295e+02
153             	3.43890538e+02
154             	3.43980438e+02
155             	3.44043765e+02
156             	3.44110417e+02
157             	3.44220653e+02
158             	3.44355078e+02
159             	3.44416443e+02
160             	3.44335606e+02
161             	3.44275534e+02
162             	3.44269739e+02
163             	3.44297288e+02
164             	3.44356430e+02
165             	3.44441918e+02
166             	3.44538718e+02
167             	3.44629134e+02
168             	3.44712039e+02
169             	3.44806703e+02
170             	3.44940023e+02
171             	3.45053915e+02
172             	3.45086423e+02
173             	3.45049005e+02
174             	3.45025744e+02
175             	3.45052212e+02
176             	3.45119497e+02
177             	3.45192750e+02
178             	3.45246809e+02
179             	3.45275978e+02
180             	3.45313225e+02
181             	3.45381418e+02
182             	3.45412061e+02
183             	3.45410822e+02
184             	3.45381941e+02
185             	3.45316285e+02
186             	3.45236494e+02
187             	3.45186359e+02
188             	3.45153281e+02
189             	3.45145815e+02
190             	3.45167218e+02
191             	3.45181644e+02
192             	3.45217421e+02
193             	3.45246778e+02
194             	3.45301322e+02
195             	3.45345702e+02
196             	3.45399153e+02
197             	3.45437750e+02
198             	3.45458638e+02
199             	3.45473323e+02
200             	3.45486948e+02
201             	3.45487238e+02
202             	3.45491099e+02
203             	3.45492344e+02
204             	3.45499464e+02
205             	3.45508710e+02
206             	3.45529509e+02
207             	3.45543105e+02
208             	3.45553281e+02
209             	3.45565898e+02
210             	3.45583260e+02
211             	3.45599697e+02
212             	3.45626622e+02
213             	3.45658190e+02
214             	3.45703033e+02
215             	3.45743151e+02
216             	3.45788013e+02
217             	3.45830613e+02
218             	3.45866121e+02
219             	3.45922464e+02
220             	3.45970631e+02
221             	3.45998012e+02
222             	3.46004166e+02
223             	3.45989590e+02
224             	3.45979951e+02
225             	3.45966578e+02
226             	3.45944751e+02
227             	3.45926592e+02
228             	3.45916798e+02
229             	3.45914695e+02
230             	3.45918205e+02
231             	3.45929875e+02
232             	3.45944532e+02
233             	3.45968482e+02
234             	3.45992279e+02
235             	3.46017924e+02
236             	3.46045271e+02
237             	3.46078148e+02
238             	3.46112224e+02
239             	3.46131116e+02
240             	3.46153899e+02
241             	3.46174450e+02
242             	3.46194446e+02
243             	3.46214572e+02
244             	3.46222301e+02
245             	3.46224969e+02
246             	3.46221015e+02
247             	3.46210779e+02
248             	3.46212985e+02
249             	3.46218113e+02
250             	3.46228992e+02
251             	3.46238153e+02
252             	3.46258904e+02
253             	3.46277414e+02
254             	3.46304033e+02
255             	3.46331314e+02
256             	3.46355139e+02
257             	3.46380572e+02
258             	3.46406947e+02
259             	3.46432345e+02
260             	3.46451293e+02
261             	3.46474677e+02
262             	3.46497350e+02
263             	3.46517814e+02
264             	3.46538903e+02
265             	3.46551602e+02
266             	3.46561337e+02
267             	3.46563673e+02
268             	3.46560317e+02
269             	3.46558736e+02
270             	3.46559965e+02
271             	3.46562054e+02
272             	3.46563451e+02
273             	3.46573374e+02
274             	3.46590379e+02
275             	3.46607710e+02
276             	3.46626651e+02
277             	3.46640370e+02
278             	3.46660117e+02
279             	3.46683735e+02
280             	3.46707503e+02
281             	3.46730318e+02
282             	3.46745846e+02
283             	3.46762738e+02
284             	3.46777358e+02
285             	3.46787786e+02
286             	3.46789619e+02
287             	3.46793613e+02
288             	3.46799324e+02
289             	3.46802050e+02
290             	3.46800037e+02
291             	3.46800164e+02
292             	3.46803139e+02
293             	3.46805936e+02
294             	3.46809884e+02
295             	3.46814213e+02
296             	3.46829179e+02
297             	3.46851694e+02
298             	3.46867453e+02
299             	3.46884045e+02
300             	3.46906231e+02
301             	3.46929117e+02
302             	3.46946070e+02
303             	3.46953572e+02
304             	3.46955701e+02
305             	3.46953791e+02
306             	3.46951054e+02
307             	3.46950198e+02
308             	3.46954001e+02
309             	3.46950943e+02
310             	3.46953967e+02
311             	3.46963872e+02
312             	3.46979511e+02
313             	3.46992176e+02
314             	3.47004245e+02
315             	3.47019913e+02
316             	3.47035768e+02
317             	3.47046142e+02
318             	3.47062369e+02
319             	3.47080075e+02
320             	3.47096931e+02
321             	3.47107064e+02
322             	3.47116372e+02
323             	3.47126392e+02
324             	3.47134314e+02
325             	3.47131561e+02
326             	3.47134579e+02
327             	3.47140187e+02
328             	3.47144976e+02
329             	3.47147810e+02
330             	3.47147415e+02
331             	3.47141398e+02
332             	3.47138055e+02
333             	3.47133302e+02
334             	3.47131121e+02
335             	3.47125928e+02
336             	3.47128246e+02
337             	3.47138866e+02
338             	3.47155907e+02
339             	3.47171877e+02
340             	3.47173740e+02
341             	3.47187593e+02
342             	3.47207202e+02
343             	3.47222016e+02
344             	3.47230102e+02
345             	3.47230571e+02
346             	3.47225216e+02
347             	3.47220422e+02
348             	3.47217021e+02
349             	3.47216439e+02
350             	3.47220089e+02
351             	3.47229262e+02
352             	3.47232639e+02
353             	3.47243380e+02
354             	3.47254164e+02
355             	3.47269915e+02
356             	3.47287678e+02
357             	3.47303608e+02
358             	3.47307996e+02
359             	3.47311669e+02
360             	3.47319437e+02
361             	3.47326687e+02
362             	3.47327133e+02
363             	3.47332342e+02
364             	3.47334405e+02
365             	3.47342713e+02
366             	3.47347992e+02
367             	3.47346939e+02
368             	3.47343056e+02
369             	3.47337595e+02
370             	3.47332589e+02
371             	3.47327548e+02
372             	3.47322068e+02
373             	3.47317050e+02
374             	3.47313401e+02
375             	3.47310666e+02
376             	3.47309225e+02
377             	3.47306587e+02
378             	3.47308071e+02
379             	3.47311861e+02
380             	3.47316757e+02
381             	3.47322213e+02
382             	3.47327570e+02
383             	3.47325539e+02
384             	3.47329191e+02
385             	3.47334495e+02
386             	3.47336088e+02
387             	3.47337554e+02
388             	3.47338182e+02
389             	3.47337388e+02
390             	3.47335606e+02
391             	3.47333889e+02
392             	3.47331145e+02
393             	3.47327756e+02
394             	3.47327217e+02
395             	3.47328584e+02
396             	3.47332616e+02
397             	3.47331178e+02
398             	3.47334008e+02
399             	3.47337962e+02
400             	3.47343358e+02
401             	3.47347617e+02
402             	3.47349486e+02
403             	3.47348979e+02
404             	3.47344825e+02
405             	3.47341263e+02
406             	3.47338369e+02
407             	3.47337788e+02
408             	3.47339104e+02
409             	3.47340867e+02
410             	3.47344057e+02
411             	3.47349027e+02
412             	3.47355822e+02
413             	3.47364489e+02
414             	3.47373929e+02
415             	3.47384734e+02
416             	3.47395833e+02
417             	3.47406856e+02
418             	3.47418524e+02
419             	3.47429308e+02
420             	3.47431746e+02
421             	3.47437437e+02
422             	3.47444673e+02
423             	3.47444384e+02
424             	3.47448307e+02
425             	3.47454093e+02
426             	3.47458510e+02
427             	3.47459942e+02
428             	3.47457784e+02
429             	3.47455372e+02
430             	3.47452609e+02
431             	3.47450221e+02
432             	3.47448385e+02
433             	3.47448679e+02
434             	3.47448506e+02
435             	3.47448233e+02
436             	3.47448798e+02
437             	3.47450563e+02
438             	3.47453666e+02
439             	3.47459293e+02
440             	3.47458203e+02
441             	3.47460588e+02
442             	3.47464885e+02
443             	3.47468924e+02
444             	3.47471581e+02
445             	3.47472520e+02
446             	3.47472591e+02
447             	3.47472953e+02
448             	3.47474192e+02
449             	3.47472837e+02
450             	3.47468757e+02
451             	3.47462865e+02
452             	3.47455652e+02
453             	3.47448258e+02
454             	3.47438790e+02
455             	3.47429196e+02
456             	3.47418276e+02
457             	3.47409187e+02
458             	3.47403102e+02
459             	3.47397764e+02
460             	3.47395200e+02
461             	3.47394829e+02
462             	3.47396785e+02
463             	3.47401299e+02
464             	3.47405631e+02
465             	3.47407502e+02
466             	3.47407740e+02
467             	3.47409310e+02
468             	3.47410232e+02
469             	3.47408874e+02
470             	3.47405942e+02
471             	3.47403021e+02
472             	3.47400144e+02
473             	3.47397432e+02
474             	3.47395145e+02
475             	3.47394073e+02
476             	3.47393982e+02
477             	3.47395054e+02
478             	3.47397230e+02
479             	3.47399786e+02
480             	3.47402213e+02
481             	3.47405331e+02
482             	3.47407322e+02
483             	3.47408685e+02
484             	3.47408299e+02
485             	3.47407551e+02
486             	3.47404439e+02
487             	3.47399600e+02
488             	3.47393009e+02
489             	3.47387014e+02
490             	3.47382402e+02
491             	3.47379263e+02
492             	3.47377211e+02
493             	3.47375868e+02
494             	3.47375465e+02
495             	3.47376703e+02
496             	3.47379326e+02
497             	3.47383747e+02
498             	3.47388173e+02
499             	3.47390119e+02
500             	3.47392936e+02
501             	3.47395240e+02
502             	3.47395645e+02
503             	3.47394319e+02
504             	3.47392242e+02
505             	3.47389414e+02
506             	3.47387557e+02
507             	3.47386367e+02
508             	3.47385879e+02
509             	3.47387601e+02
510             	3.47390629e+02
511             	3.47392391e+02
512             	3.47394131e+02
513             	3.47394817e+02
514             	3.47395025e+02
515             	3.47395317e+02
516             	3.47395873e+02
517             	3.47396070e+02
518             	3.47394475e+02
519             	3.47391997e+02
520             	3.47390294e+02
521             	3.47389507e+02
522             	3.47387160e+02
523             	3.47385185e+02
524             	3.47383734e+02
525             	3.47382637e+02
526             	3.47382203e+02
527             	3.47382771e+02
528             	3.47384195e+02
529             	3.47385501e+02
530             	3.47387513e+02
531             	3.47390616e+02
532             	3.47394214e+02
533             	3.47398381e+02
534             	3.47402048e+02
535             	3.47404724e+02
536             	3.47406629e+02
537             	3.47407858e+02
538             	3.47408470e+02
539             	3.47409635e+02
540             	3.47410397e+02
541             	3.47410027e+02
542             	3.47408592e+02
543             	3.47406393e+02
544             	3.47403690e+02
545             	3.47400434e+02
546             	3.47396870e+02
547             	3.47393727e+02
548             	3.47390740e+02
549             	3.47388523e+02
550             	3.47386415e+02
551             	3.47385474e+02
552             	3.47385835e+02
553             	3.47387314e+02
554             	3.47389538e+02
555             	3.47391507e+02
556             	3.47393519e+02
557             	3.47396099e+02
558             	3.47398926e+02
559             	3.47401640e+02
560             	3.47404293e+02
561             	3.47406780e+02
562             	3.47409366e+02
563             	3.47411909e+02
564             	3.47413678e+02
565             	3.47414194e+02
566             	3.47413808e+02
567             	3.47413521e+02
568             	3.47413953e+02
569             	3.47416031e+02
570             	3.47418585e+02
571             	3.47420568e+02
572             	3.47422400e+02
573             	3.47423948e+02
574             	3.47425583e+02
575             	3.47427499e+02
576             	3.47429248e+02
577             	3.47430985e+02
578             	3.47432526e+02
579             	3.47433445e+02
580             	3.47434014e+02
581             	3.47434949e+02
582             	3.47435474e+02
583             	3.47434945e+02
584             	3.47433801e+02
585             	3.47432581e+02
586             	3.47431113e+02
587             	3.47429668e+02
588             	3.47428502e+02
589             	3.47427470e+02
590             	3.47426584e+02
591             	3.47425962e+02
592             	3.47425494e+02
593             	3.47426054e+02
594             	3.47426763e+02
595             	3.47427107e+02
596             	3.47427729e+02
597             	3.47428879e+02
598             	3.47430566e+02
599             	3.47432835e+02
600             	3.47435666e+02
601             	3.47438429e+02
602             	3.47441482e+02
603             	3.47444382e+02
604             	3.47447026e+02
605             	3.47449766e+02
606             	3.47452253e+02
607             	3.47452942e+02
608             	3.47452600e+02
609             	3.47451914e+02
610             	3.47451454e+02
611             	3.47451781e+02
612             	3.47452328e+02
613             	3.47452717e+02
614             	3.47453160e+02
615             	3.47453678e+02
616             	3.47454427e+02
617             	3.47455009e+02
618             	3.47455319e+02
619             	3.47455218e+02
620             	3.47455113e+02
621             	3.47454876e+02
