# Region        : cellZone component_2
# Cells         : 27
# Volume        : 3.70981876e-02
# Time          	volAverage(T)
1               	3.01835854e+02
2               	3.03595011e+02
3               	3.05108526e+02
4               	3.06496137e+02
5               	3.07835832e+02
6               	3.09144216e+02
7               	3.10414171e+02
8               	3.11653075e+02
9               	3.12864100e+02
10              	3.14031561e+02
11              	3.15148789e+02
12              	3.16205001e+02
13              	3.17201127e+02
14              	3.18160897e+02
15              	3.19089408e+02
16              	3.20001682e+02
17              	3.20901641e+02
18              	3.21708232e+02
19              	3.22524586e+02
20              	3.23346312e+02
21              	3.24138675e+02
22              	3.24897849e+02
23              	3.25632113e+02
24              	3.26344796e+02
25              	3.27007712e+02
26              	3.27641045e+02
27              	3.28239870e+02
28              	3.28783411e+02
29              	3.29308450e+02
30              	3.29788847e+02
31              	3.30295857e+02
32              	3.30789238e+02
33              	3.31263026e+02
34              	3.31733192e+02
35              	3.32152899e+02
36              	3.32560758e+02
37              	3.32930662e+02
38              	3.33352538e+02
39              	3.33771554e+02
40              	3.34099808e+02
41              	3.34449833e+02
42              	3.34808980e+02
43              	3.35164909e+02
44              	3.35526413e+02
45              	3.35930492e+02
46              	3.36274878e+02
47              	3.36574556e+02
48              	3.36862579e+02
49              	3.37139070e+02
50              	3.37446540e+02
51              	3.37767299e+02
52              	3.38083814e+02
53              	3.38410643e+02
54              	3.38762454e+02
55              	3.38970744e+02
56              	3.39213056e+02
57              	3.39492016e+02
58              	3.39751425e+02
59              	3.40010437e+02
60              	3.40320778e+02
61              	3.40613601e+02
62              	3.40904218e+02
63              	3.41189861e+02
64              	3.41490439e+02
65              	3.41749330e+02
66              	3.42073494e+02
67              	3.42385223e+02
68              	3.42666629e+02
69              	3.42786504e+02
70              	3.42874234e+02
71              	3.42987784e+02
72              	3.43126162e+02
73              	3.43287128e+02
74              	3.43442721e+02
75              	3.43590754e+02
76              	3.43748758e+02
77              	3.43930904e+02
78              	3.44142087e+02
79              	3.44372327e+02
80              	3.44635541e+02
81              	3.44903752e+02
82              	3.45112973e+02
83              	3.45300464e+02
84              	3.45579999e+02
85              	3.45781562e+02
86              	3.45948872e+02
87              	3.46073278e+02
88              	3.46206731e+02
89              	3.46304918e+02
90              	3.46417669e+02
91              	3.46513182e+02
92              	3.46576625e+02
93              	3.46666736e+02
94              	3.46760935e+02
95              	3.46862071e+02
96              	3.46969540e+02
97              	3.47082784e+02
98              	3.47205261e+02
99              	3.47347961e+02
100             	3.47520561e+02
101             	3.47720987e+02
102             	3.47955017e+02
103             	3.48153303e+02
104             	3.48409297e+02
105             	3.48632741e+02
106             	3.48868938e+02
107             	3.49079490e+02
108             	3.49281517e+02
109             	3.49462612e+02
110             	3.49647291e+02
111             	3.49822429e+02
112             	3.49979489e+02
113             	3.50110570e+02
114             	3.50219879e+02
115             	3.50329419e+02
116             	3.50450858e+02
117             	3.50558796e+02
118             	3.50663371e+02
119             	3.50769383e+02
120             	3.50891428e+02
121             	3.51013778e+02
122             	3.51126666e+02
123             	3.51246153e+02
124             	3.51372869e+02
125             	3.51503148e+02
126             	3.51647897e+02
127             	3.51806168e+02
128             	3.51990822e+02
129             	3.52078940e+02
130             	3.52194916e+02
131             	3.52340260e+02
132             	3.52482933e+02
133             	3.52623829e+02
134             	3.52751500e+02
135             	3.52867643e+02
136             	3.52978635e+02
137             	3.53087320e+02
138             	3.53193567e+02
139             	3.53292481e+02
140             	3.53386952e+02
141             	3.53492042e+02
142             	3.53586322e+02
143             	3.53671783e+02
144             	3.53750264e+02
145             	3.53823766e+02
146             	3.53903307e+02
147             	3.53987523e+02
148             	3.54073827e+02
149             	3.54154428e+02
150             	3.54228800e+02
151             	3.54300616e+02
152             	3.54375847e+02
153             	3.54457723e+02
154             	3.54545539e+02
155             	3.54629027e+02
156             	3.54700876e+02
157             	3.54770785e+02
158             	3.54845075e+02
159             	3.54915028e+02
160             	3.54985222e+02
161             	3.55053040e+02
162             	3.55124024e+02
163             	3.55193588e+02
164             	3.55266848e+02
165             	3.55342291e+02
166             	3.55421740e+02
167             	3.55503795e+02
168             	3.55584114e+02
169             	3.55657422e+02
170             	3.55724235e+02
171             	3.55788559e+02
172             	3.55853022e+02
173             	3.55916477e+02
174             	3.55981657e+02
175             	3.56045668e+02
176             	3.56108204e+02
177             	3.56168374e+02
178             	3.56227517e+02
179             	3.56286039e+02
180             	3.56341197e+02
181             	3.56394546e+02
182             	3.56444159e+02
183             	3.56490451e+02
184             	3.56533831e+02
185             	3.56575221e+02
186             	3.56617406e+02
187             	3.56659963e+02
188             	3.56703374e+02
189             	3.56746283e+02
190             	3.56788720e+02
191             	3.56831827e+02
192             	3.56875610e+02
193             	3.56918262e+02
194             	3.56957499e+02
195             	3.56991248e+02
196             	3.57022681e+02
197             	3.57052539e+02
198             	3.57082650e+02
199             	3.57113362e+02
200             	3.57144061e+02
201             	3.57174761e+02
202             	3.57204960e+02
203             	3.57233931e+02
204             	3.57262989e+02
205             	3.57293888e+02
206             	3.57327256e+02
207             	3.57361268e+02
208             	3.57393622e+02
209             	3.57423439e+02
210             	3.57451150e+02
211             	3.57477742e+02
212             	3.57503943e+02
213             	3.57530289e+02
214             	3.57558726e+02
215             	3.57587572e+02
216             	3.57616687e+02
217             	3.57644050e+02
218             	3.57670597e+02
219             	3.57696512e+02
220             	3.57722327e+02
221             	3.57747568e+02
222             	3.57771977e+02
223             	3.57795728e+02
224             	3.57819647e+02
225             	3.57843581e+02
226             	3.57868164e+02
227             	3.57893071e+02
228             	3.57917875e+02
229             	3.57941870e+02
230             	3.57965580e+02
231             	3.57988763e+02
232             	3.58011926e+02
233             	3.58034540e+02
234             	3.58056372e+02
235             	3.58077482e+02
236             	3.58098453e+02
237             	3.58119458e+02
238             	3.58139895e+02
239             	3.58159916e+02
240             	3.58179390e+02
241             	3.58199372e+02
242             	3.58218542e+02
243             	3.58237166e+02
244             	3.58255162e+02
245             	3.58272514e+02
246             	3.58289184e+02
247             	3.58305502e+02
248             	3.58321309e+02
249             	3.58336251e+02
250             	3.58350231e+02
251             	3.58363512e+02
252             	3.58376436e+02
253             	3.58388860e+02
254             	3.58400811e+02
255             	3.58412478e+02
256             	3.58423437e+02
257             	3.58433573e+02
258             	3.58442762e+02
259             	3.58450653e+02
260             	3.58457888e+02
261             	3.58464969e+02
262             	3.58472479e+02
263             	3.58480154e+02
264             	3.58487810e+02
265             	3.58495405e+02
266             	3.58502579e+02
267             	3.58509983e+02
268             	3.58517562e+02
269             	3.58525227e+02
270             	3.58532834e+02
271             	3.58540533e+02
272             	3.58548533e+02
273             	3.58556747e+02
274             	3.58565026e+02
275             	3.58573236e+02
276             	3.58581261e+02
277             	3.58589001e+02
278             	3.58596456e+02
279             	3.58603710e+02
280             	3.58610747e+02
281             	3.58617398e+02
282             	3.58624033e+02
283             	3.58630753e+02
284             	3.58637597e+02
285             	3.58644646e+02
286             	3.58651900e+02
287             	3.58659308e+02
288             	3.58667010e+02
289             	3.58674982e+02
290             	3.58683149e+02
291             	3.58691651e+02
292             	3.58700589e+02
293             	3.58710011e+02
294             	3.58719604e+02
295             	3.58729409e+02
296             	3.58739197e+02
297             	3.58748813e+02
298             	3.58758204e+02
299             	3.58767399e+02
300             	3.58776481e+02
301             	3.58785312e+02
302             	3.58793767e+02
303             	3.58801977e+02
304             	3.58809918e+02
305             	3.58817427e+02
306             	3.58824443e+02
307             	3.58831071e+02
308             	3.58837497e+02
309             	3.58843617e+02
310             	3.58849543e+02
311             	3.58855539e+02
312             	3.58861767e+02
313             	3.58868042e+02
314             	3.58874374e+02
315             	3.58880774e+02
316             	3.58887292e+02
317             	3.58893726e+02
318             	3.58899910e+02
319             	3.58905773e+02
320             	3.58911340e+02
321             	3.58916531e+02
322             	3.58921292e+02
323             	3.58925655e+02
324             	3.58929645e+02
325             	3.58933145e+02
326             	3.58936228e+02
327             	3.58938924e+02
328             	3.58941335e+02
329             	3.58943330e+02
330             	3.58944910e+02
331             	3.58946093e+02
332             	3.58946989e+02
333             	3.58947643e+02
334             	3.58948201e+02
335             	3.58948641e+02
336             	3.58948998e+02
337             	3.58949452e+02
338             	3.58950012e+02
339             	3.58950666e+02
340             	3.58951530e+02
341             	3.58952555e+02
342             	3.58953754e+02
343             	3.58955240e+02
344             	3.58957005e+02
345             	3.58959038e+02
346             	3.58961411e+02
347             	3.58964139e+02
348             	3.58967125e+02
349             	3.58970304e+02
350             	3.58973758e+02
351             	3.58977514e+02
352             	3.58981445e+02
353             	3.58985425e+02
354             	3.58989517e+02
355             	3.58993703e+02
356             	3.58997940e+02
357             	3.59002130e+02
358             	3.59006321e+02
359             	3.59010666e+02
360             	3.59014939e+02
361             	3.59019191e+02
362             	3.59023377e+02
363             	3.59027667e+02
364             	3.59031979e+02
365             	3.59036239e+02
366             	3.59040462e+02
367             	3.59044614e+02
368             	3.59048608e+02
369             	3.59052267e+02
370             	3.59055537e+02
371             	3.59058518e+02
372             	3.59061293e+02
373             	3.59063931e+02
374             	3.59066371e+02
375             	3.59068612e+02
376             	3.59070741e+02
377             	3.59072829e+02
378             	3.59074759e+02
379             	3.59076484e+02
380             	3.59078042e+02
381             	3.59079520e+02
382             	3.59080860e+02
383             	3.59082020e+02
384             	3.59083087e+02
385             	3.59084158e+02
386             	3.59085131e+02
387             	3.59085955e+02
388             	3.59086754e+02
389             	3.59087537e+02
390             	3.59088155e+02
391             	3.59088535e+02
392             	3.59088817e+02
393             	3.59089107e+02
394             	3.59089375e+02
395             	3.59089556e+02
396             	3.59089725e+02
397             	3.59089997e+02
398             	3.59090337e+02
399             	3.59090724e+02
400             	3.59091232e+02
401             	3.59091886e+02
402             	3.59092576e+02
403             	3.59093252e+02
404             	3.59094028e+02
405             	3.59094860e+02
406             	3.59095622e+02
407             	3.59096267e+02
408             	3.59096954e+02
409             	3.59097836e+02
410             	3.59098815e+02
411             	3.59099859e+02
412             	3.59101140e+02
413             	3.59102599e+02
414             	3.59104241e+02
415             	3.59105900e+02
416             	3.59107653e+02
417             	3.59109537e+02
418             	3.59111413e+02
419             	3.59113199e+02
420             	3.59114963e+02
421             	3.59116715e+02
422             	3.59118351e+02
423             	3.59119849e+02
424             	3.59121274e+02
425             	3.59122732e+02
426             	3.59124132e+02
427             	3.59125436e+02
428             	3.59126767e+02
429             	3.59128154e+02
430             	3.59129590e+02
431             	3.59130983e+02
432             	3.59132421e+02
433             	3.59133933e+02
434             	3.59135473e+02
435             	3.59136982e+02
436             	3.59138385e+02
437             	3.59139782e+02
438             	3.59141011e+02
439             	3.59142069e+02
440             	3.59143002e+02
441             	3.59143857e+02
442             	3.59144539e+02
443             	3.59145024e+02
444             	3.59145404e+02
445             	3.59145741e+02
446             	3.59145963e+02
447             	3.59146042e+02
448             	3.59146062e+02
449             	3.59146108e+02
450             	3.59146084e+02
451             	3.59145976e+02
452             	3.59145866e+02
453             	3.59145820e+02
454             	3.59145753e+02
455             	3.59145584e+02
456             	3.59145399e+02
457             	3.59145260e+02
458             	3.59145090e+02
459             	3.59144867e+02
460             	3.59144648e+02
461             	3.59144470e+02
462             	3.59144259e+02
463             	3.59143980e+02
464             	3.59143710e+02
465             	3.59143519e+02
466             	3.59143319e+02
467             	3.59143064e+02
468             	3.59142854e+02
469             	3.59142728e+02
470             	3.59142628e+02
471             	3.59142520e+02
472             	3.59142509e+02
473             	3.59142667e+02
474             	3.59142890e+02
475             	3.59143227e+02
476             	3.59143696e+02
477             	3.59144359e+02
478             	3.59145077e+02
479             	3.59145831e+02
480             	3.59146709e+02
481             	3.59147758e+02
482             	3.59148861e+02
483             	3.59149970e+02
484             	3.59151124e+02
485             	3.59152361e+02
486             	3.59153564e+02
487             	3.59154678e+02
488             	3.59155761e+02
489             	3.59156859e+02
490             	3.59157894e+02
491             	3.59158832e+02
492             	3.59159765e+02
493             	3.59160712e+02
494             	3.59161601e+02
495             	3.59162355e+02
496             	3.59163060e+02
497             	3.59163764e+02
498             	3.59164329e+02
499             	3.59164780e+02
500             	3.59165157e+02
501             	3.59165545e+02
502             	3.59165829e+02
503             	3.59165964e+02
504             	3.59166028e+02
505             	3.59166094e+02
506             	3.59166095e+02
507             	3.59166011e+02
508             	3.59165936e+02
509             	3.59165926e+02
510             	3.59165908e+02
511             	3.59165844e+02
512             	3.59165792e+02
513             	3.59165808e+02
514             	3.59165805e+02
515             	3.59165727e+02
516             	3.59165633e+02
517             	3.59165582e+02
518             	3.59165474e+02
519             	3.59165287e+02
520             	3.59165076e+02
521             	3.59164888e+02
522             	3.59164642e+02
523             	3.59164319e+02
524             	3.59164004e+02
525             	3.59163758e+02
526             	3.59163512e+02
527             	3.59163238e+02
528             	3.59163016e+02
529             	3.59162830e+02
530             	3.59162638e+02
531             	3.59162398e+02
532             	3.59162228e+02
533             	3.59162182e+02
534             	3.59162158e+02
535             	3.59162138e+02
536             	3.59162233e+02
537             	3.59162467e+02
538             	3.59162756e+02
539             	3.59163112e+02
540             	3.59163548e+02
541             	3.59164145e+02
542             	3.59164732e+02
543             	3.59165241e+02
544             	3.59165784e+02
545             	3.59166404e+02
546             	3.59167018e+02
547             	3.59167562e+02
548             	3.59168077e+02
549             	3.59168605e+02
550             	3.59169055e+02
551             	3.59169390e+02
552             	3.59169700e+02
553             	3.59170055e+02
554             	3.59170415e+02
555             	3.59170757e+02
556             	3.59171130e+02
557             	3.59171583e+02
558             	3.59171968e+02
559             	3.59172280e+02
560             	3.59172549e+02
561             	3.59172893e+02
562             	3.59173085e+02
563             	3.59173199e+02
564             	3.59173250e+02
565             	3.59173360e+02
566             	3.59173404e+02
567             	3.59173360e+02
568             	3.59173262e+02
569             	3.59173211e+02
570             	3.59173104e+02
571             	3.59172923e+02
572             	3.59172756e+02
573             	3.59172664e+02
574             	3.59172550e+02
575             	3.59172359e+02
576             	3.59172102e+02
577             	3.59171884e+02
578             	3.59171592e+02
579             	3.59171239e+02
580             	3.59170878e+02
581             	3.59170551e+02
582             	3.59170174e+02
583             	3.59169732e+02
584             	3.59169297e+02
585             	3.59168953e+02
586             	3.59168624e+02
587             	3.59168285e+02
588             	3.59168014e+02
589             	3.59167879e+02
590             	3.59167798e+02
591             	3.59167777e+02
592             	3.59167857e+02
593             	3.59168091e+02
594             	3.59168347e+02
595             	3.59168611e+02
596             	3.59168939e+02
597             	3.59169354e+02
598             	3.59169735e+02
599             	3.59170018e+02
600             	3.59170270e+02
601             	3.59170548e+02
602             	3.59170741e+02
603             	3.59170828e+02
604             	3.59170873e+02
605             	3.59170966e+02
606             	3.59171035e+02
607             	3.59171052e+02
608             	3.59171098e+02
609             	3.59171285e+02
610             	3.59171480e+02
611             	3.59171659e+02
612             	3.59171883e+02
613             	3.59172215e+02
614             	3.59172577e+02
615             	3.59172930e+02
616             	3.59173343e+02
617             	3.59173852e+02
618             	3.59174349e+02
619             	3.59174768e+02
620             	3.59175186e+02
621             	3.59175644e+02
