# Region        : cellZone component_3
# Cells         : 60
# Volume        : 1.18074020e-01
# Time          	volAverage(T)
1               	3.03889410e+02
2               	3.07626883e+02
3               	3.09861053e+02
4               	3.11165582e+02
5               	3.12763695e+02
6               	3.14860141e+02
7               	3.16900867e+02
8               	3.18318863e+02
9               	3.19434469e+02
10              	3.20850478e+02
11              	3.22189784e+02
12              	3.23203119e+02
13              	3.23794735e+02
14              	3.24310169e+02
15              	3.24902785e+02
16              	3.25630142e+02
17              	3.26319796e+02
18              	3.26617106e+02
19              	3.26826918e+02
20              	3.27099838e+02
21              	3.27585829e+02
22              	3.27988236e+02
23              	3.28088946e+02
24              	3.28264229e+02
25              	3.28779193e+02
26              	3.29301280e+02
27              	3.29108106e+02
28              	3.28774055e+02
29              	3.28654828e+02
30              	3.29119159e+02
31              	3.29564094e+02
32              	3.29334645e+02
33              	3.28939384e+02
34              	3.29204014e+02
35              	3.29892085e+02
36              	3.30223589e+02
37              	3.29266803e+02
38              	3.28327383e+02
39              	3.29098669e+02
40              	3.30383888e+02
41              	3.29873215e+02
42              	3.27914462e+02
43              	3.27399863e+02
44              	3.29707032e+02
45              	3.31094704e+02
46              	3.28544039e+02
47              	3.25917108e+02
48              	3.28013968e+02
49              	3.32511447e+02
50              	3.32140912e+02
51              	3.26357049e+02
52              	3.24479678e+02
53              	3.30443840e+02
54              	3.35360932e+02
55              	3.30805204e+02
56              	3.23810928e+02
57              	3.25587369e+02
58              	3.34087140e+02
59              	3.35632575e+02
60              	3.27698686e+02
61              	3.22653634e+02
62              	3.27905740e+02
63              	3.35775385e+02
64              	3.35022307e+02
65              	3.27577711e+02
66              	3.25175001e+02
67              	3.31356007e+02
68              	3.36813865e+02
69              	3.32950836e+02
70              	3.26812619e+02
71              	3.27416084e+02
72              	3.34082801e+02
73              	3.37454188e+02
74              	3.32187321e+02
75              	3.27358728e+02
76              	3.29902836e+02
77              	3.36149258e+02
78              	3.36483137e+02
79              	3.30912099e+02
80              	3.28223383e+02
81              	3.32611191e+02
82              	3.37769687e+02
83              	3.35213338e+02
84              	3.29886630e+02
85              	3.29540315e+02
86              	3.34615302e+02
87              	3.37685714e+02
88              	3.34091454e+02
89              	3.30323197e+02
90              	3.32170701e+02
91              	3.36706365e+02
92              	3.36948732e+02
93              	3.33190120e+02
94              	3.31476948e+02
95              	3.34712520e+02
96              	3.38447374e+02
97              	3.36791408e+02
98              	3.33096538e+02
99              	3.32646660e+02
100             	3.35975945e+02
101             	3.38125475e+02
102             	3.35661715e+02
103             	3.32935758e+02
104             	3.34068068e+02
105             	3.37593860e+02
106             	3.38214602e+02
107             	3.34914872e+02
108             	3.33025112e+02
109             	3.35902390e+02
110             	3.39471699e+02
111             	3.37324216e+02
112             	3.33195256e+02
113             	3.33110183e+02
114             	3.37415743e+02
115             	3.39898856e+02
116             	3.36386083e+02
117             	3.33041832e+02
118             	3.34891384e+02
119             	3.38959920e+02
120             	3.38567945e+02
121             	3.34697632e+02
122             	3.33088965e+02
123             	3.36451998e+02
124             	3.40006060e+02
125             	3.37959861e+02
126             	3.34083461e+02
127             	3.33879228e+02
128             	3.37646219e+02
129             	3.39886454e+02
130             	3.37147468e+02
131             	3.34224502e+02
132             	3.35469891e+02
133             	3.39067442e+02
134             	3.39396829e+02
135             	3.36011485e+02
136             	3.34259761e+02
137             	3.37105075e+02
138             	3.40379791e+02
139             	3.38577821e+02
140             	3.34890960e+02
141             	3.34487501e+02
142             	3.37989596e+02
143             	3.40118807e+02
144             	3.37360632e+02
145             	3.34321713e+02
146             	3.35522623e+02
147             	3.39284213e+02
148             	3.39677615e+02
149             	3.36061885e+02
150             	3.34097916e+02
151             	3.37122886e+02
152             	3.40718075e+02
153             	3.38871099e+02
154             	3.34978745e+02
155             	3.34602475e+02
156             	3.38295769e+02
157             	3.40640998e+02
158             	3.37896543e+02
159             	3.34873109e+02
160             	3.35993675e+02
161             	3.39586359e+02
162             	3.40078651e+02
163             	3.36719249e+02
164             	3.34857921e+02
165             	3.37716358e+02
166             	3.41114689e+02
167             	3.39289776e+02
168             	3.35540935e+02
169             	3.35269274e+02
170             	3.38891002e+02
171             	3.41066649e+02
172             	3.38254437e+02
173             	3.35083428e+02
174             	3.36223562e+02
175             	3.39884244e+02
176             	3.40225614e+02
177             	3.36658351e+02
178             	3.34831489e+02
179             	3.37932717e+02
180             	3.41549701e+02
181             	3.39700800e+02
182             	3.35924813e+02
183             	3.35675411e+02
184             	3.39368679e+02
185             	3.41710744e+02
186             	3.39111339e+02
187             	3.36204239e+02
188             	3.37347816e+02
189             	3.40904860e+02
190             	3.41353932e+02
191             	3.37963102e+02
192             	3.36139634e+02
193             	3.38936129e+02
194             	3.42275268e+02
195             	3.40368904e+02
196             	3.36572410e+02
197             	3.36253739e+02
198             	3.39890423e+02
199             	3.42104318e+02
200             	3.39351694e+02
201             	3.36313963e+02
202             	3.37429604e+02
203             	3.40967603e+02
204             	3.41360407e+02
205             	3.37985985e+02
206             	3.36161929e+02
207             	3.39028652e+02
208             	3.42305989e+02
209             	3.40605889e+02
210             	3.37043104e+02
211             	3.36738400e+02
212             	3.40257821e+02
213             	3.42428675e+02
214             	3.39801122e+02
215             	3.36880481e+02
216             	3.37962062e+02
217             	3.41459677e+02
218             	3.41902847e+02
219             	3.38494856e+02
220             	3.36652584e+02
221             	3.39468877e+02
222             	3.42811980e+02
223             	3.40929312e+02
224             	3.37160885e+02
225             	3.36787966e+02
226             	3.40320921e+02
227             	3.42470547e+02
228             	3.39706146e+02
229             	3.36623160e+02
230             	3.37660526e+02
231             	3.41208872e+02
232             	3.41681086e+02
233             	3.38282414e+02
234             	3.36446311e+02
235             	3.39250312e+02
236             	3.42595709e+02
237             	3.40944798e+02
238             	3.37370192e+02
239             	3.37015658e+02
240             	3.40486464e+02
241             	3.42717820e+02
242             	3.40079558e+02
243             	3.37112155e+02
244             	3.38172889e+02
245             	3.41699401e+02
246             	3.42165709e+02
247             	3.38758033e+02
248             	3.36942037e+02
249             	3.39798536e+02
250             	3.43099672e+02
251             	3.41403236e+02
252             	3.37750864e+02
253             	3.37344157e+02
254             	3.40713801e+02
255             	3.42867129e+02
256             	3.40260180e+02
257             	3.37166790e+02
258             	3.38010469e+02
259             	3.41331703e+02
260             	3.41824158e+02
261             	3.38471321e+02
262             	3.36434062e+02
263             	3.38934375e+02
264             	3.42182202e+02
265             	3.40690122e+02
266             	3.37101007e+02
267             	3.36516341e+02
268             	3.39788432e+02
269             	3.42047286e+02
270             	3.39508906e+02
271             	3.36418532e+02
272             	3.37080612e+02
273             	3.40413643e+02
274             	3.41084812e+02
275             	3.37857620e+02
276             	3.35816647e+02
277             	3.38276257e+02
278             	3.41643937e+02
279             	3.40309997e+02
280             	3.36712445e+02
281             	3.36078665e+02
282             	3.39442845e+02
283             	3.41897760e+02
284             	3.39433276e+02
285             	3.36258510e+02
286             	3.36944737e+02
287             	3.40448596e+02
288             	3.41344490e+02
289             	3.38093899e+02
290             	3.35896034e+02
291             	3.38261249e+02
292             	3.41657962e+02
293             	3.40358804e+02
294             	3.36692758e+02
295             	3.35906586e+02
296             	3.39378389e+02
297             	3.42045516e+02
298             	3.39496061e+02
299             	3.36145745e+02
300             	3.36742594e+02
301             	3.40311196e+02
302             	3.41363923e+02
303             	3.38246462e+02
304             	3.36050248e+02
305             	3.38306720e+02
306             	3.41741150e+02
307             	3.40817685e+02
308             	3.37360207e+02
309             	3.36529789e+02
310             	3.39848641e+02
311             	3.42574479e+02
312             	3.40224593e+02
313             	3.36921345e+02
314             	3.37450049e+02
315             	3.41041805e+02
316             	3.42264436e+02
317             	3.39151313e+02
318             	3.36848273e+02
319             	3.38951493e+02
320             	3.42404702e+02
321             	3.41634828e+02
322             	3.38132728e+02
323             	3.37079565e+02
324             	3.40291892e+02
325             	3.43087242e+02
326             	3.40826887e+02
327             	3.37384839e+02
328             	3.37648466e+02
329             	3.41242691e+02
330             	3.42716136e+02
331             	3.39608701e+02
332             	3.37027798e+02
333             	3.38896582e+02
334             	3.42427168e+02
335             	3.41841159e+02
336             	3.38236986e+02
337             	3.36941223e+02
338             	3.40118941e+02
339             	3.43219660e+02
340             	3.41147908e+02
341             	3.37603737e+02
342             	3.37616544e+02
343             	3.41150581e+02
344             	3.43016260e+02
345             	3.40443242e+02
346             	3.37851322e+02
347             	3.39130309e+02
348             	3.42490931e+02
349             	3.42764646e+02
350             	3.39594959e+02
351             	3.38031765e+02
352             	3.40823432e+02
353             	3.43987553e+02
354             	3.42298435e+02
355             	3.38769509e+02
356             	3.38421927e+02
357             	3.41792544e+02
358             	3.43880203e+02
359             	3.41255101e+02
360             	3.38268464e+02
361             	3.39204224e+02
362             	3.42597093e+02
363             	3.43023194e+02
364             	3.39611460e+02
365             	3.37716199e+02
366             	3.40395746e+02
367             	3.43612668e+02
368             	3.41933376e+02
369             	3.38348601e+02
370             	3.37953370e+02
371             	3.41278837e+02
372             	3.43401446e+02
373             	3.40973919e+02
374             	3.38088837e+02
375             	3.38940104e+02
376             	3.42284728e+02
377             	3.42928171e+02
378             	3.39809785e+02
379             	3.37870932e+02
380             	3.40220383e+02
381             	3.43440776e+02
382             	3.42187563e+02
383             	3.38670926e+02
384             	3.37970670e+02
385             	3.41278135e+02
386             	3.43766493e+02
387             	3.41362385e+02
388             	3.38194119e+02
389             	3.38815217e+02
390             	3.42294706e+02
391             	3.43349965e+02
392             	3.40385196e+02
393             	3.38258166e+02
394             	3.40332776e+02
395             	3.43649650e+02
396             	3.42915794e+02
397             	3.39564821e+02
398             	3.38618782e+02
399             	3.41768739e+02
400             	3.44506956e+02
401             	3.42392331e+02
402             	3.39099582e+02
403             	3.39327879e+02
404             	3.42738449e+02
405             	3.44119944e+02
406             	3.41127214e+02
407             	3.38573230e+02
408             	3.40252049e+02
409             	3.43606511e+02
410             	3.43098935e+02
411             	3.39557176e+02
412             	3.38170290e+02
413             	3.41209600e+02
414             	3.44291882e+02
415             	3.42281315e+02
416             	3.38704776e+02
417             	3.38583650e+02
418             	3.42031806e+02
419             	3.43921981e+02
420             	3.41307632e+02
421             	3.38589959e+02
422             	3.39780699e+02
423             	3.43111300e+02
424             	3.43349525e+02
425             	3.40049299e+02
426             	3.38376539e+02
427             	3.41177887e+02
428             	3.44385997e+02
429             	3.42641713e+02
430             	3.39062154e+02
431             	3.38753651e+02
432             	3.42184636e+02
433             	3.44298009e+02
434             	3.41708862e+02
435             	3.38795718e+02
436             	3.39801322e+02
437             	3.43219121e+02
438             	3.43715872e+02
439             	3.40481319e+02
440             	3.38671652e+02
441             	3.41294495e+02
442             	3.44531623e+02
443             	3.43005234e+02
444             	3.39436685e+02
445             	3.38904694e+02
446             	3.42222564e+02
447             	3.44459267e+02
448             	3.41946918e+02
449             	3.38900509e+02
450             	3.39682093e+02
451             	3.43072672e+02
452             	3.43778150e+02
453             	3.40614795e+02
454             	3.38616049e+02
455             	3.40962738e+02
456             	3.44221403e+02
457             	3.43049820e+02
458             	3.39582354e+02
459             	3.38860239e+02
460             	3.42091312e+02
461             	3.44574059e+02
462             	3.42284100e+02
463             	3.39149995e+02
464             	3.39682955e+02
465             	3.43090922e+02
466             	3.44165412e+02
467             	3.41189628e+02
468             	3.38977399e+02
469             	3.40972594e+02
470             	3.44278410e+02
471             	3.43520412e+02
472             	3.40073858e+02
473             	3.39019656e+02
474             	3.42140608e+02
475             	3.44923132e+02
476             	3.42830413e+02
477             	3.39513924e+02
478             	3.39704199e+02
479             	3.43110949e+02
480             	3.44580996e+02
481             	3.41770378e+02
482             	3.39273356e+02
483             	3.40807931e+02
484             	3.44095105e+02
485             	3.43826913e+02
486             	3.40433012e+02
487             	3.38970290e+02
488             	3.41923604e+02
489             	3.45068135e+02
490             	3.43141308e+02
491             	3.39507872e+02
492             	3.39252763e+02
493             	3.42682767e+02
494             	3.44704081e+02
495             	3.42127326e+02
496             	3.39286082e+02
497             	3.40302939e+02
498             	3.43648574e+02
499             	3.44096005e+02
500             	3.40889925e+02
501             	3.39096827e+02
502             	3.41673123e+02
503             	3.44865384e+02
504             	3.43350956e+02
505             	3.39795670e+02
506             	3.39274736e+02
507             	3.42605621e+02
508             	3.44872947e+02
509             	3.42407251e+02
510             	3.39378651e+02
511             	3.40144603e+02
512             	3.43539690e+02
513             	3.44304407e+02
514             	3.41203824e+02
515             	3.39213674e+02
516             	3.41507434e+02
517             	3.44741320e+02
518             	3.43634408e+02
519             	3.40186626e+02
520             	3.39415381e+02
521             	3.42601687e+02
522             	3.45097703e+02
523             	3.42865299e+02
524             	3.39723863e+02
525             	3.40169802e+02
526             	3.43521175e+02
527             	3.44623168e+02
528             	3.41647907e+02
529             	3.39364498e+02
530             	3.41246035e+02
531             	3.44506701e+02
532             	3.43796562e+02
533             	3.40335288e+02
534             	3.39194856e+02
535             	3.42284403e+02
536             	3.45127102e+02
537             	3.43017951e+02
538             	3.39597609e+02
539             	3.39686402e+02
540             	3.43076003e+02
541             	3.44643850e+02
542             	3.41896068e+02
543             	3.39361563e+02
544             	3.40805441e+02
545             	3.44107590e+02
546             	3.44014796e+02
547             	3.40683908e+02
548             	3.39185280e+02
549             	3.42096921e+02
550             	3.45261281e+02
551             	3.43403243e+02
552             	3.39791411e+02
553             	3.39506854e+02
554             	3.42931198e+02
555             	3.44979512e+02
556             	3.42372820e+02
557             	3.39486371e+02
558             	3.40503324e+02
559             	3.43881707e+02
560             	3.44317241e+02
561             	3.41053872e+02
562             	3.39249315e+02
563             	3.41871741e+02
564             	3.45075738e+02
565             	3.43536904e+02
566             	3.40003648e+02
567             	3.39511352e+02
568             	3.42809147e+02
569             	3.45022798e+02
570             	3.42595628e+02
571             	3.39630783e+02
572             	3.40407284e+02
573             	3.43752325e+02
574             	3.44463900e+02
575             	3.41350364e+02
576             	3.39366205e+02
577             	3.41673492e+02
578             	3.44889110e+02
579             	3.43703219e+02
580             	3.40203905e+02
581             	3.39439763e+02
582             	3.42652579e+02
583             	3.45130187e+02
584             	3.42833073e+02
585             	3.39668789e+02
586             	3.40149341e+02
587             	3.43522204e+02
588             	3.44608266e+02
589             	3.41649475e+02
590             	3.39416808e+02
591             	3.41337952e+02
592             	3.44594036e+02
593             	3.43888248e+02
594             	3.40464082e+02
595             	3.39363295e+02
596             	3.42436575e+02
597             	3.45235435e+02
598             	3.43158720e+02
599             	3.39796343e+02
600             	3.39913146e+02
601             	3.43293787e+02
602             	3.44812991e+02
603             	3.42027997e+02
604             	3.39502457e+02
605             	3.40983208e+02
606             	3.44283366e+02
607             	3.44131454e+02
608             	3.40778573e+02
609             	3.39292243e+02
610             	3.42208465e+02
611             	3.45355846e+02
612             	3.43508805e+02
613             	3.39924651e+02
614             	3.39636506e+02
615             	3.43017429e+02
616             	3.45037604e+02
617             	3.42462963e+02
618             	3.39598389e+02
619             	3.40589786e+02
620             	3.43937651e+02
621             	3.44379960e+02
