# Region        : cellZone pcb
# Cells         : 486
# Volume        : 8.84589849e-01
# Time          	volAverage(T)
1               	3.00013042e+02
2               	3.00037823e+02
3               	3.00071959e+02
4               	3.00114358e+02
5               	3.00163547e+02
6               	3.00219480e+02
7               	3.00281254e+02
8               	3.00348552e+02
9               	3.00421287e+02
10              	3.00499256e+02
11              	3.00581953e+02
12              	3.00668640e+02
13              	3.00759143e+02
14              	3.00852806e+02
15              	3.00949336e+02
16              	3.01049031e+02
17              	3.01151177e+02
18              	3.01255200e+02
19              	3.01361547e+02
20              	3.01470079e+02
21              	3.01579822e+02
22              	3.01691271e+02
23              	3.01804292e+02
24              	3.01919205e+02
25              	3.02033743e+02
26              	3.02149249e+02
27              	3.02265521e+02
28              	3.02381440e+02
29              	3.02498398e+02
30              	3.02616096e+02
31              	3.02733471e+02
32              	3.02850791e+02
33              	3.02968040e+02
34              	3.03086322e+02
35              	3.03203840e+02
36              	3.03320566e+02
37              	3.03437776e+02
38              	3.03552914e+02
39              	3.03667947e+02
40              	3.03781850e+02
41              	3.03893965e+02
42              	3.04005074e+02
43              	3.04116087e+02
44              	3.04226908e+02
45              	3.04335533e+02
46              	3.04443971e+02
47              	3.04551542e+02
48              	3.04659456e+02
49              	3.04765735e+02
50              	3.04869790e+02
51              	3.04973343e+02
52              	3.05076925e+02
53              	3.05177491e+02
54              	3.05275719e+02
55              	3.05371776e+02
56              	3.05467609e+02
57              	3.05563058e+02
58              	3.05655723e+02
59              	3.05744093e+02
60              	3.05829323e+02
61              	3.05912888e+02
62              	3.05995838e+02
63              	3.06077064e+02
64              	3.06156682e+02
65              	3.06235992e+02
66              	3.06314686e+02
67              	3.06390934e+02
68              	3.06466852e+02
69              	3.06544340e+02
70              	3.06621863e+02
71              	3.06694369e+02
72              	3.06764987e+02
73              	3.06834749e+02
74              	3.06905403e+02
75              	3.06973196e+02
76              	3.07037995e+02
77              	3.07101788e+02
78              	3.07164162e+02
79              	3.07226973e+02
80              	3.07288174e+02
81              	3.07347490e+02
82              	3.07406477e+02
83              	3.07467027e+02
84              	3.07527054e+02
85              	3.07582943e+02
86              	3.07637415e+02
87              	3.07691307e+02
88              	3.07744679e+02
89              	3.07798709e+02
90              	3.07851351e+02
91              	3.07903548e+02
92              	3.07954535e+02
93              	3.08004032e+02
94              	3.08052247e+02
95              	3.08101596e+02
96              	3.08149905e+02
97              	3.08198562e+02
98              	3.08246618e+02
99              	3.08292473e+02
100             	3.08336620e+02
101             	3.08379485e+02
102             	3.08423957e+02
103             	3.08469667e+02
104             	3.08512341e+02
105             	3.08553790e+02
106             	3.08594798e+02
107             	3.08634358e+02
108             	3.08672650e+02
109             	3.08709653e+02
110             	3.08746527e+02
111             	3.08782632e+02
112             	3.08818419e+02
113             	3.08853814e+02
114             	3.08889685e+02
115             	3.08926690e+02
116             	3.08960346e+02
117             	3.08995394e+02
118             	3.09028670e+02
119             	3.09062457e+02
120             	3.09094012e+02
121             	3.09124434e+02
122             	3.09154543e+02
123             	3.09184521e+02
124             	3.09214118e+02
125             	3.09242261e+02
126             	3.09270062e+02
127             	3.09297537e+02
128             	3.09325464e+02
129             	3.09352552e+02
130             	3.09380783e+02
131             	3.09407285e+02
132             	3.09434218e+02
133             	3.09460026e+02
134             	3.09485130e+02
135             	3.09510122e+02
136             	3.09535321e+02
137             	3.09560228e+02
138             	3.09584726e+02
139             	3.09608751e+02
140             	3.09631113e+02
141             	3.09652357e+02
142             	3.09672861e+02
143             	3.09691153e+02
144             	3.09709382e+02
145             	3.09727147e+02
146             	3.09745385e+02
147             	3.09763487e+02
148             	3.09782029e+02
149             	3.09802104e+02
150             	3.09822368e+02
151             	3.09843657e+02
152             	3.09865229e+02
153             	3.09886413e+02
154             	3.09907047e+02
155             	3.09926535e+02
156             	3.09946120e+02
157             	3.09964785e+02
158             	3.09983125e+02
159             	3.10001344e+02
160             	3.10020394e+02
161             	3.10038529e+02
162             	3.10055584e+02
163             	3.10073265e+02
164             	3.10090386e+02
165             	3.10106937e+02
166             	3.10122878e+02
167             	3.10137954e+02
168             	3.10153568e+02
169             	3.10169207e+02
170             	3.10185577e+02
171             	3.10202791e+02
172             	3.10221123e+02
173             	3.10237562e+02
174             	3.10253376e+02
175             	3.10267878e+02
176             	3.10282886e+02
177             	3.10296647e+02
178             	3.10310506e+02
179             	3.10323322e+02
180             	3.10336792e+02
181             	3.10351149e+02
182             	3.10365541e+02
183             	3.10380433e+02
184             	3.10396092e+02
185             	3.10409279e+02
186             	3.10422168e+02
187             	3.10433908e+02
188             	3.10444517e+02
189             	3.10456016e+02
190             	3.10467276e+02
191             	3.10478597e+02
192             	3.10489698e+02
193             	3.10501568e+02
194             	3.10513225e+02
195             	3.10524491e+02
196             	3.10535519e+02
197             	3.10546159e+02
198             	3.10556137e+02
199             	3.10565532e+02
200             	3.10574224e+02
201             	3.10582195e+02
202             	3.10590290e+02
203             	3.10598703e+02
204             	3.10607039e+02
205             	3.10615486e+02
206             	3.10624264e+02
207             	3.10633507e+02
208             	3.10643239e+02
209             	3.10652989e+02
210             	3.10662519e+02
211             	3.10671697e+02
212             	3.10681224e+02
213             	3.10690696e+02
214             	3.10699784e+02
215             	3.10708449e+02
216             	3.10717104e+02
217             	3.10725772e+02
218             	3.10734481e+02
219             	3.10741703e+02
220             	3.10748838e+02
221             	3.10755799e+02
222             	3.10763017e+02
223             	3.10770509e+02
224             	3.10778452e+02
225             	3.10786772e+02
226             	3.10794541e+02
227             	3.10802483e+02
228             	3.10810585e+02
229             	3.10818519e+02
230             	3.10826092e+02
231             	3.10833346e+02
232             	3.10840593e+02
233             	3.10848020e+02
234             	3.10854652e+02
235             	3.10860906e+02
236             	3.10867096e+02
237             	3.10873083e+02
238             	3.10878941e+02
239             	3.10884905e+02
240             	3.10891049e+02
241             	3.10897488e+02
242             	3.10904021e+02
243             	3.10910285e+02
244             	3.10916924e+02
245             	3.10923446e+02
246             	3.10929902e+02
247             	3.10936155e+02
248             	3.10942189e+02
249             	3.10947957e+02
250             	3.10953494e+02
251             	3.10959183e+02
252             	3.10964688e+02
253             	3.10970013e+02
254             	3.10975306e+02
255             	3.10980694e+02
256             	3.10986144e+02
257             	3.10991375e+02
258             	3.10996509e+02
259             	3.11001528e+02
260             	3.11006507e+02
261             	3.11011382e+02
262             	3.11016221e+02
263             	3.11021044e+02
264             	3.11025960e+02
265             	3.11030940e+02
266             	3.11036003e+02
267             	3.11041075e+02
268             	3.11046034e+02
269             	3.11050909e+02
270             	3.11055255e+02
271             	3.11059126e+02
272             	3.11062746e+02
273             	3.11066167e+02
274             	3.11069391e+02
275             	3.11072535e+02
276             	3.11075681e+02
277             	3.11078862e+02
278             	3.11082208e+02
279             	3.11085622e+02
280             	3.11089083e+02
281             	3.11092595e+02
282             	3.11096099e+02
283             	3.11099598e+02
284             	3.11103068e+02
285             	3.11106523e+02
286             	3.11109973e+02
287             	3.11113491e+02
288             	3.11117154e+02
289             	3.11121019e+02
290             	3.11124969e+02
291             	3.11128693e+02
292             	3.11132138e+02
293             	3.11135342e+02
294             	3.11138252e+02
295             	3.11141059e+02
296             	3.11143772e+02
297             	3.11146328e+02
298             	3.11148736e+02
299             	3.11151083e+02
300             	3.11153426e+02
301             	3.11155789e+02
302             	3.11158314e+02
303             	3.11160796e+02
304             	3.11163206e+02
305             	3.11165637e+02
306             	3.11168049e+02
307             	3.11170396e+02
308             	3.11172752e+02
309             	3.11175126e+02
310             	3.11177542e+02
311             	3.11180010e+02
312             	3.11182598e+02
313             	3.11185340e+02
314             	3.11188188e+02
315             	3.11190951e+02
316             	3.11193507e+02
317             	3.11195902e+02
318             	3.11198157e+02
319             	3.11200176e+02
320             	3.11202166e+02
321             	3.11204113e+02
322             	3.11206026e+02
323             	3.11207914e+02
324             	3.11209770e+02
325             	3.11211604e+02
326             	3.11213366e+02
327             	3.11214971e+02
328             	3.11216484e+02
329             	3.11217965e+02
330             	3.11219490e+02
331             	3.11220986e+02
332             	3.11222492e+02
333             	3.11224098e+02
334             	3.11225762e+02
335             	3.11227520e+02
336             	3.11229321e+02
337             	3.11231152e+02
338             	3.11232968e+02
339             	3.11234768e+02
340             	3.11236552e+02
341             	3.11238318e+02
342             	3.11239832e+02
343             	3.11241419e+02
344             	3.11242980e+02
345             	3.11244447e+02
346             	3.11245816e+02
347             	3.11247129e+02
348             	3.11248423e+02
349             	3.11249796e+02
350             	3.11251344e+02
351             	3.11252572e+02
352             	3.11253726e+02
353             	3.11254903e+02
354             	3.11256116e+02
355             	3.11257344e+02
356             	3.11258530e+02
357             	3.11259639e+02
358             	3.11260898e+02
359             	3.11261985e+02
360             	3.11263179e+02
361             	3.11264374e+02
362             	3.11265579e+02
363             	3.11267044e+02
364             	3.11268045e+02
365             	3.11268829e+02
366             	3.11269594e+02
367             	3.11270380e+02
368             	3.11271170e+02
369             	3.11271971e+02
370             	3.11272823e+02
371             	3.11273734e+02
372             	3.11274661e+02
373             	3.11275641e+02
374             	3.11276643e+02
375             	3.11277772e+02
376             	3.11278920e+02
377             	3.11280034e+02
378             	3.11281059e+02
379             	3.11281996e+02
380             	3.11282795e+02
381             	3.11283505e+02
382             	3.11284132e+02
383             	3.11284715e+02
384             	3.11285246e+02
385             	3.11285752e+02
386             	3.11286254e+02
387             	3.11286768e+02
388             	3.11287349e+02
389             	3.11288000e+02
390             	3.11288626e+02
391             	3.11289257e+02
392             	3.11289927e+02
393             	3.11290629e+02
394             	3.11291361e+02
395             	3.11292053e+02
396             	3.11292838e+02
397             	3.11293588e+02
398             	3.11294331e+02
399             	3.11295027e+02
400             	3.11295730e+02
401             	3.11296338e+02
402             	3.11296956e+02
403             	3.11297580e+02
404             	3.11298207e+02
405             	3.11298788e+02
406             	3.11299307e+02
407             	3.11299792e+02
408             	3.11300277e+02
409             	3.11300743e+02
410             	3.11301155e+02
411             	3.11301563e+02
412             	3.11302002e+02
413             	3.11302475e+02
414             	3.11302979e+02
415             	3.11303520e+02
416             	3.11304109e+02
417             	3.11304734e+02
418             	3.11305356e+02
419             	3.11305959e+02
420             	3.11306536e+02
421             	3.11307075e+02
422             	3.11307558e+02
423             	3.11307977e+02
424             	3.11308364e+02
425             	3.11308721e+02
426             	3.11309051e+02
427             	3.11309387e+02
428             	3.11309751e+02
429             	3.11310171e+02
430             	3.11310610e+02
431             	3.11311037e+02
432             	3.11311428e+02
433             	3.11311782e+02
434             	3.11312098e+02
435             	3.11312388e+02
436             	3.11312628e+02
437             	3.11312858e+02
438             	3.11313094e+02
439             	3.11313352e+02
440             	3.11313651e+02
441             	3.11314018e+02
442             	3.11314440e+02
443             	3.11314888e+02
444             	3.11315316e+02
445             	3.11315719e+02
446             	3.11316094e+02
447             	3.11316425e+02
448             	3.11316732e+02
449             	3.11317030e+02
450             	3.11317323e+02
451             	3.11317625e+02
452             	3.11317928e+02
453             	3.11318211e+02
454             	3.11318525e+02
455             	3.11318807e+02
456             	3.11319078e+02
457             	3.11319328e+02
458             	3.11319549e+02
459             	3.11319751e+02
460             	3.11319903e+02
461             	3.11320066e+02
462             	3.11320212e+02
463             	3.11320360e+02
464             	3.11320513e+02
465             	3.11320681e+02
466             	3.11320862e+02
467             	3.11321057e+02
468             	3.11321265e+02
469             	3.11321482e+02
470             	3.11321710e+02
471             	3.11321943e+02
472             	3.11322182e+02
473             	3.11322448e+02
474             	3.11322679e+02
475             	3.11322900e+02
476             	3.11323108e+02
477             	3.11323311e+02
478             	3.11323509e+02
479             	3.11323710e+02
480             	3.11323914e+02
481             	3.11324077e+02
482             	3.11324270e+02
483             	3.11324459e+02
484             	3.11324616e+02
485             	3.11324750e+02
486             	3.11324868e+02
487             	3.11324963e+02
488             	3.11325045e+02
489             	3.11325125e+02
490             	3.11325211e+02
491             	3.11325311e+02
492             	3.11325437e+02
493             	3.11325546e+02
494             	3.11325668e+02
495             	3.11325805e+02
496             	3.11325956e+02
497             	3.11326100e+02
498             	3.11326214e+02
499             	3.11326385e+02
500             	3.11326566e+02
501             	3.11326751e+02
502             	3.11326915e+02
503             	3.11327067e+02
504             	3.11327190e+02
505             	3.11327329e+02
506             	3.11327413e+02
507             	3.11327481e+02
508             	3.11327540e+02
509             	3.11327604e+02
510             	3.11327673e+02
511             	3.11327753e+02
512             	3.11327845e+02
513             	3.11327949e+02
514             	3.11328066e+02
515             	3.11328191e+02
516             	3.11328319e+02
517             	3.11328446e+02
518             	3.11328568e+02
519             	3.11328684e+02
520             	3.11328792e+02
521             	3.11328899e+02
522             	3.11329000e+02
523             	3.11329099e+02
524             	3.11329194e+02
525             	3.11329285e+02
526             	3.11329363e+02
527             	3.11329436e+02
528             	3.11329503e+02
529             	3.11329561e+02
530             	3.11329611e+02
531             	3.11329652e+02
532             	3.11329692e+02
533             	3.11329727e+02
534             	3.11329768e+02
535             	3.11329823e+02
536             	3.11329872e+02
537             	3.11329927e+02
538             	3.11329985e+02
539             	3.11330050e+02
540             	3.11330120e+02
541             	3.11330197e+02
542             	3.11330277e+02
543             	3.11330361e+02
544             	3.11330445e+02
545             	3.11330530e+02
546             	3.11330607e+02
547             	3.11330683e+02
548             	3.11330760e+02
549             	3.11330827e+02
550             	3.11330891e+02
551             	3.11330950e+02
552             	3.11331003e+02
553             	3.11331049e+02
554             	3.11331090e+02
555             	3.11331128e+02
556             	3.11331162e+02
557             	3.11331195e+02
558             	3.11331230e+02
559             	3.11331262e+02
560             	3.11331296e+02
561             	3.11331341e+02
562             	3.11331382e+02
563             	3.11331423e+02
564             	3.11331469e+02
565             	3.11331519e+02
566             	3.11331569e+02
567             	3.11331619e+02
568             	3.11331678e+02
569             	3.11331739e+02
570             	3.11331797e+02
571             	3.11331850e+02
572             	3.11331899e+02
573             	3.11331942e+02
574             	3.11331980e+02
575             	3.11332013e+02
576             	3.11332042e+02
577             	3.11332069e+02
578             	3.11332095e+02
579             	3.11332120e+02
580             	3.11332146e+02
581             	3.11332170e+02
582             	3.11332194e+02
583             	3.11332218e+02
584             	3.11332243e+02
585             	3.11332270e+02
586             	3.11332299e+02
587             	3.11332331e+02
588             	3.11332364e+02
589             	3.11332398e+02
590             	3.11332433e+02
591             	3.11332468e+02
592             	3.11332503e+02
593             	3.11332535e+02
594             	3.11332562e+02
595             	3.11332587e+02
596             	3.11332613e+02
597             	3.11332638e+02
598             	3.11332661e+02
599             	3.11332683e+02
600             	3.11332704e+02
601             	3.11332722e+02
602             	3.11332744e+02
603             	3.11332762e+02
604             	3.11332779e+02
605             	3.11332797e+02
606             	3.11332815e+02
607             	3.11332836e+02
608             	3.11332858e+02
609             	3.11332882e+02
610             	3.11332907e+02
611             	3.11332933e+02
612             	3.11332958e+02
613             	3.11332985e+02
614             	3.11333010e+02
615             	3.11333035e+02
616             	3.11333056e+02
617             	3.11333078e+02
618             	3.11333099e+02
619             	3.11333118e+02
620             	3.11333136e+02
621             	3.11333152e+02
