# Region        : cellZone component_0
# Cells         : 46
# Volume        : 7.06235724e-02
# Time          	volAverage(T)
1               	3.01483284e+02
2               	3.02922064e+02
3               	3.04156532e+02
4               	3.05268771e+02
5               	3.06308070e+02
6               	3.07297425e+02
7               	3.08234224e+02
8               	3.09161453e+02
9               	3.10047222e+02
10              	3.10890854e+02
11              	3.11675152e+02
12              	3.12360261e+02
13              	3.12992849e+02
14              	3.13631037e+02
15              	3.14271269e+02
16              	3.14920899e+02
17              	3.15494253e+02
18              	3.15966606e+02
19              	3.16382653e+02
20              	3.16772965e+02
21              	3.17166995e+02
22              	3.17563120e+02
23              	3.17995833e+02
24              	3.18420901e+02
25              	3.18884580e+02
26              	3.19381270e+02
27              	3.19848639e+02
28              	3.20335405e+02
29              	3.20836577e+02
30              	3.21274244e+02
31              	3.21717856e+02
32              	3.22107955e+02
33              	3.22468795e+02
34              	3.22849815e+02
35              	3.23177204e+02
36              	3.23500192e+02
37              	3.23827722e+02
38              	3.24148885e+02
39              	3.24511879e+02
40              	3.24912949e+02
41              	3.25341870e+02
42              	3.25719087e+02
43              	3.26109270e+02
44              	3.26488011e+02
45              	3.26661686e+02
46              	3.26588906e+02
47              	3.26611185e+02
48              	3.26718322e+02
49              	3.26868319e+02
50              	3.27121393e+02
51              	3.27329291e+02
52              	3.27574442e+02
53              	3.27839065e+02
54              	3.28074079e+02
55              	3.28336870e+02
56              	3.28594314e+02
57              	3.28818802e+02
58              	3.29036249e+02
59              	3.29297612e+02
60              	3.29449376e+02
61              	3.29601908e+02
62              	3.29748942e+02
63              	3.29885195e+02
64              	3.30020981e+02
65              	3.30137050e+02
66              	3.30229658e+02
67              	3.30332266e+02
68              	3.30448894e+02
69              	3.30583403e+02
70              	3.30741817e+02
71              	3.30922249e+02
72              	3.31070546e+02
73              	3.31177968e+02
74              	3.31305392e+02
75              	3.31374435e+02
76              	3.31409758e+02
77              	3.31361395e+02
78              	3.31295477e+02
79              	3.31258593e+02
80              	3.31253553e+02
81              	3.31277445e+02
82              	3.31266119e+02
83              	3.31287051e+02
84              	3.31295706e+02
85              	3.31324755e+02
86              	3.31394057e+02
87              	3.31464247e+02
88              	3.31510386e+02
89              	3.31563562e+02
90              	3.31629966e+02
91              	3.31692184e+02
92              	3.31754200e+02
93              	3.31809250e+02
94              	3.31854778e+02
95              	3.31900626e+02
96              	3.31945172e+02
97              	3.31988343e+02
98              	3.32028641e+02
99              	3.32069438e+02
100             	3.32105816e+02
101             	3.32136282e+02
102             	3.32179910e+02
103             	3.32237083e+02
104             	3.32294913e+02
105             	3.32349544e+02
106             	3.32401298e+02
107             	3.32450411e+02
108             	3.32497317e+02
109             	3.32538637e+02
110             	3.32574462e+02
111             	3.32604348e+02
112             	3.32628611e+02
113             	3.32649023e+02
114             	3.32665968e+02
115             	3.32679687e+02
116             	3.32684319e+02
117             	3.32693990e+02
118             	3.32701067e+02
119             	3.32703024e+02
120             	3.32703495e+02
121             	3.32705323e+02
122             	3.32713765e+02
123             	3.32729250e+02
124             	3.32744761e+02
125             	3.32764594e+02
126             	3.32783019e+02
127             	3.32804515e+02
128             	3.32823039e+02
129             	3.32839914e+02
130             	3.32854218e+02
131             	3.32868410e+02
132             	3.32882811e+02
133             	3.32897362e+02
134             	3.32904017e+02
135             	3.32919467e+02
136             	3.32930394e+02
137             	3.32941958e+02
138             	3.32958973e+02
139             	3.32975105e+02
140             	3.32988309e+02
141             	3.32997738e+02
142             	3.33003792e+02
143             	3.33009578e+02
144             	3.33014144e+02
145             	3.33022216e+02
146             	3.33028758e+02
147             	3.33035997e+02
148             	3.33038725e+02
149             	3.33040913e+02
150             	3.33046997e+02
151             	3.33051942e+02
152             	3.33053496e+02
153             	3.33052240e+02
154             	3.33046574e+02
155             	3.33041732e+02
156             	3.33038958e+02
157             	3.33036607e+02
158             	3.33034159e+02
159             	3.33029612e+02
160             	3.33023638e+02
161             	3.33018504e+02
162             	3.33021412e+02
163             	3.33024739e+02
164             	3.33030507e+02
165             	3.33034115e+02
166             	3.33035477e+02
167             	3.33037124e+02
168             	3.33036937e+02
169             	3.33032740e+02
170             	3.33026244e+02
171             	3.33019382e+02
172             	3.33011079e+02
173             	3.33002151e+02
174             	3.32993956e+02
175             	3.32987529e+02
176             	3.32984683e+02
177             	3.32986658e+02
178             	3.32986741e+02
179             	3.32984769e+02
180             	3.32982471e+02
181             	3.32981366e+02
182             	3.32981938e+02
183             	3.32983785e+02
184             	3.32986915e+02
185             	3.32987433e+02
186             	3.32985303e+02
187             	3.32979868e+02
188             	3.32973260e+02
189             	3.32968022e+02
190             	3.32961971e+02
191             	3.32955766e+02
192             	3.32949611e+02
193             	3.32943960e+02
194             	3.32938948e+02
195             	3.32934273e+02
196             	3.32930012e+02
197             	3.32926847e+02
198             	3.32925163e+02
199             	3.32924639e+02
200             	3.32924596e+02
201             	3.32925160e+02
202             	3.32926484e+02
203             	3.32927956e+02
204             	3.32929288e+02
205             	3.32930417e+02
206             	3.32932449e+02
207             	3.32933950e+02
208             	3.32931338e+02
209             	3.32928300e+02
210             	3.32926578e+02
211             	3.32924411e+02
212             	3.32921299e+02
213             	3.32917780e+02
214             	3.32914219e+02
215             	3.32910665e+02
216             	3.32907441e+02
217             	3.32904832e+02
218             	3.32902971e+02
219             	3.32902009e+02
220             	3.32901875e+02
221             	3.32902286e+02
222             	3.32903071e+02
223             	3.32903871e+02
224             	3.32904548e+02
225             	3.32905832e+02
226             	3.32906419e+02
227             	3.32906716e+02
228             	3.32907835e+02
229             	3.32908380e+02
230             	3.32908711e+02
231             	3.32909692e+02
232             	3.32909839e+02
233             	3.32909717e+02
234             	3.32909467e+02
235             	3.32908886e+02
236             	3.32907758e+02
237             	3.32905968e+02
238             	3.32903848e+02
239             	3.32901171e+02
240             	3.32898421e+02
241             	3.32895788e+02
242             	3.32893348e+02
243             	3.32891233e+02
244             	3.32889495e+02
245             	3.32888143e+02
246             	3.32888072e+02
247             	3.32888318e+02
248             	3.32887742e+02
249             	3.32887733e+02
250             	3.32888099e+02
251             	3.32888320e+02
252             	3.32888202e+02
253             	3.32887427e+02
254             	3.32886163e+02
255             	3.32884896e+02
256             	3.32883493e+02
257             	3.32882041e+02
258             	3.32880565e+02
259             	3.32879205e+02
260             	3.32878077e+02
261             	3.32877155e+02
262             	3.32876483e+02
263             	3.32876029e+02
264             	3.32875689e+02
265             	3.32875500e+02
266             	3.32875487e+02
267             	3.32875909e+02
268             	3.32876012e+02
269             	3.32875966e+02
270             	3.32876062e+02
271             	3.32876093e+02
272             	3.32875939e+02
273             	3.32875554e+02
274             	3.32876333e+02
275             	3.32875857e+02
276             	3.32875115e+02
277             	3.32874443e+02
278             	3.32873946e+02
279             	3.32873594e+02
280             	3.32873307e+02
281             	3.32873058e+02
282             	3.32872917e+02
283             	3.32872982e+02
284             	3.32873248e+02
285             	3.32874071e+02
286             	3.32875046e+02
287             	3.32875799e+02
288             	3.32876730e+02
289             	3.32878044e+02
290             	3.32879532e+02
291             	3.32880900e+02
292             	3.32881829e+02
293             	3.32882524e+02
294             	3.32882958e+02
295             	3.32883218e+02
296             	3.32883285e+02
297             	3.32883197e+02
298             	3.32883018e+02
299             	3.32882852e+02
300             	3.32883227e+02
301             	3.32883607e+02
302             	3.32883820e+02
303             	3.32884297e+02
304             	3.32884969e+02
305             	3.32885749e+02
306             	3.32886480e+02
307             	3.32887052e+02
308             	3.32887415e+02
309             	3.32887590e+02
310             	3.32887664e+02
311             	3.32887860e+02
312             	3.32888228e+02
313             	3.32888731e+02
314             	3.32889412e+02
315             	3.32890206e+02
316             	3.32891059e+02
317             	3.32892322e+02
318             	3.32893842e+02
319             	3.32894805e+02
320             	3.32895875e+02
321             	3.32897166e+02
322             	3.32898407e+02
323             	3.32899617e+02
324             	3.32900756e+02
325             	3.32901671e+02
326             	3.32902259e+02
327             	3.32902547e+02
328             	3.32902642e+02
329             	3.32902675e+02
330             	3.32902845e+02
331             	3.32903573e+02
332             	3.32904237e+02
333             	3.32904792e+02
334             	3.32905607e+02
335             	3.32906577e+02
336             	3.32907717e+02
337             	3.32908793e+02
338             	3.32909558e+02
339             	3.32909892e+02
340             	3.32909847e+02
341             	3.32909535e+02
342             	3.32909135e+02
343             	3.32908817e+02
344             	3.32909028e+02
345             	3.32909366e+02
346             	3.32909863e+02
347             	3.32910857e+02
348             	3.32912114e+02
349             	3.32913143e+02
350             	3.32914096e+02
351             	3.32915018e+02
352             	3.32915645e+02
353             	3.32915912e+02
354             	3.32915839e+02
355             	3.32915561e+02
356             	3.32915447e+02
357             	3.32915679e+02
358             	3.32916196e+02
359             	3.32916814e+02
360             	3.32917929e+02
361             	3.32919104e+02
362             	3.32920252e+02
363             	3.32921350e+02
364             	3.32922220e+02
365             	3.32922696e+02
366             	3.32922786e+02
367             	3.32922582e+02
368             	3.32922268e+02
369             	3.32922071e+02
370             	3.32921988e+02
371             	3.32922218e+02
372             	3.32922731e+02
373             	3.32923217e+02
374             	3.32923768e+02
375             	3.32924456e+02
376             	3.32924981e+02
377             	3.32925362e+02
378             	3.32925577e+02
379             	3.32925649e+02
380             	3.32925546e+02
381             	3.32925350e+02
382             	3.32925120e+02
383             	3.32924930e+02
384             	3.32924867e+02
385             	3.32924953e+02
386             	3.32925206e+02
387             	3.32925606e+02
388             	3.32926110e+02
389             	3.32926664e+02
390             	3.32927242e+02
391             	3.32927824e+02
392             	3.32928321e+02
393             	3.32928660e+02
394             	3.32928840e+02
395             	3.32928882e+02
396             	3.32928821e+02
397             	3.32928709e+02
398             	3.32928601e+02
399             	3.32928535e+02
400             	3.32928523e+02
401             	3.32928564e+02
402             	3.32928672e+02
403             	3.32928846e+02
404             	3.32929070e+02
405             	3.32929312e+02
406             	3.32929574e+02
407             	3.32929781e+02
408             	3.32929920e+02
409             	3.32929973e+02
410             	3.32929954e+02
411             	3.32929938e+02
412             	3.32929972e+02
413             	3.32930085e+02
414             	3.32930318e+02
415             	3.32930689e+02
416             	3.32931165e+02
417             	3.32931699e+02
418             	3.32932221e+02
419             	3.32932649e+02
420             	3.32932961e+02
421             	3.32933161e+02
422             	3.32933299e+02
423             	3.32933419e+02
424             	3.32933537e+02
425             	3.32933687e+02
426             	3.32933876e+02
427             	3.32934094e+02
428             	3.32934303e+02
429             	3.32934473e+02
430             	3.32934580e+02
431             	3.32934622e+02
432             	3.32934626e+02
433             	3.32934602e+02
434             	3.32934587e+02
435             	3.32934603e+02
436             	3.32934665e+02
437             	3.32934773e+02
438             	3.32934922e+02
439             	3.32935090e+02
440             	3.32935269e+02
441             	3.32935455e+02
442             	3.32935646e+02
443             	3.32935829e+02
444             	3.32935990e+02
445             	3.32936120e+02
446             	3.32936211e+02
447             	3.32936262e+02
448             	3.32936279e+02
449             	3.32936275e+02
450             	3.32936262e+02
451             	3.32936257e+02
452             	3.32936275e+02
453             	3.32936326e+02
454             	3.32936405e+02
455             	3.32936507e+02
456             	3.32936631e+02
457             	3.32936779e+02
458             	3.32936937e+02
459             	3.32937077e+02
460             	3.32937179e+02
461             	3.32937249e+02
462             	3.32937288e+02
463             	3.32937298e+02
464             	3.32937290e+02
465             	3.32937276e+02
466             	3.32937271e+02
467             	3.32937281e+02
468             	3.32937316e+02
469             	3.32937364e+02
470             	3.32937423e+02
471             	3.32937459e+02
472             	3.32937460e+02
473             	3.32937428e+02
474             	3.32937396e+02
475             	3.32937375e+02
476             	3.32937384e+02
477             	3.32937431e+02
478             	3.32937514e+02
479             	3.32937635e+02
480             	3.32937784e+02
481             	3.32937937e+02
482             	3.32938068e+02
483             	3.32938165e+02
484             	3.32938226e+02
485             	3.32938257e+02
486             	3.32938265e+02
487             	3.32938264e+02
488             	3.32938260e+02
489             	3.32938255e+02
490             	3.32938248e+02
491             	3.32938244e+02
492             	3.32938236e+02
493             	3.32938222e+02
494             	3.32938206e+02
495             	3.32938195e+02
496             	3.32938190e+02
497             	3.32938195e+02
498             	3.32938211e+02
499             	3.32938238e+02
500             	3.32938276e+02
501             	3.32938325e+02
502             	3.32938383e+02
503             	3.32938449e+02
504             	3.32938519e+02
505             	3.32938590e+02
506             	3.32938656e+02
507             	3.32938714e+02
508             	3.32938768e+02
509             	3.32938815e+02
510             	3.32938859e+02
511             	3.32938900e+02
512             	3.32938931e+02
513             	3.32938955e+02
514             	3.32938975e+02
515             	3.32938994e+02
516             	3.32939018e+02
517             	3.32939043e+02
518             	3.32939071e+02
519             	3.32939101e+02
520             	3.32939134e+02
521             	3.32939173e+02
522             	3.32939213e+02
523             	3.32939253e+02
524             	3.32939288e+02
525             	3.32939312e+02
526             	3.32939328e+02
527             	3.32939331e+02
528             	3.32939324e+02
529             	3.32939306e+02
530             	3.32939280e+02
531             	3.32939252e+02
532             	3.32939226e+02
533             	3.32939206e+02
534             	3.32939193e+02
535             	3.32939186e+02
536             	3.32939189e+02
537             	3.32939200e+02
538             	3.32939219e+02
539             	3.32939245e+02
540             	3.32939281e+02
541             	3.32939323e+02
542             	3.32939369e+02
543             	3.32939414e+02
544             	3.32939456e+02
545             	3.32939489e+02
546             	3.32939513e+02
547             	3.32939527e+02
548             	3.32939531e+02
549             	3.32939528e+02
550             	3.32939517e+02
551             	3.32939500e+02
552             	3.32939481e+02
553             	3.32939460e+02
554             	3.32939436e+02
555             	3.32939412e+02
556             	3.32939388e+02
557             	3.32939367e+02
558             	3.32939350e+02
559             	3.32939336e+02
560             	3.32939328e+02
561             	3.32939322e+02
562             	3.32939319e+02
563             	3.32939319e+02
564             	3.32939321e+02
565             	3.32939325e+02
566             	3.32939330e+02
567             	3.32939332e+02
568             	3.32939334e+02
569             	3.32939336e+02
570             	3.32939338e+02
571             	3.32939341e+02
572             	3.32939347e+02
573             	3.32939355e+02
574             	3.32939363e+02
575             	3.32939374e+02
576             	3.32939384e+02
577             	3.32939395e+02
578             	3.32939406e+02
579             	3.32939417e+02
580             	3.32939428e+02
581             	3.32939442e+02
582             	3.32939459e+02
583             	3.32939480e+02
584             	3.32939505e+02
585             	3.32939533e+02
586             	3.32939563e+02
587             	3.32939595e+02
588             	3.32939626e+02
589             	3.32939656e+02
590             	3.32939682e+02
591             	3.32939704e+02
592             	3.32939724e+02
593             	3.32939740e+02
594             	3.32939752e+02
595             	3.32939761e+02
596             	3.32939768e+02
597             	3.32939775e+02
598             	3.32939781e+02
599             	3.32939788e+02
600             	3.32939794e+02
601             	3.32939796e+02
602             	3.32939799e+02
603             	3.32939801e+02
604             	3.32939803e+02
605             	3.32939806e+02
606             	3.32939810e+02
607             	3.32939816e+02
608             	3.32939821e+02
609             	3.32939824e+02
610             	3.32939826e+02
611             	3.32939824e+02
612             	3.32939821e+02
613             	3.32939818e+02
614             	3.32939817e+02
615             	3.32939816e+02
616             	3.32939817e+02
617             	3.32939820e+02
618             	3.32939825e+02
619             	3.32939831e+02
620             	3.32939836e+02
621             	3.32939839e+02
