# Region        : cellZone component_1
# Cells         : 89
# Volume        : 1.50978898e-01
# Time          	volAverage(T)
1               	3.00324880e+02
2               	3.00646534e+02
3               	3.00953377e+02
4               	3.01251305e+02
5               	3.01543559e+02
6               	3.01831396e+02
7               	3.02117613e+02
8               	3.02403435e+02
9               	3.02689658e+02
10              	3.02973608e+02
11              	3.03254376e+02
12              	3.03530760e+02
13              	3.03801278e+02
14              	3.04069152e+02
15              	3.04333317e+02
16              	3.04599972e+02
17              	3.04864257e+02
18              	3.05126948e+02
19              	3.05381831e+02
20              	3.05639631e+02
21              	3.05895088e+02
22              	3.06148444e+02
23              	3.06396191e+02
24              	3.06645924e+02
25              	3.06895006e+02
26              	3.07142969e+02
27              	3.07389681e+02
28              	3.07635251e+02
29              	3.07878473e+02
30              	3.08118963e+02
31              	3.08355307e+02
32              	3.08586426e+02
33              	3.08813514e+02
34              	3.09039882e+02
35              	3.09263407e+02
36              	3.09481135e+02
37              	3.09698147e+02
38              	3.09906826e+02
39              	3.10113307e+02
40              	3.10317135e+02
41              	3.10517226e+02
42              	3.10713103e+02
43              	3.10909200e+02
44              	3.11101350e+02
45              	3.11290896e+02
46              	3.11477286e+02
47              	3.11658109e+02
48              	3.11834825e+02
49              	3.12011425e+02
50              	3.12185406e+02
51              	3.12358536e+02
52              	3.12528453e+02
53              	3.12695620e+02
54              	3.12859894e+02
55              	3.13023788e+02
56              	3.13187132e+02
57              	3.13348210e+02
58              	3.13507262e+02
59              	3.13665879e+02
60              	3.13815897e+02
61              	3.13962425e+02
62              	3.14106368e+02
63              	3.14246313e+02
64              	3.14381850e+02
65              	3.14513996e+02
66              	3.14642976e+02
67              	3.14768802e+02
68              	3.14889049e+02
69              	3.15006652e+02
70              	3.15122466e+02
71              	3.15234632e+02
72              	3.15345273e+02
73              	3.15453870e+02
74              	3.15563936e+02
75              	3.15669525e+02
76              	3.15775804e+02
77              	3.15881015e+02
78              	3.15987035e+02
79              	3.16088164e+02
80              	3.16188068e+02
81              	3.16285781e+02
82              	3.16380488e+02
83              	3.16473094e+02
84              	3.16564340e+02
85              	3.16652605e+02
86              	3.16739483e+02
87              	3.16823357e+02
88              	3.16905022e+02
89              	3.16986836e+02
90              	3.17067716e+02
91              	3.17148831e+02
92              	3.17228134e+02
93              	3.17305050e+02
94              	3.17379208e+02
95              	3.17453806e+02
96              	3.17527681e+02
97              	3.17601062e+02
98              	3.17673235e+02
99              	3.17740209e+02
100             	3.17807087e+02
101             	3.17873291e+02
102             	3.17938956e+02
103             	3.17997560e+02
104             	3.18058595e+02
105             	3.18120509e+02
106             	3.18181732e+02
107             	3.18240903e+02
108             	3.18299673e+02
109             	3.18357298e+02
110             	3.18414101e+02
111             	3.18469531e+02
112             	3.18523934e+02
113             	3.18578854e+02
114             	3.18631619e+02
115             	3.18683508e+02
116             	3.18735975e+02
117             	3.18787627e+02
118             	3.18837302e+02
119             	3.18886336e+02
120             	3.18935799e+02
121             	3.18983067e+02
122             	3.19029671e+02
123             	3.19076681e+02
124             	3.19124180e+02
125             	3.19168903e+02
126             	3.19211965e+02
127             	3.19253104e+02
128             	3.19293851e+02
129             	3.19334546e+02
130             	3.19372627e+02
131             	3.19410630e+02
132             	3.19448961e+02
133             	3.19487837e+02
134             	3.19526621e+02
135             	3.19565534e+02
136             	3.19601679e+02
137             	3.19639080e+02
138             	3.19674855e+02
139             	3.19711153e+02
140             	3.19745414e+02
141             	3.19778388e+02
142             	3.19810485e+02
143             	3.19842301e+02
144             	3.19872648e+02
145             	3.19903745e+02
146             	3.19935280e+02
147             	3.19964638e+02
148             	3.19994514e+02
149             	3.20024653e+02
150             	3.20052636e+02
151             	3.20080620e+02
152             	3.20107307e+02
153             	3.20134340e+02
154             	3.20159755e+02
155             	3.20185833e+02
156             	3.20210585e+02
157             	3.20236762e+02
158             	3.20262922e+02
159             	3.20287024e+02
160             	3.20311783e+02
161             	3.20337070e+02
162             	3.20362162e+02
163             	3.20386369e+02
164             	3.20410569e+02
165             	3.20433460e+02
166             	3.20453931e+02
167             	3.20475239e+02
168             	3.20494996e+02
169             	3.20515454e+02
170             	3.20536713e+02
171             	3.20555692e+02
172             	3.20575733e+02
173             	3.20595645e+02
174             	3.20616063e+02
175             	3.20634539e+02
176             	3.20653518e+02
177             	3.20672839e+02
178             	3.20690024e+02
179             	3.20708349e+02
180             	3.20725072e+02
181             	3.20742468e+02
182             	3.20758439e+02
183             	3.20775240e+02
184             	3.20791189e+02
185             	3.20808017e+02
186             	3.20824919e+02
187             	3.20841546e+02
188             	3.20858087e+02
189             	3.20874052e+02
190             	3.20887485e+02
191             	3.20901876e+02
192             	3.20914961e+02
193             	3.20928910e+02
194             	3.20941374e+02
195             	3.20954810e+02
196             	3.20967276e+02
197             	3.20980793e+02
198             	3.20994958e+02
199             	3.21009172e+02
200             	3.21021184e+02
201             	3.21033890e+02
202             	3.21047518e+02
203             	3.21059323e+02
204             	3.21071365e+02
205             	3.21082470e+02
206             	3.21094659e+02
207             	3.21105633e+02
208             	3.21117283e+02
209             	3.21127688e+02
210             	3.21138966e+02
211             	3.21149303e+02
212             	3.21160543e+02
213             	3.21172181e+02
214             	3.21181952e+02
215             	3.21192644e+02
216             	3.21204181e+02
217             	3.21213250e+02
218             	3.21223213e+02
219             	3.21234285e+02
220             	3.21242874e+02
221             	3.21252321e+02
222             	3.21262918e+02
223             	3.21271260e+02
224             	3.21280322e+02
225             	3.21290296e+02
226             	3.21298191e+02
227             	3.21306938e+02
228             	3.21316719e+02
229             	3.21324134e+02
230             	3.21332659e+02
231             	3.21342175e+02
232             	3.21349473e+02
233             	3.21357743e+02
234             	3.21367068e+02
235             	3.21374054e+02
236             	3.21381973e+02
237             	3.21388842e+02
238             	3.21396703e+02
239             	3.21403389e+02
240             	3.21410946e+02
241             	3.21417366e+02
242             	3.21424820e+02
243             	3.21433157e+02
244             	3.21439148e+02
245             	3.21446078e+02
246             	3.21454069e+02
247             	3.21459755e+02
248             	3.21466347e+02
249             	3.21471804e+02
250             	3.21478343e+02
251             	3.21483714e+02
252             	3.21490007e+02
253             	3.21495148e+02
254             	3.21501361e+02
255             	3.21506409e+02
256             	3.21512417e+02
257             	3.21519486e+02
258             	3.21524292e+02
259             	3.21530015e+02
260             	3.21536912e+02
261             	3.21541399e+02
262             	3.21546822e+02
263             	3.21551253e+02
264             	3.21556668e+02
265             	3.21560915e+02
266             	3.21566211e+02
267             	3.21570321e+02
268             	3.21575475e+02
269             	3.21581654e+02
270             	3.21585515e+02
271             	3.21590333e+02
272             	3.21596331e+02
273             	3.21599989e+02
274             	3.21604478e+02
275             	3.21608035e+02
276             	3.21612573e+02
277             	3.21615943e+02
278             	3.21620366e+02
279             	3.21623533e+02
280             	3.21627780e+02
281             	3.21631000e+02
282             	3.21635247e+02
283             	3.21640524e+02
284             	3.21643621e+02
285             	3.21647627e+02
286             	3.21652726e+02
287             	3.21655581e+02
288             	3.21659293e+02
289             	3.21662068e+02
290             	3.21665969e+02
291             	3.21668600e+02
292             	3.21672276e+02
293             	3.21674879e+02
294             	3.21678496e+02
295             	3.21683202e+02
296             	3.21685621e+02
297             	3.21688931e+02
298             	3.21693481e+02
299             	3.21695811e+02
300             	3.21699012e+02
301             	3.21703117e+02
302             	3.21705173e+02
303             	3.21708236e+02
304             	3.21712391e+02
305             	3.21714114e+02
306             	3.21716816e+02
307             	3.21720814e+02
308             	3.21722559e+02
309             	3.21725201e+02
310             	3.21729136e+02
311             	3.21730781e+02
312             	3.21733430e+02
313             	3.21737337e+02
314             	3.21738926e+02
315             	3.21741477e+02
316             	3.21743033e+02
317             	3.21745720e+02
318             	3.21747279e+02
319             	3.21749910e+02
320             	3.21751304e+02
321             	3.21753796e+02
322             	3.21755276e+02
323             	3.21757684e+02
324             	3.21759088e+02
325             	3.21761576e+02
326             	3.21765086e+02
327             	3.21766355e+02
328             	3.21768600e+02
329             	3.21771946e+02
330             	3.21772989e+02
331             	3.21775140e+02
332             	3.21776162e+02
333             	3.21778255e+02
334             	3.21779253e+02
335             	3.21781315e+02
336             	3.21782317e+02
337             	3.21784426e+02
338             	3.21787517e+02
339             	3.21788348e+02
340             	3.21790226e+02
341             	3.21793264e+02
342             	3.21794043e+02
343             	3.21795803e+02
344             	3.21798742e+02
345             	3.21799391e+02
346             	3.21801114e+02
347             	3.21803947e+02
348             	3.21804502e+02
349             	3.21806100e+02
350             	3.21808852e+02
351             	3.21809396e+02
352             	3.21810901e+02
353             	3.21813574e+02
354             	3.21814018e+02
355             	3.21815523e+02
356             	3.21818171e+02
357             	3.21818571e+02
358             	3.21819986e+02
359             	3.21822568e+02
360             	3.21822874e+02
361             	3.21824229e+02
362             	3.21826704e+02
363             	3.21826923e+02
364             	3.21828192e+02
365             	3.21830607e+02
366             	3.21830796e+02
367             	3.21832000e+02
368             	3.21834364e+02
369             	3.21834501e+02
370             	3.21835682e+02
371             	3.21837998e+02
372             	3.21838050e+02
373             	3.21839197e+02
374             	3.21841462e+02
375             	3.21841467e+02
376             	3.21842509e+02
377             	3.21844696e+02
378             	3.21844650e+02
379             	3.21845675e+02
380             	3.21847823e+02
381             	3.21847752e+02
382             	3.21848723e+02
383             	3.21850862e+02
384             	3.21850746e+02
385             	3.21851696e+02
386             	3.21853791e+02
387             	3.21853624e+02
388             	3.21854497e+02
389             	3.21856513e+02
390             	3.21856285e+02
391             	3.21857117e+02
392             	3.21859093e+02
393             	3.21858816e+02
394             	3.21859608e+02
395             	3.21861549e+02
396             	3.21861253e+02
397             	3.21862015e+02
398             	3.21863930e+02
399             	3.21863604e+02
400             	3.21864326e+02
401             	3.21866190e+02
402             	3.21865821e+02
403             	3.21866521e+02
404             	3.21868355e+02
405             	3.21867945e+02
406             	3.21868589e+02
407             	3.21870386e+02
408             	3.21869949e+02
409             	3.21870564e+02
410             	3.21872327e+02
411             	3.21871865e+02
412             	3.21872459e+02
413             	3.21874218e+02
414             	3.21873727e+02
415             	3.21874314e+02
416             	3.21876044e+02
417             	3.21875531e+02
418             	3.21876079e+02
419             	3.21877767e+02
420             	3.21877214e+02
421             	3.21877722e+02
422             	3.21879386e+02
423             	3.21878806e+02
424             	3.21879288e+02
425             	3.21880920e+02
426             	3.21880325e+02
427             	3.21880801e+02
428             	3.21882415e+02
429             	3.21881790e+02
430             	3.21882237e+02
431             	3.21883823e+02
432             	3.21883161e+02
433             	3.21883579e+02
434             	3.21885133e+02
435             	3.21884447e+02
436             	3.21884833e+02
437             	3.21886372e+02
438             	3.21885689e+02
439             	3.21886061e+02
440             	3.21887587e+02
441             	3.21886885e+02
442             	3.21887249e+02
443             	3.21888769e+02
444             	3.21888042e+02
445             	3.21888392e+02
446             	3.21889890e+02
447             	3.21889154e+02
448             	3.21889490e+02
449             	3.21890972e+02
450             	3.21890223e+02
451             	3.21890535e+02
452             	3.21891999e+02
453             	3.21891225e+02
454             	3.21891510e+02
455             	3.21892949e+02
456             	3.21892151e+02
457             	3.21892424e+02
458             	3.21893844e+02
459             	3.21893026e+02
460             	3.21893285e+02
461             	3.21894691e+02
462             	3.21893866e+02
463             	3.21894119e+02
464             	3.21895517e+02
465             	3.21894683e+02
466             	3.21894919e+02
467             	3.21896306e+02
468             	3.21895458e+02
469             	3.21895681e+02
470             	3.21897058e+02
471             	3.21896202e+02
472             	3.21896411e+02
473             	3.21897767e+02
474             	3.21896892e+02
475             	3.21897091e+02
476             	3.21898438e+02
477             	3.21897550e+02
478             	3.21897733e+02
479             	3.21899064e+02
480             	3.21898160e+02
481             	3.21898331e+02
482             	3.21899650e+02
483             	3.21898735e+02
484             	3.21898896e+02
485             	3.21900206e+02
486             	3.21899282e+02
487             	3.21899433e+02
488             	3.21900734e+02
489             	3.21899801e+02
490             	3.21899945e+02
491             	3.21901245e+02
492             	3.21900311e+02
493             	3.21900450e+02
494             	3.21901740e+02
495             	3.21900801e+02
496             	3.21900935e+02
497             	3.21902221e+02
498             	3.21901275e+02
499             	3.21901401e+02
500             	3.21902678e+02
501             	3.21901721e+02
502             	3.21901830e+02
503             	3.21903093e+02
504             	3.21902121e+02
505             	3.21902223e+02
506             	3.21903472e+02
507             	3.21902486e+02
508             	3.21902580e+02
509             	3.21903825e+02
510             	3.21902839e+02
511             	3.21902928e+02
512             	3.21904171e+02
513             	3.21903184e+02
514             	3.21903275e+02
515             	3.21904519e+02
516             	3.21903533e+02
517             	3.21903619e+02
518             	3.21904857e+02
519             	3.21903864e+02
520             	3.21903945e+02
521             	3.21905175e+02
522             	3.21904171e+02
523             	3.21904241e+02
524             	3.21905460e+02
525             	3.21904436e+02
526             	3.21904497e+02
527             	3.21905704e+02
528             	3.21904676e+02
529             	3.21904730e+02
530             	3.21905931e+02
531             	3.21904910e+02
532             	3.21904958e+02
533             	3.21906162e+02
534             	3.21905138e+02
535             	3.21905190e+02
536             	3.21906391e+02
537             	3.21905363e+02
538             	3.21905412e+02
539             	3.21906609e+02
540             	3.21905571e+02
541             	3.21905607e+02
542             	3.21906783e+02
543             	3.21905727e+02
544             	3.21905751e+02
545             	3.21906925e+02
546             	3.21905878e+02
547             	3.21905916e+02
548             	3.21907102e+02
549             	3.21906060e+02
550             	3.21906083e+02
551             	3.21907261e+02
552             	3.21906212e+02
553             	3.21906244e+02
554             	3.21907425e+02
555             	3.21906371e+02
556             	3.21906394e+02
557             	3.21907562e+02
558             	3.21906505e+02
559             	3.21906517e+02
560             	3.21907679e+02
561             	3.21906609e+02
562             	3.21906615e+02
563             	3.21907781e+02
564             	3.21906711e+02
565             	3.21906716e+02
566             	3.21907877e+02
567             	3.21906810e+02
568             	3.21906817e+02
569             	3.21907979e+02
570             	3.21906914e+02
571             	3.21906918e+02
572             	3.21908082e+02
573             	3.21907013e+02
574             	3.21907009e+02
575             	3.21908166e+02
576             	3.21907092e+02
577             	3.21907091e+02
578             	3.21908238e+02
579             	3.21907152e+02
580             	3.21907147e+02
581             	3.21908296e+02
582             	3.21907215e+02
583             	3.21907208e+02
584             	3.21908356e+02
585             	3.21907275e+02
586             	3.21907272e+02
587             	3.21908424e+02
588             	3.21907344e+02
589             	3.21907342e+02
590             	3.21908489e+02
591             	3.21907404e+02
592             	3.21907394e+02
593             	3.21908535e+02
594             	3.21907443e+02
595             	3.21907427e+02
596             	3.21908563e+02
597             	3.21907467e+02
598             	3.21907449e+02
599             	3.21908586e+02
600             	3.21907492e+02
601             	3.21907482e+02
602             	3.21908622e+02
603             	3.21907534e+02
604             	3.21907523e+02
605             	3.21908666e+02
606             	3.21907581e+02
607             	3.21907565e+02
608             	3.21908706e+02
609             	3.21907613e+02
610             	3.21907584e+02
611             	3.21908714e+02
612             	3.21907609e+02
613             	3.21907582e+02
614             	3.21908711e+02
615             	3.21907607e+02
616             	3.21907580e+02
617             	3.21908724e+02
618             	3.21907634e+02
619             	3.21907612e+02
620             	3.21908753e+02
621             	3.21907660e+02
