# Region        : cellZone component_3
# Cells         : 91
# Volume        : 1.64566277e-01
# Time          	volAverage(T)
1               	3.01357808e+02
2               	3.02686253e+02
3               	3.03840157e+02
4               	3.04895075e+02
5               	3.05919886e+02
6               	3.06931430e+02
7               	3.07927322e+02
8               	3.08909729e+02
9               	3.09880710e+02
10              	3.10830292e+02
11              	3.11755986e+02
12              	3.12673297e+02
13              	3.13549700e+02
14              	3.14366505e+02
15              	3.15131187e+02
16              	3.15865635e+02
17              	3.16593439e+02
18              	3.17308763e+02
19              	3.18028797e+02
20              	3.18764458e+02
21              	3.19474743e+02
22              	3.20136879e+02
23              	3.20754897e+02
24              	3.21354070e+02
25              	3.21936830e+02
26              	3.22540281e+02
27              	3.23106350e+02
28              	3.23670538e+02
29              	3.24164016e+02
30              	3.24575030e+02
31              	3.24931528e+02
32              	3.25246143e+02
33              	3.25523171e+02
34              	3.25794088e+02
35              	3.26095485e+02
36              	3.26427368e+02
37              	3.26764609e+02
38              	3.27084245e+02
39              	3.27412840e+02
40              	3.27730499e+02
41              	3.28047008e+02
42              	3.28392598e+02
43              	3.28671072e+02
44              	3.28868317e+02
45              	3.29030645e+02
46              	3.29200880e+02
47              	3.29483398e+02
48              	3.29807674e+02
49              	3.30136483e+02
50              	3.30452889e+02
51              	3.30757382e+02
52              	3.31051876e+02
53              	3.31337728e+02
54              	3.31632985e+02
55              	3.31936137e+02
56              	3.32250683e+02
57              	3.32548206e+02
58              	3.32858325e+02
59              	3.33178144e+02
60              	3.33465172e+02
61              	3.33786002e+02
62              	3.34053826e+02
63              	3.34209055e+02
64              	3.34317877e+02
65              	3.34511650e+02
66              	3.34742339e+02
67              	3.34965372e+02
68              	3.35179804e+02
69              	3.35379073e+02
70              	3.35580572e+02
71              	3.35764980e+02
72              	3.35968052e+02
73              	3.36195918e+02
74              	3.36464166e+02
75              	3.36551584e+02
76              	3.36558125e+02
77              	3.36670059e+02
78              	3.36823259e+02
79              	3.36976695e+02
80              	3.37131583e+02
81              	3.37263973e+02
82              	3.37418431e+02
83              	3.37587304e+02
84              	3.37762720e+02
85              	3.37920684e+02
86              	3.38058919e+02
87              	3.38171181e+02
88              	3.38292833e+02
89              	3.38422864e+02
90              	3.38569837e+02
91              	3.38683384e+02
92              	3.38782363e+02
93              	3.38900674e+02
94              	3.39018144e+02
95              	3.39122278e+02
96              	3.39232897e+02
97              	3.39348603e+02
98              	3.39466214e+02
99              	3.39590944e+02
100             	3.39713378e+02
101             	3.39816894e+02
102             	3.39929714e+02
103             	3.40021978e+02
104             	3.40132914e+02
105             	3.40266512e+02
106             	3.40413408e+02
107             	3.40569365e+02
108             	3.40693971e+02
109             	3.40819217e+02
110             	3.40943382e+02
111             	3.41059582e+02
112             	3.41179531e+02
113             	3.41312166e+02
114             	3.41446855e+02
115             	3.41584219e+02
116             	3.41724040e+02
117             	3.41876064e+02
118             	3.42027758e+02
119             	3.42178188e+02
120             	3.42327013e+02
121             	3.42466676e+02
122             	3.42601341e+02
123             	3.42738458e+02
124             	3.42875328e+02
125             	3.42975576e+02
126             	3.43069928e+02
127             	3.43169305e+02
128             	3.43259028e+02
129             	3.43350775e+02
130             	3.43448086e+02
131             	3.43553143e+02
132             	3.43668069e+02
133             	3.43790098e+02
134             	3.43918790e+02
135             	3.44039967e+02
136             	3.44164118e+02
137             	3.44260674e+02
138             	3.44351034e+02
139             	3.44437295e+02
140             	3.44515033e+02
141             	3.44581998e+02
142             	3.44644243e+02
143             	3.44694236e+02
144             	3.44743167e+02
145             	3.44801848e+02
146             	3.44867145e+02
147             	3.44942549e+02
148             	3.45021566e+02
149             	3.45108515e+02
150             	3.45202171e+02
151             	3.45300929e+02
152             	3.45402962e+02
153             	3.45484616e+02
154             	3.45556520e+02
155             	3.45626227e+02
156             	3.45693301e+02
157             	3.45724397e+02
158             	3.45768107e+02
159             	3.45819893e+02
160             	3.45870499e+02
161             	3.45918965e+02
162             	3.45970570e+02
163             	3.46030121e+02
164             	3.46102632e+02
165             	3.46160982e+02
166             	3.46231829e+02
167             	3.46295821e+02
168             	3.46357200e+02
169             	3.46406554e+02
170             	3.46455271e+02
171             	3.46498671e+02
172             	3.46525423e+02
173             	3.46551988e+02
174             	3.46574746e+02
175             	3.46591756e+02
176             	3.46606251e+02
177             	3.46626339e+02
178             	3.46658072e+02
179             	3.46703227e+02
180             	3.46761347e+02
181             	3.46827340e+02
182             	3.46899268e+02
183             	3.46983065e+02
184             	3.47065406e+02
185             	3.47124431e+02
186             	3.47180735e+02
187             	3.47235908e+02
188             	3.47281872e+02
189             	3.47311429e+02
190             	3.47331054e+02
191             	3.47341830e+02
192             	3.47344577e+02
193             	3.47340354e+02
194             	3.47323635e+02
195             	3.47301249e+02
196             	3.47288214e+02
197             	3.47284441e+02
198             	3.47287191e+02
199             	3.47297829e+02
200             	3.47320102e+02
201             	3.47353246e+02
202             	3.47394006e+02
203             	3.47439726e+02
204             	3.47473714e+02
205             	3.47503551e+02
206             	3.47529616e+02
207             	3.47550536e+02
208             	3.47564753e+02
209             	3.47565553e+02
210             	3.47561527e+02
211             	3.47543254e+02
212             	3.47531405e+02
213             	3.47523131e+02
214             	3.47514267e+02
215             	3.47506599e+02
216             	3.47498600e+02
217             	3.47495270e+02
218             	3.47498827e+02
219             	3.47511954e+02
220             	3.47531940e+02
221             	3.47543036e+02
222             	3.47560380e+02
223             	3.47588084e+02
224             	3.47613516e+02
225             	3.47635035e+02
226             	3.47651298e+02
227             	3.47663245e+02
228             	3.47672301e+02
229             	3.47680295e+02
230             	3.47666203e+02
231             	3.47661250e+02
232             	3.47642947e+02
233             	3.47635923e+02
234             	3.47631052e+02
235             	3.47629733e+02
236             	3.47631711e+02
237             	3.47632783e+02
238             	3.47634124e+02
239             	3.47640978e+02
240             	3.47643779e+02
241             	3.47645258e+02
242             	3.47648462e+02
243             	3.47649174e+02
244             	3.47648707e+02
245             	3.47641657e+02
246             	3.47632854e+02
247             	3.47624172e+02
248             	3.47614349e+02
249             	3.47603284e+02
250             	3.47594396e+02
251             	3.47590239e+02
252             	3.47586229e+02
253             	3.47574274e+02
254             	3.47569975e+02
255             	3.47566676e+02
256             	3.47567475e+02
257             	3.47570401e+02
258             	3.47570646e+02
259             	3.47569175e+02
260             	3.47566287e+02
261             	3.47562283e+02
262             	3.47558022e+02
263             	3.47554355e+02
264             	3.47551707e+02
265             	3.47550263e+02
266             	3.47549948e+02
267             	3.47550587e+02
268             	3.47551372e+02
269             	3.47554128e+02
270             	3.47554139e+02
271             	3.47552691e+02
272             	3.47551107e+02
273             	3.47549552e+02
274             	3.47547461e+02
275             	3.47544727e+02
276             	3.47541951e+02
277             	3.47540778e+02
278             	3.47542348e+02
279             	3.47547263e+02
280             	3.47554878e+02
281             	3.47566391e+02
282             	3.47581471e+02
283             	3.47598090e+02
284             	3.47616505e+02
285             	3.47636150e+02
286             	3.47655657e+02
287             	3.47673614e+02
288             	3.47688291e+02
289             	3.47701283e+02
290             	3.47711694e+02
291             	3.47718181e+02
292             	3.47721974e+02
293             	3.47723811e+02
294             	3.47723654e+02
295             	3.47723427e+02
296             	3.47722853e+02
297             	3.47722469e+02
298             	3.47723427e+02
299             	3.47722536e+02
300             	3.47722301e+02
301             	3.47723366e+02
302             	3.47725149e+02
303             	3.47723837e+02
304             	3.47721051e+02
305             	3.47717237e+02
306             	3.47712674e+02
307             	3.47708558e+02
308             	3.47702762e+02
309             	3.47696533e+02
310             	3.47692388e+02
311             	3.47690119e+02
312             	3.47688824e+02
313             	3.47689257e+02
314             	3.47690727e+02
315             	3.47692643e+02
316             	3.47695414e+02
317             	3.47698885e+02
318             	3.47702592e+02
319             	3.47706175e+02
320             	3.47709122e+02
321             	3.47711833e+02
322             	3.47712947e+02
323             	3.47710048e+02
324             	3.47705401e+02
325             	3.47699750e+02
326             	3.47693197e+02
327             	3.47686219e+02
328             	3.47679036e+02
329             	3.47672128e+02
330             	3.47665533e+02
331             	3.47658341e+02
332             	3.47654877e+02
333             	3.47653878e+02
334             	3.47654486e+02
335             	3.47656560e+02
336             	3.47660163e+02
337             	3.47664276e+02
338             	3.47669790e+02
339             	3.47674199e+02
340             	3.47677915e+02
341             	3.47680658e+02
342             	3.47683020e+02
343             	3.47683923e+02
344             	3.47681754e+02
345             	3.47677618e+02
346             	3.47673107e+02
347             	3.47670233e+02
348             	3.47661181e+02
349             	3.47651973e+02
350             	3.47647147e+02
351             	3.47644645e+02
352             	3.47642562e+02
353             	3.47641143e+02
354             	3.47641270e+02
355             	3.47644942e+02
356             	3.47647535e+02
357             	3.47649452e+02
358             	3.47650823e+02
359             	3.47651032e+02
360             	3.47649371e+02
361             	3.47645741e+02
362             	3.47641431e+02
363             	3.47634650e+02
364             	3.47627743e+02
365             	3.47622564e+02
366             	3.47619380e+02
367             	3.47618074e+02
368             	3.47618433e+02
369             	3.47619675e+02
370             	3.47621687e+02
371             	3.47624510e+02
372             	3.47628815e+02
373             	3.47631395e+02
374             	3.47631191e+02
375             	3.47627539e+02
376             	3.47622820e+02
377             	3.47617317e+02
378             	3.47611052e+02
379             	3.47604389e+02
380             	3.47597741e+02
381             	3.47593288e+02
382             	3.47590376e+02
383             	3.47588900e+02
384             	3.47589017e+02
385             	3.47590817e+02
386             	3.47594231e+02
387             	3.47599414e+02
388             	3.47605503e+02
389             	3.47612502e+02
390             	3.47617746e+02
391             	3.47621820e+02
392             	3.47625343e+02
393             	3.47627889e+02
394             	3.47629365e+02
395             	3.47629427e+02
396             	3.47628137e+02
397             	3.47626241e+02
398             	3.47623410e+02
399             	3.47620224e+02
400             	3.47617212e+02
401             	3.47614645e+02
402             	3.47612423e+02
403             	3.47610646e+02
404             	3.47609317e+02
405             	3.47608184e+02
406             	3.47607077e+02
407             	3.47605997e+02
408             	3.47604773e+02
409             	3.47603069e+02
410             	3.47600781e+02
411             	3.47597628e+02
412             	3.47593637e+02
413             	3.47591404e+02
414             	3.47589422e+02
415             	3.47587247e+02
416             	3.47585351e+02
417             	3.47584373e+02
418             	3.47584619e+02
419             	3.47582328e+02
420             	3.47579548e+02
421             	3.47577055e+02
422             	3.47574515e+02
423             	3.47571931e+02
424             	3.47568397e+02
425             	3.47563817e+02
426             	3.47558593e+02
427             	3.47553205e+02
428             	3.47547954e+02
429             	3.47542871e+02
430             	3.47538405e+02
431             	3.47534458e+02
432             	3.47530805e+02
433             	3.47527328e+02
434             	3.47524975e+02
435             	3.47523358e+02
436             	3.47522219e+02
437             	3.47521570e+02
438             	3.47521444e+02
439             	3.47521672e+02
440             	3.47521970e+02
441             	3.47522714e+02
442             	3.47522570e+02
443             	3.47522112e+02
444             	3.47521174e+02
445             	3.47519591e+02
446             	3.47517621e+02
447             	3.47515792e+02
448             	3.47514198e+02
449             	3.47512976e+02
450             	3.47512061e+02
451             	3.47511160e+02
452             	3.47510788e+02
453             	3.47510718e+02
454             	3.47510782e+02
455             	3.47510653e+02
456             	3.47510174e+02
457             	3.47509444e+02
458             	3.47508199e+02
459             	3.47506380e+02
460             	3.47504169e+02
461             	3.47501310e+02
462             	3.47498354e+02
463             	3.47495259e+02
464             	3.47491551e+02
465             	3.47488362e+02
466             	3.47485496e+02
467             	3.47482987e+02
468             	3.47481032e+02
469             	3.47479202e+02
470             	3.47477729e+02
471             	3.47476629e+02
472             	3.47475674e+02
473             	3.47474660e+02
474             	3.47473663e+02
475             	3.47472499e+02
476             	3.47471074e+02
477             	3.47469533e+02
478             	3.47468070e+02
479             	3.47466594e+02
480             	3.47465089e+02
481             	3.47463578e+02
482             	3.47462141e+02
483             	3.47461019e+02
484             	3.47460155e+02
485             	3.47459489e+02
486             	3.47459115e+02
487             	3.47458814e+02
488             	3.47458606e+02
489             	3.47458622e+02
490             	3.47458680e+02
491             	3.47458675e+02
492             	3.47458626e+02
493             	3.47458566e+02
494             	3.47458334e+02
495             	3.47457801e+02
496             	3.47457195e+02
497             	3.47456783e+02
498             	3.47456176e+02
499             	3.47455337e+02
500             	3.47454374e+02
501             	3.47453382e+02
502             	3.47452422e+02
503             	3.47451511e+02
504             	3.47450680e+02
505             	3.47449940e+02
506             	3.47449199e+02
507             	3.47448671e+02
508             	3.47448268e+02
509             	3.47447888e+02
510             	3.47447537e+02
511             	3.47447316e+02
512             	3.47447199e+02
513             	3.47447281e+02
514             	3.47447150e+02
515             	3.47446899e+02
516             	3.47446655e+02
517             	3.47446350e+02
518             	3.47445939e+02
519             	3.47445403e+02
520             	3.47444556e+02
521             	3.47443495e+02
522             	3.47442221e+02
523             	3.47440695e+02
524             	3.47439175e+02
525             	3.47437531e+02
526             	3.47435793e+02
527             	3.47434134e+02
528             	3.47432231e+02
529             	3.47430746e+02
530             	3.47429496e+02
531             	3.47428351e+02
532             	3.47427299e+02
533             	3.47426341e+02
534             	3.47425497e+02
535             	3.47424708e+02
536             	3.47423892e+02
537             	3.47423138e+02
538             	3.47422114e+02
539             	3.47421181e+02
540             	3.47419938e+02
541             	3.47418609e+02
542             	3.47417337e+02
543             	3.47416209e+02
544             	3.47415185e+02
545             	3.47414278e+02
546             	3.47413617e+02
547             	3.47413021e+02
548             	3.47413047e+02
549             	3.47413444e+02
550             	3.47414007e+02
551             	3.47414687e+02
552             	3.47415446e+02
553             	3.47416274e+02
554             	3.47417056e+02
555             	3.47417614e+02
556             	3.47417875e+02
557             	3.47417822e+02
558             	3.47417454e+02
559             	3.47416738e+02
560             	3.47415795e+02
561             	3.47414598e+02
562             	3.47413305e+02
563             	3.47412122e+02
564             	3.47411124e+02
565             	3.47410350e+02
566             	3.47409840e+02
567             	3.47409661e+02
568             	3.47409817e+02
569             	3.47410287e+02
570             	3.47411025e+02
571             	3.47411989e+02
572             	3.47413077e+02
573             	3.47414194e+02
574             	3.47415266e+02
575             	3.47416272e+02
576             	3.47417122e+02
577             	3.47417718e+02
578             	3.47418026e+02
579             	3.47418068e+02
580             	3.47417845e+02
581             	3.47417334e+02
582             	3.47416555e+02
583             	3.47415588e+02
584             	3.47414290e+02
585             	3.47413202e+02
586             	3.47412164e+02
587             	3.47411128e+02
588             	3.47410063e+02
589             	3.47409111e+02
590             	3.47408346e+02
591             	3.47407794e+02
592             	3.47407420e+02
593             	3.47407256e+02
594             	3.47407323e+02
595             	3.47407289e+02
596             	3.47407262e+02
597             	3.47407260e+02
598             	3.47407203e+02
599             	3.47407332e+02
600             	3.47407215e+02
601             	3.47406945e+02
602             	3.47406708e+02
603             	3.47406526e+02
604             	3.47406120e+02
605             	3.47405280e+02
606             	3.47404719e+02
607             	3.47404170e+02
608             	3.47403447e+02
609             	3.47402962e+02
610             	3.47402618e+02
611             	3.47402264e+02
612             	3.47402118e+02
613             	3.47401618e+02
614             	3.47400988e+02
615             	3.47400639e+02
616             	3.47400074e+02
617             	3.47399097e+02
618             	3.47397968e+02
619             	3.47396916e+02
620             	3.47396126e+02
621             	3.47395464e+02
