# Region        : cellZone component_4
# Cells         : 72
# Volume        : 1.47241025e-01
# Time          	volAverage(T)
1               	3.00971211e+02
2               	3.01934948e+02
3               	3.02799326e+02
4               	3.03581527e+02
5               	3.04324726e+02
6               	3.05044389e+02
7               	3.05741369e+02
8               	3.06418055e+02
9               	3.07077521e+02
10              	3.07722642e+02
11              	3.08360111e+02
12              	3.08978589e+02
13              	3.09564443e+02
14              	3.10134045e+02
15              	3.10672480e+02
16              	3.11178398e+02
17              	3.11635593e+02
18              	3.12104960e+02
19              	3.12581027e+02
20              	3.13060633e+02
21              	3.13540566e+02
22              	3.14010696e+02
23              	3.14464620e+02
24              	3.14914135e+02
25              	3.15353785e+02
26              	3.15781259e+02
27              	3.16188011e+02
28              	3.16582634e+02
29              	3.16967860e+02
30              	3.17372557e+02
31              	3.17755059e+02
32              	3.18126604e+02
33              	3.18464412e+02
34              	3.18783419e+02
35              	3.19080331e+02
36              	3.19341076e+02
37              	3.19559209e+02
38              	3.19737037e+02
39              	3.19911775e+02
40              	3.20067155e+02
41              	3.20207145e+02
42              	3.20340221e+02
43              	3.20465926e+02
44              	3.20580364e+02
45              	3.20688076e+02
46              	3.20783246e+02
47              	3.20874089e+02
48              	3.20965114e+02
49              	3.21058086e+02
50              	3.21151623e+02
51              	3.21253606e+02
52              	3.21365400e+02
53              	3.21485109e+02
54              	3.21593427e+02
55              	3.21694424e+02
56              	3.21780890e+02
57              	3.21852642e+02
58              	3.21905763e+02
59              	3.21947267e+02
60              	3.21990595e+02
61              	3.22031614e+02
62              	3.22079358e+02
63              	3.22138910e+02
64              	3.22197480e+02
65              	3.22264306e+02
66              	3.22329496e+02
67              	3.22405038e+02
68              	3.22484429e+02
69              	3.22580408e+02
70              	3.22674719e+02
71              	3.22766468e+02
72              	3.22855272e+02
73              	3.22936835e+02
74              	3.23014381e+02
75              	3.23086828e+02
76              	3.23154761e+02
77              	3.23218960e+02
78              	3.23239293e+02
79              	3.23248670e+02
80              	3.23237747e+02
81              	3.23202672e+02
82              	3.23156733e+02
83              	3.23097534e+02
84              	3.23044023e+02
85              	3.23001529e+02
86              	3.22957122e+02
87              	3.22912104e+02
88              	3.22874507e+02
89              	3.22834184e+02
90              	3.22811882e+02
91              	3.22806593e+02
92              	3.22807147e+02
93              	3.22805447e+02
94              	3.22799221e+02
95              	3.22790646e+02
96              	3.22782453e+02
97              	3.22775303e+02
98              	3.22765927e+02
99              	3.22756117e+02
100             	3.22744774e+02
101             	3.22730956e+02
102             	3.22712020e+02
103             	3.22698618e+02
104             	3.22690227e+02
105             	3.22687374e+02
106             	3.22687879e+02
107             	3.22687450e+02
108             	3.22686472e+02
109             	3.22684709e+02
110             	3.22678874e+02
111             	3.22668380e+02
112             	3.22649543e+02
113             	3.22621582e+02
114             	3.22583779e+02
115             	3.22548142e+02
116             	3.22519640e+02
117             	3.22502171e+02
118             	3.22492645e+02
119             	3.22494016e+02
120             	3.22499946e+02
121             	3.22518194e+02
122             	3.22531797e+02
123             	3.22557465e+02
124             	3.22583803e+02
125             	3.22600563e+02
126             	3.22598440e+02
127             	3.22582097e+02
128             	3.22553643e+02
129             	3.22517686e+02
130             	3.22472011e+02
131             	3.22425829e+02
132             	3.22386857e+02
133             	3.22351460e+02
134             	3.22321641e+02
135             	3.22302660e+02
136             	3.22280615e+02
137             	3.22271970e+02
138             	3.22261269e+02
139             	3.22235910e+02
140             	3.22215008e+02
141             	3.22187202e+02
142             	3.22149610e+02
143             	3.22108276e+02
144             	3.22061222e+02
145             	3.22012449e+02
146             	3.21963822e+02
147             	3.21907518e+02
148             	3.21872281e+02
149             	3.21836773e+02
150             	3.21812277e+02
151             	3.21800041e+02
152             	3.21794292e+02
153             	3.21793019e+02
154             	3.21798819e+02
155             	3.21806400e+02
156             	3.21814659e+02
157             	3.21821002e+02
158             	3.21828166e+02
159             	3.21838891e+02
160             	3.21850391e+02
161             	3.21863420e+02
162             	3.21878231e+02
163             	3.21894344e+02
164             	3.21911376e+02
165             	3.21928327e+02
166             	3.21946277e+02
167             	3.21965285e+02
168             	3.21983928e+02
169             	3.21984551e+02
170             	3.21993155e+02
171             	3.22005295e+02
172             	3.22017400e+02
173             	3.22028409e+02
174             	3.22035642e+02
175             	3.22039967e+02
176             	3.22039543e+02
177             	3.22037851e+02
178             	3.22034387e+02
179             	3.22026955e+02
180             	3.22015138e+02
181             	3.22000277e+02
182             	3.21983989e+02
183             	3.21966892e+02
184             	3.21950655e+02
185             	3.21939544e+02
186             	3.21925070e+02
187             	3.21914486e+02
188             	3.21909101e+02
189             	3.21912338e+02
190             	3.21910836e+02
191             	3.21895380e+02
192             	3.21885734e+02
193             	3.21880384e+02
194             	3.21875604e+02
195             	3.21871924e+02
196             	3.21868823e+02
197             	3.21868144e+02
198             	3.21866458e+02
199             	3.21864134e+02
200             	3.21861934e+02
201             	3.21860131e+02
202             	3.21858102e+02
203             	3.21855306e+02
204             	3.21852809e+02
205             	3.21852497e+02
206             	3.21854747e+02
207             	3.21843382e+02
208             	3.21843388e+02
209             	3.21849480e+02
210             	3.21855211e+02
211             	3.21858450e+02
212             	3.21860492e+02
213             	3.21862831e+02
214             	3.21863805e+02
215             	3.21863945e+02
216             	3.21863987e+02
217             	3.21865029e+02
218             	3.21867286e+02
219             	3.21869794e+02
220             	3.21873316e+02
221             	3.21876544e+02
222             	3.21879645e+02
223             	3.21885320e+02
224             	3.21890683e+02
225             	3.21896086e+02
226             	3.21901193e+02
227             	3.21905131e+02
228             	3.21907887e+02
229             	3.21908051e+02
230             	3.21908091e+02
231             	3.21909035e+02
232             	3.21906275e+02
233             	3.21908567e+02
234             	3.21913785e+02
235             	3.21910032e+02
236             	3.21908157e+02
237             	3.21909159e+02
238             	3.21910361e+02
239             	3.21908883e+02
240             	3.21905741e+02
241             	3.21904189e+02
242             	3.21903641e+02
243             	3.21903670e+02
244             	3.21903121e+02
245             	3.21902503e+02
246             	3.21902499e+02
247             	3.21901984e+02
248             	3.21900835e+02
249             	3.21900645e+02
250             	3.21902172e+02
251             	3.21905880e+02
252             	3.21907494e+02
253             	3.21912212e+02
254             	3.21918713e+02
255             	3.21926651e+02
256             	3.21935237e+02
257             	3.21943739e+02
258             	3.21951775e+02
259             	3.21961622e+02
260             	3.21968920e+02
261             	3.21976800e+02
262             	3.21984935e+02
263             	3.21993506e+02
264             	3.22003503e+02
265             	3.22012753e+02
266             	3.22021989e+02
267             	3.22031395e+02
268             	3.22040508e+02
269             	3.22048986e+02
270             	3.22055781e+02
271             	3.22061330e+02
272             	3.22065172e+02
273             	3.22068613e+02
274             	3.22070758e+02
275             	3.22071354e+02
276             	3.22070786e+02
277             	3.22069640e+02
278             	3.22068332e+02
279             	3.22066902e+02
280             	3.22065671e+02
281             	3.22064633e+02
282             	3.22062712e+02
283             	3.22060684e+02
284             	3.22059068e+02
285             	3.22057311e+02
286             	3.22055748e+02
287             	3.22054705e+02
288             	3.22054080e+02
289             	3.22053551e+02
290             	3.22052873e+02
291             	3.22052309e+02
292             	3.22052076e+02
293             	3.22051975e+02
294             	3.22051816e+02
295             	3.22052777e+02
296             	3.22053139e+02
297             	3.22053610e+02
298             	3.22055540e+02
299             	3.22057015e+02
300             	3.22058631e+02
301             	3.22060694e+02
302             	3.22062928e+02
303             	3.22065101e+02
304             	3.22067207e+02
305             	3.22069038e+02
306             	3.22070627e+02
307             	3.22071866e+02
308             	3.22072833e+02
309             	3.22073765e+02
310             	3.22074645e+02
311             	3.22075471e+02
312             	3.22076268e+02
313             	3.22077176e+02
314             	3.22077937e+02
315             	3.22078983e+02
316             	3.22080477e+02
317             	3.22082119e+02
318             	3.22083513e+02
319             	3.22084584e+02
320             	3.22085066e+02
321             	3.22086527e+02
322             	3.22087973e+02
323             	3.22088801e+02
324             	3.22089459e+02
325             	3.22089731e+02
326             	3.22089375e+02
327             	3.22087886e+02
328             	3.22086283e+02
329             	3.22085857e+02
330             	3.22085751e+02
331             	3.22085487e+02
332             	3.22085432e+02
333             	3.22085282e+02
334             	3.22084556e+02
335             	3.22083812e+02
336             	3.22083357e+02
337             	3.22083236e+02
338             	3.22083190e+02
339             	3.22083214e+02
340             	3.22083594e+02
341             	3.22084470e+02
342             	3.22085872e+02
343             	3.22087439e+02
344             	3.22089134e+02
345             	3.22090980e+02
346             	3.22092710e+02
347             	3.22094435e+02
348             	3.22096109e+02
349             	3.22098619e+02
350             	3.22100648e+02
351             	3.22102706e+02
352             	3.22104994e+02
353             	3.22107579e+02
354             	3.22109649e+02
355             	3.22111025e+02
356             	3.22112197e+02
357             	3.22113130e+02
358             	3.22113646e+02
359             	3.22113966e+02
360             	3.22115341e+02
361             	3.22116132e+02
362             	3.22116740e+02
363             	3.22116990e+02
364             	3.22116923e+02
365             	3.22116938e+02
366             	3.22116455e+02
367             	3.22115212e+02
368             	3.22113871e+02
369             	3.22112661e+02
370             	3.22111553e+02
371             	3.22110933e+02
372             	3.22109585e+02
373             	3.22108689e+02
374             	3.22108097e+02
375             	3.22107561e+02
376             	3.22107045e+02
377             	3.22106376e+02
378             	3.22105718e+02
379             	3.22105196e+02
380             	3.22104876e+02
381             	3.22104758e+02
382             	3.22104869e+02
383             	3.22105238e+02
384             	3.22105877e+02
385             	3.22106875e+02
386             	3.22107390e+02
387             	3.22108810e+02
388             	3.22110430e+02
389             	3.22111774e+02
390             	3.22112787e+02
391             	3.22113798e+02
392             	3.22114914e+02
393             	3.22116406e+02
394             	3.22117734e+02
395             	3.22118257e+02
396             	3.22118845e+02
397             	3.22119757e+02
398             	3.22120857e+02
399             	3.22121969e+02
400             	3.22123001e+02
401             	3.22124161e+02
402             	3.22125092e+02
403             	3.22125367e+02
404             	3.22125848e+02
405             	3.22126042e+02
406             	3.22126426e+02
407             	3.22126665e+02
408             	3.22126803e+02
409             	3.22126778e+02
410             	3.22126541e+02
411             	3.22126255e+02
412             	3.22126176e+02
413             	3.22126136e+02
414             	3.22126103e+02
415             	3.22125912e+02
416             	3.22125529e+02
417             	3.22125338e+02
418             	3.22125267e+02
419             	3.22125238e+02
420             	3.22125165e+02
421             	3.22125162e+02
422             	3.22125218e+02
423             	3.22125034e+02
424             	3.22124939e+02
425             	3.22125235e+02
426             	3.22125648e+02
427             	3.22126103e+02
428             	3.22126366e+02
429             	3.22126657e+02
430             	3.22127049e+02
431             	3.22127494e+02
432             	3.22127932e+02
433             	3.22128327e+02
434             	3.22128650e+02
435             	3.22128770e+02
436             	3.22128974e+02
437             	3.22129127e+02
438             	3.22129152e+02
439             	3.22129075e+02
440             	3.22128904e+02
441             	3.22128671e+02
442             	3.22128378e+02
443             	3.22128057e+02
444             	3.22127609e+02
445             	3.22127134e+02
446             	3.22126695e+02
447             	3.22126321e+02
448             	3.22126015e+02
449             	3.22125784e+02
450             	3.22125519e+02
451             	3.22125417e+02
452             	3.22125289e+02
453             	3.22125201e+02
454             	3.22124889e+02
455             	3.22124731e+02
456             	3.22125015e+02
457             	3.22125318e+02
458             	3.22125463e+02
459             	3.22125647e+02
460             	3.22126002e+02
461             	3.22126397e+02
462             	3.22126857e+02
463             	3.22127243e+02
464             	3.22127658e+02
465             	3.22128066e+02
466             	3.22128533e+02
467             	3.22129044e+02
468             	3.22129467e+02
469             	3.22129946e+02
470             	3.22130429e+02
471             	3.22130818e+02
472             	3.22131087e+02
473             	3.22131243e+02
474             	3.22131273e+02
475             	3.22131199e+02
476             	3.22131094e+02
477             	3.22131048e+02
478             	3.22130980e+02
479             	3.22130870e+02
480             	3.22130700e+02
481             	3.22130496e+02
482             	3.22130243e+02
483             	3.22129959e+02
484             	3.22129626e+02
485             	3.22129161e+02
486             	3.22128827e+02
487             	3.22128526e+02
488             	3.22128162e+02
489             	3.22127769e+02
490             	3.22127400e+02
491             	3.22127129e+02
492             	3.22126844e+02
493             	3.22126653e+02
494             	3.22126471e+02
495             	3.22126324e+02
496             	3.22126265e+02
497             	3.22126270e+02
498             	3.22126434e+02
499             	3.22126497e+02
500             	3.22126577e+02
501             	3.22126735e+02
502             	3.22126935e+02
503             	3.22127170e+02
504             	3.22127386e+02
505             	3.22127607e+02
506             	3.22127770e+02
507             	3.22127999e+02
508             	3.22128222e+02
509             	3.22128425e+02
510             	3.22128629e+02
511             	3.22128845e+02
512             	3.22129036e+02
513             	3.22129273e+02
514             	3.22129453e+02
515             	3.22129616e+02
516             	3.22129778e+02
517             	3.22129894e+02
518             	3.22130009e+02
519             	3.22130140e+02
520             	3.22130250e+02
521             	3.22130349e+02
522             	3.22130438e+02
523             	3.22130481e+02
524             	3.22130517e+02
525             	3.22130528e+02
526             	3.22130526e+02
527             	3.22130508e+02
528             	3.22130468e+02
529             	3.22130465e+02
530             	3.22130453e+02
531             	3.22130412e+02
532             	3.22130360e+02
533             	3.22130289e+02
534             	3.22130321e+02
535             	3.22130174e+02
536             	3.22129962e+02
537             	3.22129763e+02
538             	3.22129581e+02
539             	3.22129379e+02
540             	3.22129153e+02
541             	3.22128951e+02
542             	3.22128753e+02
543             	3.22128562e+02
544             	3.22128392e+02
545             	3.22128228e+02
546             	3.22128081e+02
547             	3.22127942e+02
548             	3.22127838e+02
549             	3.22127769e+02
550             	3.22127725e+02
551             	3.22127711e+02
552             	3.22127732e+02
553             	3.22127811e+02
554             	3.22127932e+02
555             	3.22128068e+02
556             	3.22128225e+02
557             	3.22128412e+02
558             	3.22128592e+02
559             	3.22128768e+02
560             	3.22128946e+02
561             	3.22129130e+02
562             	3.22129298e+02
563             	3.22129455e+02
564             	3.22129585e+02
565             	3.22129704e+02
566             	3.22129821e+02
567             	3.22129922e+02
568             	3.22130002e+02
569             	3.22130063e+02
570             	3.22130107e+02
571             	3.22130102e+02
572             	3.22130096e+02
573             	3.22130061e+02
574             	3.22129980e+02
575             	3.22129887e+02
576             	3.22129764e+02
577             	3.22129656e+02
578             	3.22129547e+02
579             	3.22129427e+02
580             	3.22129297e+02
581             	3.22129202e+02
582             	3.22129132e+02
583             	3.22129069e+02
584             	3.22128992e+02
585             	3.22128935e+02
586             	3.22128889e+02
587             	3.22128859e+02
588             	3.22128823e+02
589             	3.22128829e+02
590             	3.22128856e+02
591             	3.22128896e+02
592             	3.22128947e+02
593             	3.22129022e+02
594             	3.22129102e+02
595             	3.22129183e+02
596             	3.22129272e+02
597             	3.22129350e+02
598             	3.22129405e+02
599             	3.22129449e+02
600             	3.22129491e+02
601             	3.22129526e+02
602             	3.22129543e+02
603             	3.22129550e+02
604             	3.22129549e+02
605             	3.22129546e+02
606             	3.22129540e+02
607             	3.22129523e+02
608             	3.22129496e+02
609             	3.22129460e+02
610             	3.22129427e+02
611             	3.22129396e+02
612             	3.22129358e+02
613             	3.22129318e+02
614             	3.22129281e+02
615             	3.22129252e+02
616             	3.22129225e+02
617             	3.22129215e+02
618             	3.22129220e+02
619             	3.22129234e+02
620             	3.22129258e+02
621             	3.22129285e+02
