# Region        : cellZone component_4
# Cells         : 77
# Volume        : 1.20465682e-01
# Time          	volAverage(T)
1               	3.00532835e+02
2               	3.01057265e+02
3               	3.01547473e+02
4               	3.02016020e+02
5               	3.02472382e+02
6               	3.02919327e+02
7               	3.03359670e+02
8               	3.03794729e+02
9               	3.04222890e+02
10              	3.04637962e+02
11              	3.05055638e+02
12              	3.05467561e+02
13              	3.05877458e+02
14              	3.06281204e+02
15              	3.06679687e+02
16              	3.07070347e+02
17              	3.07456536e+02
18              	3.07839830e+02
19              	3.08222238e+02
20              	3.08596709e+02
21              	3.08952008e+02
22              	3.09289304e+02
23              	3.09616212e+02
24              	3.09944540e+02
25              	3.10268601e+02
26              	3.10594987e+02
27              	3.10918362e+02
28              	3.11236533e+02
29              	3.11550097e+02
30              	3.11855564e+02
31              	3.12157295e+02
32              	3.12444394e+02
33              	3.12720142e+02
34              	3.12984806e+02
35              	3.13240942e+02
36              	3.13490058e+02
37              	3.13735026e+02
38              	3.13979362e+02
39              	3.14222115e+02
40              	3.14467149e+02
41              	3.14704874e+02
42              	3.14935853e+02
43              	3.15157908e+02
44              	3.15378756e+02
45              	3.15592743e+02
46              	3.15802398e+02
47              	3.16008829e+02
48              	3.16210877e+02
49              	3.16406617e+02
50              	3.16605851e+02
51              	3.16801000e+02
52              	3.16989131e+02
53              	3.17175071e+02
54              	3.17356259e+02
55              	3.17539521e+02
56              	3.17722022e+02
57              	3.17902024e+02
58              	3.18077507e+02
59              	3.18248050e+02
60              	3.18415478e+02
61              	3.18580884e+02
62              	3.18745127e+02
63              	3.18908884e+02
64              	3.19072289e+02
65              	3.19235128e+02
66              	3.19399719e+02
67              	3.19563613e+02
68              	3.19725376e+02
69              	3.19881996e+02
70              	3.20033486e+02
71              	3.20181298e+02
72              	3.20327941e+02
73              	3.20467383e+02
74              	3.20607750e+02
75              	3.20748179e+02
76              	3.20878607e+02
77              	3.21015168e+02
78              	3.21139753e+02
79              	3.21260323e+02
80              	3.21369001e+02
81              	3.21467429e+02
82              	3.21557265e+02
83              	3.21643124e+02
84              	3.21725921e+02
85              	3.21810454e+02
86              	3.21898352e+02
87              	3.21992896e+02
88              	3.22085892e+02
89              	3.22184323e+02
90              	3.22279128e+02
91              	3.22382561e+02
92              	3.22487990e+02
93              	3.22594105e+02
94              	3.22699180e+02
95              	3.22798140e+02
96              	3.22890489e+02
97              	3.22979421e+02
98              	3.23065864e+02
99              	3.23150627e+02
100             	3.23230576e+02
101             	3.23306939e+02
102             	3.23378423e+02
103             	3.23451187e+02
104             	3.23520307e+02
105             	3.23592622e+02
106             	3.23666072e+02
107             	3.23739482e+02
108             	3.23813723e+02
109             	3.23886390e+02
110             	3.23958958e+02
111             	3.24031394e+02
112             	3.24102939e+02
113             	3.24174032e+02
114             	3.24243111e+02
115             	3.24310150e+02
116             	3.24376209e+02
117             	3.24440556e+02
118             	3.24502718e+02
119             	3.24564563e+02
120             	3.24618955e+02
121             	3.24673547e+02
122             	3.24727612e+02
123             	3.24781788e+02
124             	3.24836895e+02
125             	3.24891216e+02
126             	3.24946029e+02
127             	3.25001145e+02
128             	3.25056879e+02
129             	3.25113461e+02
130             	3.25171479e+02
131             	3.25232944e+02
132             	3.25297213e+02
133             	3.25362554e+02
134             	3.25428247e+02
135             	3.25493542e+02
136             	3.25558601e+02
137             	3.25621515e+02
138             	3.25681950e+02
139             	3.25740831e+02
140             	3.25797364e+02
141             	3.25854779e+02
142             	3.25906745e+02
143             	3.25958854e+02
144             	3.26011870e+02
145             	3.26065580e+02
146             	3.26120624e+02
147             	3.26176495e+02
148             	3.26231928e+02
149             	3.26286854e+02
150             	3.26338404e+02
151             	3.26389012e+02
152             	3.26440153e+02
153             	3.26491474e+02
154             	3.26541204e+02
155             	3.26591461e+02
156             	3.26642476e+02
157             	3.26693927e+02
158             	3.26747009e+02
159             	3.26800188e+02
160             	3.26850551e+02
161             	3.26898731e+02
162             	3.26945151e+02
163             	3.26990926e+02
164             	3.27033680e+02
165             	3.27072697e+02
166             	3.27112740e+02
167             	3.27154620e+02
168             	3.27196343e+02
169             	3.27236357e+02
170             	3.27275860e+02
171             	3.27314441e+02
172             	3.27356385e+02
173             	3.27398498e+02
174             	3.27440878e+02
175             	3.27484689e+02
176             	3.27531705e+02
177             	3.27580415e+02
178             	3.27629350e+02
179             	3.27677741e+02
180             	3.27725552e+02
181             	3.27773830e+02
182             	3.27820795e+02
183             	3.27865020e+02
184             	3.27909044e+02
185             	3.27953611e+02
186             	3.27989419e+02
187             	3.28028107e+02
188             	3.28061170e+02
189             	3.28092743e+02
190             	3.28125791e+02
191             	3.28157466e+02
192             	3.28188776e+02
193             	3.28218923e+02
194             	3.28249713e+02
195             	3.28279382e+02
196             	3.28310918e+02
197             	3.28345174e+02
198             	3.28380503e+02
199             	3.28413952e+02
200             	3.28446367e+02
201             	3.28477880e+02
202             	3.28508742e+02
203             	3.28538820e+02
204             	3.28568732e+02
205             	3.28599613e+02
206             	3.28629981e+02
207             	3.28660982e+02
208             	3.28692058e+02
209             	3.28721932e+02
210             	3.28751266e+02
211             	3.28776874e+02
212             	3.28801597e+02
213             	3.28825799e+02
214             	3.28848698e+02
215             	3.28870777e+02
216             	3.28893050e+02
217             	3.28916182e+02
218             	3.28940449e+02
219             	3.28966122e+02
220             	3.28994463e+02
221             	3.29024276e+02
222             	3.29054203e+02
223             	3.29082857e+02
224             	3.29108779e+02
225             	3.29134166e+02
226             	3.29158461e+02
227             	3.29181152e+02
228             	3.29201814e+02
229             	3.29221166e+02
230             	3.29239572e+02
231             	3.29257466e+02
232             	3.29275078e+02
233             	3.29292798e+02
234             	3.29310017e+02
235             	3.29327876e+02
236             	3.29346715e+02
237             	3.29366065e+02
238             	3.29386166e+02
239             	3.29407139e+02
240             	3.29428700e+02
241             	3.29450455e+02
242             	3.29471594e+02
243             	3.29492393e+02
244             	3.29513276e+02
245             	3.29533720e+02
246             	3.29553350e+02
247             	3.29571757e+02
248             	3.29588682e+02
249             	3.29604057e+02
250             	3.29619042e+02
251             	3.29634242e+02
252             	3.29647407e+02
253             	3.29660199e+02
254             	3.29673071e+02
255             	3.29685765e+02
256             	3.29699570e+02
257             	3.29713948e+02
258             	3.29727746e+02
259             	3.29742463e+02
260             	3.29757281e+02
261             	3.29771774e+02
262             	3.29786387e+02
263             	3.29799698e+02
264             	3.29811224e+02
265             	3.29822018e+02
266             	3.29833642e+02
267             	3.29844597e+02
268             	3.29855121e+02
269             	3.29865455e+02
270             	3.29875486e+02
271             	3.29886754e+02
272             	3.29897046e+02
273             	3.29908263e+02
274             	3.29921233e+02
275             	3.29936103e+02
276             	3.29951183e+02
277             	3.29966783e+02
278             	3.29981657e+02
279             	3.29995664e+02
280             	3.30009045e+02
281             	3.30021717e+02
282             	3.30034102e+02
283             	3.30046253e+02
284             	3.30058093e+02
285             	3.30070016e+02
286             	3.30081554e+02
287             	3.30092922e+02
288             	3.30103601e+02
289             	3.30114149e+02
290             	3.30124896e+02
291             	3.30135653e+02
292             	3.30146377e+02
293             	3.30156785e+02
294             	3.30167379e+02
295             	3.30177635e+02
296             	3.30187345e+02
297             	3.30198997e+02
298             	3.30210175e+02
299             	3.30222632e+02
300             	3.30234440e+02
301             	3.30245239e+02
302             	3.30254832e+02
303             	3.30263449e+02
304             	3.30271292e+02
305             	3.30278539e+02
306             	3.30284845e+02
307             	3.30290911e+02
308             	3.30296596e+02
309             	3.30302860e+02
310             	3.30309280e+02
311             	3.30315521e+02
312             	3.30322090e+02
313             	3.30328876e+02
314             	3.30335974e+02
315             	3.30343179e+02
316             	3.30350817e+02
317             	3.30359316e+02
318             	3.30368640e+02
319             	3.30378740e+02
320             	3.30389737e+02
321             	3.30400764e+02
322             	3.30411773e+02
323             	3.30421454e+02
324             	3.30429858e+02
325             	3.30438395e+02
326             	3.30446251e+02
327             	3.30453646e+02
328             	3.30460589e+02
329             	3.30467286e+02
330             	3.30473535e+02
331             	3.30479650e+02
332             	3.30485970e+02
333             	3.30492311e+02
334             	3.30498951e+02
335             	3.30505639e+02
336             	3.30512340e+02
337             	3.30518912e+02
338             	3.30525472e+02
339             	3.30531956e+02
340             	3.30537561e+02
341             	3.30543194e+02
342             	3.30548597e+02
343             	3.30553606e+02
344             	3.30558337e+02
345             	3.30563204e+02
346             	3.30568169e+02
347             	3.30573922e+02
348             	3.30579411e+02
349             	3.30585240e+02
350             	3.30591875e+02
351             	3.30598695e+02
352             	3.30605994e+02
353             	3.30613524e+02
354             	3.30621309e+02
355             	3.30629354e+02
356             	3.30636911e+02
357             	3.30644578e+02
358             	3.30652182e+02
359             	3.30659529e+02
360             	3.30666648e+02
361             	3.30673496e+02
362             	3.30679917e+02
363             	3.30685795e+02
364             	3.30691343e+02
365             	3.30696281e+02
366             	3.30701092e+02
367             	3.30705753e+02
368             	3.30710294e+02
369             	3.30714773e+02
370             	3.30719251e+02
371             	3.30723812e+02
372             	3.30728444e+02
373             	3.30733221e+02
374             	3.30738010e+02
375             	3.30742790e+02
376             	3.30747085e+02
377             	3.30751072e+02
378             	3.30754757e+02
379             	3.30758143e+02
380             	3.30761389e+02
381             	3.30764965e+02
382             	3.30768268e+02
383             	3.30771516e+02
384             	3.30774903e+02
385             	3.30778435e+02
386             	3.30781987e+02
387             	3.30785468e+02
388             	3.30789303e+02
389             	3.30792754e+02
390             	3.30796371e+02
391             	3.30799984e+02
392             	3.30803576e+02
393             	3.30807146e+02
394             	3.30810670e+02
395             	3.30814166e+02
396             	3.30817645e+02
397             	3.30821138e+02
398             	3.30824549e+02
399             	3.30827983e+02
400             	3.30831599e+02
401             	3.30835449e+02
402             	3.30839395e+02
403             	3.30843438e+02
404             	3.30847638e+02
405             	3.30851950e+02
406             	3.30856303e+02
407             	3.30860757e+02
408             	3.30865639e+02
409             	3.30870167e+02
410             	3.30874417e+02
411             	3.30878315e+02
412             	3.30881696e+02
413             	3.30884697e+02
414             	3.30887466e+02
415             	3.30890010e+02
416             	3.30892343e+02
417             	3.30894405e+02
418             	3.30896254e+02
419             	3.30897817e+02
420             	3.30899399e+02
421             	3.30900658e+02
422             	3.30902092e+02
423             	3.30903634e+02
424             	3.30905304e+02
425             	3.30907114e+02
426             	3.30909089e+02
427             	3.30911254e+02
428             	3.30913689e+02
429             	3.30916303e+02
430             	3.30918992e+02
431             	3.30921700e+02
432             	3.30924445e+02
433             	3.30927356e+02
434             	3.30930186e+02
435             	3.30932954e+02
436             	3.30935491e+02
437             	3.30937725e+02
438             	3.30939628e+02
439             	3.30941403e+02
440             	3.30942935e+02
441             	3.30944297e+02
442             	3.30945476e+02
443             	3.30946329e+02
444             	3.30947378e+02
445             	3.30948538e+02
446             	3.30949379e+02
447             	3.30950379e+02
448             	3.30951471e+02
449             	3.30952587e+02
450             	3.30953727e+02
451             	3.30954732e+02
452             	3.30955697e+02
453             	3.30956708e+02
454             	3.30957757e+02
455             	3.30958899e+02
456             	3.30960075e+02
457             	3.30961312e+02
458             	3.30962892e+02
459             	3.30964675e+02
460             	3.30966471e+02
461             	3.30968417e+02
462             	3.30970523e+02
463             	3.30972780e+02
464             	3.30975265e+02
465             	3.30977440e+02
466             	3.30979417e+02
467             	3.30981349e+02
468             	3.30983280e+02
469             	3.30985081e+02
470             	3.30986613e+02
471             	3.30987782e+02
472             	3.30988581e+02
473             	3.30989042e+02
474             	3.30989302e+02
475             	3.30989315e+02
476             	3.30989357e+02
477             	3.30989653e+02
478             	3.30990205e+02
479             	3.30990948e+02
480             	3.30991126e+02
481             	3.30991648e+02
482             	3.30992468e+02
483             	3.30993487e+02
484             	3.30994402e+02
485             	3.30995480e+02
486             	3.30997005e+02
487             	3.30998446e+02
488             	3.30999781e+02
489             	3.31001210e+02
490             	3.31002542e+02
491             	3.31003883e+02
492             	3.31005149e+02
493             	3.31006730e+02
494             	3.31008039e+02
495             	3.31009178e+02
496             	3.31010172e+02
497             	3.31010899e+02
498             	3.31011357e+02
499             	3.31011622e+02
500             	3.31011850e+02
501             	3.31011935e+02
502             	3.31011978e+02
503             	3.31011959e+02
504             	3.31011953e+02
505             	3.31012011e+02
506             	3.31011718e+02
507             	3.31011929e+02
508             	3.31012528e+02
509             	3.31013301e+02
510             	3.31014177e+02
511             	3.31015121e+02
512             	3.31016102e+02
513             	3.31017343e+02
514             	3.31018887e+02
515             	3.31020907e+02
516             	3.31023355e+02
517             	3.31026253e+02
518             	3.31029403e+02
519             	3.31032398e+02
520             	3.31034645e+02
521             	3.31036297e+02
522             	3.31037758e+02
523             	3.31039172e+02
524             	3.31040081e+02
525             	3.31040847e+02
526             	3.31041585e+02
527             	3.31042193e+02
528             	3.31042563e+02
529             	3.31042936e+02
530             	3.31043308e+02
531             	3.31043602e+02
532             	3.31043829e+02
533             	3.31043937e+02
534             	3.31043962e+02
535             	3.31043860e+02
536             	3.31043867e+02
537             	3.31043883e+02
538             	3.31043950e+02
539             	3.31044091e+02
540             	3.31044200e+02
541             	3.31044451e+02
542             	3.31044803e+02
543             	3.31045244e+02
544             	3.31045825e+02
545             	3.31047060e+02
546             	3.31048061e+02
547             	3.31049146e+02
548             	3.31050440e+02
549             	3.31051389e+02
550             	3.31051896e+02
551             	3.31052152e+02
552             	3.31051787e+02
553             	3.31050790e+02
554             	3.31049539e+02
555             	3.31048208e+02
556             	3.31046832e+02
557             	3.31045351e+02
558             	3.31043772e+02
559             	3.31042717e+02
560             	3.31041493e+02
561             	3.31040236e+02
562             	3.31038949e+02
563             	3.31037923e+02
564             	3.31036997e+02
565             	3.31036082e+02
566             	3.31035165e+02
567             	3.31034265e+02
568             	3.31033774e+02
569             	3.31033420e+02
570             	3.31033589e+02
571             	3.31034259e+02
572             	3.31035364e+02
573             	3.31036785e+02
574             	3.31038413e+02
575             	3.31040124e+02
576             	3.31041790e+02
577             	3.31043343e+02
578             	3.31044744e+02
579             	3.31045887e+02
580             	3.31046867e+02
581             	3.31047667e+02
582             	3.31048235e+02
583             	3.31048571e+02
584             	3.31048565e+02
585             	3.31048147e+02
586             	3.31047775e+02
587             	3.31047179e+02
588             	3.31046340e+02
589             	3.31045628e+02
590             	3.31044841e+02
591             	3.31044084e+02
592             	3.31043457e+02
593             	3.31043011e+02
594             	3.31042264e+02
595             	3.31041638e+02
596             	3.31041214e+02
597             	3.31040966e+02
598             	3.31040937e+02
599             	3.31041430e+02
600             	3.31042089e+02
601             	3.31043342e+02
602             	3.31044652e+02
603             	3.31046024e+02
604             	3.31047408e+02
605             	3.31048778e+02
606             	3.31050068e+02
607             	3.31051393e+02
608             	3.31052482e+02
609             	3.31053383e+02
610             	3.31054091e+02
611             	3.31054605e+02
612             	3.31054960e+02
613             	3.31055208e+02
614             	3.31055360e+02
615             	3.31055481e+02
616             	3.31055544e+02
617             	3.31055479e+02
618             	3.31055150e+02
619             	3.31054293e+02
620             	3.31053424e+02
621             	3.31052469e+02
