# Region        : cellZone component_3
# Cells         : 24
# Volume        : 4.34695720e-02
# Time          	volAverage(T)
1               	3.03105358e+02
2               	3.06153082e+02
3               	3.08837148e+02
4               	3.11292722e+02
5               	3.13639627e+02
6               	3.15909946e+02
7               	3.18112329e+02
8               	3.20237925e+02
9               	3.22302092e+02
10              	3.24313963e+02
11              	3.26290915e+02
12              	3.28216390e+02
13              	3.29979500e+02
14              	3.31785204e+02
15              	3.33345677e+02
16              	3.34742681e+02
17              	3.36017860e+02
18              	3.37215967e+02
19              	3.38293734e+02
20              	3.39459537e+02
21              	3.40724573e+02
22              	3.42009614e+02
23              	3.43297826e+02
24              	3.44591068e+02
25              	3.45870502e+02
26              	3.47077052e+02
27              	3.48187859e+02
28              	3.49294891e+02
29              	3.50395490e+02
30              	3.51421170e+02
31              	3.52465585e+02
32              	3.53443398e+02
33              	3.54337224e+02
34              	3.55215046e+02
35              	3.56029033e+02
36              	3.56731609e+02
37              	3.57386875e+02
38              	3.58179362e+02
39              	3.59021609e+02
40              	3.59689186e+02
41              	3.60280667e+02
42              	3.60663005e+02
43              	3.60963263e+02
44              	3.61308374e+02
45              	3.61628908e+02
46              	3.61904790e+02
47              	3.62174551e+02
48              	3.62458542e+02
49              	3.62800720e+02
50              	3.63225803e+02
51              	3.63632686e+02
52              	3.64078324e+02
53              	3.64560808e+02
54              	3.64983688e+02
55              	3.65375997e+02
56              	3.65759799e+02
57              	3.66045767e+02
58              	3.66186084e+02
59              	3.66215447e+02
60              	3.66174542e+02
61              	3.66115352e+02
62              	3.66060820e+02
63              	3.66017305e+02
64              	3.65974947e+02
65              	3.65926443e+02
66              	3.65877742e+02
67              	3.65828958e+02
68              	3.65777161e+02
69              	3.65728490e+02
70              	3.65705822e+02
71              	3.65701370e+02
72              	3.65734063e+02
73              	3.65815562e+02
74              	3.65914252e+02
75              	3.66056659e+02
76              	3.66232466e+02
77              	3.66425990e+02
78              	3.66515371e+02
79              	3.66597793e+02
80              	3.66667739e+02
81              	3.66725510e+02
82              	3.66785273e+02
83              	3.66860833e+02
84              	3.66912346e+02
85              	3.66971966e+02
86              	3.67063998e+02
87              	3.67208322e+02
88              	3.67332832e+02
89              	3.67454083e+02
90              	3.67600349e+02
91              	3.67749782e+02
92              	3.67826404e+02
93              	3.67863125e+02
94              	3.67861665e+02
95              	3.67867425e+02
96              	3.67847719e+02
97              	3.67819625e+02
98              	3.67748431e+02
99              	3.67716928e+02
100             	3.67707768e+02
101             	3.67697499e+02
102             	3.67694603e+02
103             	3.67727193e+02
104             	3.67714337e+02
105             	3.67724995e+02
106             	3.67710391e+02
107             	3.67714867e+02
108             	3.67656998e+02
109             	3.67514769e+02
110             	3.67390784e+02
111             	3.67346445e+02
112             	3.67302465e+02
113             	3.67275664e+02
114             	3.67256715e+02
115             	3.67267224e+02
116             	3.67310787e+02
117             	3.67335754e+02
118             	3.67343870e+02
119             	3.67331111e+02
120             	3.67330206e+02
121             	3.67283225e+02
122             	3.67229840e+02
123             	3.67185921e+02
124             	3.67125846e+02
125             	3.67144356e+02
126             	3.67172954e+02
127             	3.67170794e+02
128             	3.67181674e+02
129             	3.67174766e+02
130             	3.67171086e+02
131             	3.67189467e+02
132             	3.67201949e+02
133             	3.67149807e+02
134             	3.66994633e+02
135             	3.66836508e+02
136             	3.66663729e+02
137             	3.66519881e+02
138             	3.66431683e+02
139             	3.66370649e+02
140             	3.66340521e+02
141             	3.66351945e+02
142             	3.66323653e+02
143             	3.66215459e+02
144             	3.66172544e+02
145             	3.66164697e+02
146             	3.66100114e+02
147             	3.65986449e+02
148             	3.65833453e+02
149             	3.65746119e+02
150             	3.65726079e+02
151             	3.65755080e+02
152             	3.65795409e+02
153             	3.65822969e+02
154             	3.65882134e+02
155             	3.65881361e+02
156             	3.65964821e+02
157             	3.66011382e+02
158             	3.65990500e+02
159             	3.65948977e+02
160             	3.65927696e+02
161             	3.65873971e+02
162             	3.65860597e+02
163             	3.65888610e+02
164             	3.65915878e+02
165             	3.65937427e+02
166             	3.65944038e+02
167             	3.65925613e+02
168             	3.65872348e+02
169             	3.65883118e+02
170             	3.65833560e+02
171             	3.65748282e+02
172             	3.65674828e+02
173             	3.65642324e+02
174             	3.65632157e+02
175             	3.65620738e+02
176             	3.65632053e+02
177             	3.65665280e+02
178             	3.65710389e+02
179             	3.65740875e+02
180             	3.65803584e+02
181             	3.65846264e+02
182             	3.65881786e+02
183             	3.65959414e+02
184             	3.66039440e+02
185             	3.66095910e+02
186             	3.66137509e+02
187             	3.66177659e+02
188             	3.66220418e+02
189             	3.66263314e+02
190             	3.66315999e+02
191             	3.66379625e+02
192             	3.66446825e+02
193             	3.66515090e+02
194             	3.66582047e+02
195             	3.66642722e+02
196             	3.66695957e+02
197             	3.66763009e+02
198             	3.66860677e+02
199             	3.66935391e+02
200             	3.67029421e+02
201             	3.67162687e+02
202             	3.67253095e+02
203             	3.67347743e+02
204             	3.67449551e+02
205             	3.67530378e+02
206             	3.67593069e+02
207             	3.67638400e+02
208             	3.67666395e+02
209             	3.67664623e+02
210             	3.67657923e+02
211             	3.67665082e+02
212             	3.67690244e+02
213             	3.67757139e+02
214             	3.67795984e+02
215             	3.67826891e+02
216             	3.67848324e+02
217             	3.67889367e+02
218             	3.67905463e+02
219             	3.67918887e+02
220             	3.67934433e+02
221             	3.67959458e+02
222             	3.67986318e+02
223             	3.68005315e+02
224             	3.68020971e+02
225             	3.68032567e+02
226             	3.68061439e+02
227             	3.68104431e+02
228             	3.68176120e+02
229             	3.68249783e+02
230             	3.68312567e+02
231             	3.68387081e+02
232             	3.68467340e+02
233             	3.68546293e+02
234             	3.68616517e+02
235             	3.68668060e+02
236             	3.68700922e+02
237             	3.68735264e+02
238             	3.68764539e+02
239             	3.68788646e+02
240             	3.68808179e+02
241             	3.68826130e+02
242             	3.68852693e+02
243             	3.68886813e+02
244             	3.68928580e+02
245             	3.68971423e+02
246             	3.69010427e+02
247             	3.69038054e+02
248             	3.69061877e+02
249             	3.69083080e+02
250             	3.69101823e+02
251             	3.69127590e+02
252             	3.69149642e+02
253             	3.69183395e+02
254             	3.69218473e+02
255             	3.69260563e+02
256             	3.69311629e+02
257             	3.69370270e+02
258             	3.69429734e+02
259             	3.69482593e+02
260             	3.69531514e+02
261             	3.69576466e+02
262             	3.69615273e+02
263             	3.69642512e+02
264             	3.69672790e+02
265             	3.69676340e+02
266             	3.69669875e+02
267             	3.69669673e+02
268             	3.69675522e+02
269             	3.69691630e+02
270             	3.69709096e+02
271             	3.69737003e+02
272             	3.69765729e+02
273             	3.69793477e+02
274             	3.69831809e+02
275             	3.69877844e+02
276             	3.69923405e+02
277             	3.69965003e+02
278             	3.70009156e+02
279             	3.70044291e+02
280             	3.70074471e+02
281             	3.70116810e+02
282             	3.70153702e+02
283             	3.70187666e+02
284             	3.70193843e+02
285             	3.70205066e+02
286             	3.70204818e+02
287             	3.70204376e+02
288             	3.70197514e+02
289             	3.70186118e+02
290             	3.70180285e+02
291             	3.70181386e+02
292             	3.70177355e+02
293             	3.70166919e+02
294             	3.70152968e+02
295             	3.70155381e+02
296             	3.70151520e+02
297             	3.70149618e+02
298             	3.70152948e+02
299             	3.70169821e+02
300             	3.70193804e+02
301             	3.70215768e+02
302             	3.70237251e+02
303             	3.70262347e+02
304             	3.70285543e+02
305             	3.70303276e+02
306             	3.70306372e+02
307             	3.70309967e+02
308             	3.70312767e+02
309             	3.70316932e+02
310             	3.70327424e+02
311             	3.70343075e+02
312             	3.70347984e+02
313             	3.70344669e+02
314             	3.70345263e+02
315             	3.70361338e+02
316             	3.70373514e+02
317             	3.70387167e+02
318             	3.70406251e+02
319             	3.70412872e+02
320             	3.70415982e+02
321             	3.70430339e+02
322             	3.70449930e+02
323             	3.70464227e+02
324             	3.70477535e+02
325             	3.70495357e+02
326             	3.70514600e+02
327             	3.70527953e+02
328             	3.70537585e+02
329             	3.70536470e+02
330             	3.70536572e+02
331             	3.70542162e+02
332             	3.70541899e+02
333             	3.70539168e+02
334             	3.70529678e+02
335             	3.70517445e+02
336             	3.70505542e+02
337             	3.70495683e+02
338             	3.70488065e+02
339             	3.70483171e+02
340             	3.70482543e+02
341             	3.70478058e+02
342             	3.70478220e+02
343             	3.70480427e+02
344             	3.70478164e+02
345             	3.70476464e+02
346             	3.70473775e+02
347             	3.70469368e+02
348             	3.70463287e+02
349             	3.70460998e+02
350             	3.70454654e+02
351             	3.70447894e+02
352             	3.70447604e+02
353             	3.70442498e+02
354             	3.70436021e+02
355             	3.70430076e+02
356             	3.70422981e+02
357             	3.70415085e+02
358             	3.70409029e+02
359             	3.70402239e+02
360             	3.70394377e+02
361             	3.70390562e+02
362             	3.70386595e+02
363             	3.70387864e+02
364             	3.70391724e+02
365             	3.70390682e+02
366             	3.70384456e+02
367             	3.70383811e+02
368             	3.70369058e+02
369             	3.70363034e+02
370             	3.70354906e+02
371             	3.70346473e+02
372             	3.70336646e+02
373             	3.70326186e+02
374             	3.70320362e+02
375             	3.70315966e+02
376             	3.70314762e+02
377             	3.70321631e+02
378             	3.70325514e+02
379             	3.70334393e+02
380             	3.70346786e+02
381             	3.70357863e+02
382             	3.70370174e+02
383             	3.70384019e+02
384             	3.70398824e+02
385             	3.70417328e+02
386             	3.70434419e+02
387             	3.70446691e+02
388             	3.70458509e+02
389             	3.70466722e+02
390             	3.70466521e+02
391             	3.70464140e+02
392             	3.70460720e+02
393             	3.70449185e+02
394             	3.70436385e+02
395             	3.70424818e+02
396             	3.70413426e+02
397             	3.70404745e+02
398             	3.70398436e+02
399             	3.70393359e+02
400             	3.70396411e+02
401             	3.70401880e+02
402             	3.70399965e+02
403             	3.70397644e+02
404             	3.70397505e+02
405             	3.70399234e+02
406             	3.70402372e+02
407             	3.70406210e+02
408             	3.70411499e+02
409             	3.70419401e+02
410             	3.70427333e+02
411             	3.70434467e+02
412             	3.70441749e+02
413             	3.70443620e+02
414             	3.70448053e+02
415             	3.70451433e+02
416             	3.70447539e+02
417             	3.70443734e+02
418             	3.70438241e+02
419             	3.70430154e+02
420             	3.70420005e+02
421             	3.70408687e+02
422             	3.70397462e+02
423             	3.70385586e+02
424             	3.70373727e+02
425             	3.70362932e+02
426             	3.70353702e+02
427             	3.70346492e+02
428             	3.70343227e+02
429             	3.70341351e+02
430             	3.70349734e+02
431             	3.70354862e+02
432             	3.70357265e+02
433             	3.70361459e+02
434             	3.70366758e+02
435             	3.70371398e+02
436             	3.70374490e+02
437             	3.70375567e+02
438             	3.70374533e+02
439             	3.70372226e+02
440             	3.70365342e+02
441             	3.70360601e+02
442             	3.70357134e+02
443             	3.70355257e+02
444             	3.70357197e+02
445             	3.70359475e+02
446             	3.70363165e+02
447             	3.70368192e+02
448             	3.70373790e+02
449             	3.70379039e+02
450             	3.70385504e+02
451             	3.70390591e+02
452             	3.70396768e+02
453             	3.70403204e+02
454             	3.70408790e+02
455             	3.70412934e+02
456             	3.70416922e+02
457             	3.70421490e+02
458             	3.70424586e+02
459             	3.70425986e+02
460             	3.70425778e+02
461             	3.70423757e+02
462             	3.70428797e+02
463             	3.70428550e+02
464             	3.70426035e+02
465             	3.70423430e+02
466             	3.70420826e+02
467             	3.70415680e+02
468             	3.70408291e+02
469             	3.70401235e+02
470             	3.70395717e+02
471             	3.70390508e+02
472             	3.70385730e+02
473             	3.70384330e+02
474             	3.70386225e+02
475             	3.70392223e+02
476             	3.70401281e+02
477             	3.70410510e+02
478             	3.70415858e+02
479             	3.70420779e+02
480             	3.70429504e+02
481             	3.70439047e+02
482             	3.70449874e+02
483             	3.70461307e+02
484             	3.70473148e+02
485             	3.70484891e+02
486             	3.70494996e+02
487             	3.70503181e+02
488             	3.70506177e+02
489             	3.70506815e+02
490             	3.70504173e+02
491             	3.70496118e+02
492             	3.70487458e+02
493             	3.70477383e+02
494             	3.70467125e+02
495             	3.70457727e+02
496             	3.70448251e+02
497             	3.70438235e+02
498             	3.70429714e+02
499             	3.70421206e+02
500             	3.70412298e+02
501             	3.70405186e+02
502             	3.70401739e+02
503             	3.70404784e+02
504             	3.70406375e+02
505             	3.70408442e+02
506             	3.70405249e+02
507             	3.70400529e+02
508             	3.70397809e+02
509             	3.70394217e+02
510             	3.70392147e+02
511             	3.70392244e+02
512             	3.70395629e+02
513             	3.70399528e+02
514             	3.70401419e+02
515             	3.70402581e+02
516             	3.70405405e+02
517             	3.70408858e+02
518             	3.70413324e+02
519             	3.70417880e+02
520             	3.70423237e+02
521             	3.70429228e+02
522             	3.70435284e+02
523             	3.70441804e+02
524             	3.70448143e+02
525             	3.70454861e+02
526             	3.70462763e+02
527             	3.70471504e+02
528             	3.70470343e+02
529             	3.70474876e+02
530             	3.70480354e+02
531             	3.70484851e+02
532             	3.70488578e+02
533             	3.70491521e+02
534             	3.70504066e+02
535             	3.70513092e+02
536             	3.70520990e+02
537             	3.70529209e+02
538             	3.70536850e+02
539             	3.70542738e+02
540             	3.70545940e+02
541             	3.70546634e+02
542             	3.70544630e+02
543             	3.70541567e+02
544             	3.70536437e+02
545             	3.70529861e+02
546             	3.70522560e+02
547             	3.70515568e+02
548             	3.70509575e+02
549             	3.70503351e+02
550             	3.70497883e+02
551             	3.70493639e+02
552             	3.70490428e+02
553             	3.70488932e+02
554             	3.70489463e+02
555             	3.70490814e+02
556             	3.70492006e+02
557             	3.70493957e+02
558             	3.70496054e+02
559             	3.70497555e+02
560             	3.70500457e+02
561             	3.70504466e+02
562             	3.70500777e+02
563             	3.70500452e+02
564             	3.70500888e+02
565             	3.70500289e+02
566             	3.70498209e+02
567             	3.70494767e+02
568             	3.70489534e+02
569             	3.70481893e+02
570             	3.70477668e+02
571             	3.70472687e+02
572             	3.70472461e+02
573             	3.70476328e+02
574             	3.70479159e+02
575             	3.70480953e+02
576             	3.70482185e+02
577             	3.70482269e+02
578             	3.70481939e+02
579             	3.70479928e+02
580             	3.70478647e+02
581             	3.70477088e+02
582             	3.70475183e+02
583             	3.70472673e+02
584             	3.70470435e+02
585             	3.70468136e+02
586             	3.70467210e+02
587             	3.70466902e+02
588             	3.70466406e+02
589             	3.70464500e+02
590             	3.70462035e+02
591             	3.70459325e+02
592             	3.70455914e+02
593             	3.70452472e+02
594             	3.70449389e+02
595             	3.70446751e+02
596             	3.70444769e+02
597             	3.70443625e+02
598             	3.70443998e+02
599             	3.70445606e+02
600             	3.70447919e+02
601             	3.70450786e+02
602             	3.70455403e+02
603             	3.70460269e+02
604             	3.70465101e+02
605             	3.70469737e+02
606             	3.70473587e+02
607             	3.70473422e+02
608             	3.70475219e+02
609             	3.70477090e+02
610             	3.70478437e+02
611             	3.70479543e+02
612             	3.70480352e+02
613             	3.70481082e+02
614             	3.70481875e+02
615             	3.70482631e+02
616             	3.70483196e+02
617             	3.70482080e+02
618             	3.70478154e+02
619             	3.70474666e+02
620             	3.70470319e+02
621             	3.70465216e+02
