# Region        : cellZone pcb
# Cells         : 790
# Volume        : 1.55438988e+00
# Time          	volAverage(T)
1               	3.00002059e+02
2               	3.00006132e+02
3               	3.00012111e+02
4               	3.00019863e+02
5               	3.00028495e+02
6               	3.00038592e+02
7               	3.00050178e+02
8               	3.00062748e+02
9               	3.00076659e+02
10              	3.00091247e+02
11              	3.00106941e+02
12              	3.00123652e+02
13              	3.00140379e+02
14              	3.00158163e+02
15              	3.00176836e+02
16              	3.00195001e+02
17              	3.00213394e+02
18              	3.00233635e+02
19              	3.00253999e+02
20              	3.00274474e+02
21              	3.00295853e+02
22              	3.00319193e+02
23              	3.00343245e+02
24              	3.00367667e+02
25              	3.00393964e+02
26              	3.00420966e+02
27              	3.00446507e+02
28              	3.00471502e+02
29              	3.00496400e+02
30              	3.00521340e+02
31              	3.00546620e+02
32              	3.00571550e+02
33              	3.00596594e+02
34              	3.00622055e+02
35              	3.00647639e+02
36              	3.00673802e+02
37              	3.00701302e+02
38              	3.00729551e+02
39              	3.00757824e+02
40              	3.00786020e+02
41              	3.00811797e+02
42              	3.00837627e+02
43              	3.00864555e+02
44              	3.00891960e+02
45              	3.00918990e+02
46              	3.00944986e+02
47              	3.00970727e+02
48              	3.00996922e+02
49              	3.01023436e+02
50              	3.01049831e+02
51              	3.01075182e+02
52              	3.01100197e+02
53              	3.01125724e+02
54              	3.01152899e+02
55              	3.01180623e+02
56              	3.01207187e+02
57              	3.01234973e+02
58              	3.01263577e+02
59              	3.01291543e+02
60              	3.01319933e+02
61              	3.01345715e+02
62              	3.01369201e+02
63              	3.01392508e+02
64              	3.01415202e+02
65              	3.01437690e+02
66              	3.01460395e+02
67              	3.01482962e+02
68              	3.01505977e+02
69              	3.01529717e+02
70              	3.01554038e+02
71              	3.01578567e+02
72              	3.01602835e+02
73              	3.01626476e+02
74              	3.01650798e+02
75              	3.01675398e+02
76              	3.01699863e+02
77              	3.01723994e+02
78              	3.01747394e+02
79              	3.01770087e+02
80              	3.01793070e+02
81              	3.01816587e+02
82              	3.01840737e+02
83              	3.01862923e+02
84              	3.01886538e+02
85              	3.01912644e+02
86              	3.01938738e+02
87              	3.01961533e+02
88              	3.01981647e+02
89              	3.02003642e+02
90              	3.02026736e+02
91              	3.02049157e+02
92              	3.02069020e+02
93              	3.02088236e+02
94              	3.02108902e+02
95              	3.02129700e+02
96              	3.02149534e+02
97              	3.02170453e+02
98              	3.02190260e+02
99              	3.02212345e+02
100             	3.02234275e+02
101             	3.02257957e+02
102             	3.02280084e+02
103             	3.02301313e+02
104             	3.02322625e+02
105             	3.02345527e+02
106             	3.02366714e+02
107             	3.02384881e+02
108             	3.02402536e+02
109             	3.02419829e+02
110             	3.02436964e+02
111             	3.02454010e+02
112             	3.02470941e+02
113             	3.02488534e+02
114             	3.02506538e+02
115             	3.02525176e+02
116             	3.02544184e+02
117             	3.02562302e+02
118             	3.02579990e+02
119             	3.02597133e+02
120             	3.02614595e+02
121             	3.02631852e+02
122             	3.02648235e+02
123             	3.02665008e+02
124             	3.02681847e+02
125             	3.02699763e+02
126             	3.02718427e+02
127             	3.02736282e+02
128             	3.02753239e+02
129             	3.02769393e+02
130             	3.02784931e+02
131             	3.02800353e+02
132             	3.02815647e+02
133             	3.02830615e+02
134             	3.02845821e+02
135             	3.02861263e+02
136             	3.02875826e+02
137             	3.02890503e+02
138             	3.02905478e+02
139             	3.02920282e+02
140             	3.02934845e+02
141             	3.02949690e+02
142             	3.02964715e+02
143             	3.02979988e+02
144             	3.02995131e+02
145             	3.03009800e+02
146             	3.03024409e+02
147             	3.03038650e+02
148             	3.03052432e+02
149             	3.03066451e+02
150             	3.03080185e+02
151             	3.03093276e+02
152             	3.03106160e+02
153             	3.03120156e+02
154             	3.03134478e+02
155             	3.03147667e+02
156             	3.03159984e+02
157             	3.03172155e+02
158             	3.03184443e+02
159             	3.03196925e+02
160             	3.03209631e+02
161             	3.03222342e+02
162             	3.03236753e+02
163             	3.03251104e+02
164             	3.03264971e+02
165             	3.03278062e+02
166             	3.03290736e+02
167             	3.03303411e+02
168             	3.03314385e+02
169             	3.03324786e+02
170             	3.03335717e+02
171             	3.03347247e+02
172             	3.03358697e+02
173             	3.03369940e+02
174             	3.03381395e+02
175             	3.03392928e+02
176             	3.03404200e+02
177             	3.03415068e+02
178             	3.03426322e+02
179             	3.03437472e+02
180             	3.03448208e+02
181             	3.03459134e+02
182             	3.03470420e+02
183             	3.03481760e+02
184             	3.03493270e+02
185             	3.03504076e+02
186             	3.03514167e+02
187             	3.03523900e+02
188             	3.03533635e+02
189             	3.03543366e+02
190             	3.03553070e+02
191             	3.03562650e+02
192             	3.03572274e+02
193             	3.03581795e+02
194             	3.03591351e+02
195             	3.03600986e+02
196             	3.03610678e+02
197             	3.03620451e+02
198             	3.03630150e+02
199             	3.03639158e+02
200             	3.03648268e+02
201             	3.03657551e+02
202             	3.03666735e+02
203             	3.03675717e+02
204             	3.03684597e+02
205             	3.03693312e+02
206             	3.03701715e+02
207             	3.03709925e+02
208             	3.03718352e+02
209             	3.03727004e+02
210             	3.03735404e+02
211             	3.03743600e+02
212             	3.03751739e+02
213             	3.03759919e+02
214             	3.03768066e+02
215             	3.03776190e+02
216             	3.03784358e+02
217             	3.03792533e+02
218             	3.03800566e+02
219             	3.03808476e+02
220             	3.03816222e+02
221             	3.03823822e+02
222             	3.03831348e+02
223             	3.03838788e+02
224             	3.03846214e+02
225             	3.03853427e+02
226             	3.03860513e+02
227             	3.03867621e+02
228             	3.03874853e+02
229             	3.03882021e+02
230             	3.03889070e+02
231             	3.03896082e+02
232             	3.03903097e+02
233             	3.03910098e+02
234             	3.03917008e+02
235             	3.03923844e+02
236             	3.03930645e+02
237             	3.03937398e+02
238             	3.03944119e+02
239             	3.03950816e+02
240             	3.03957599e+02
241             	3.03964099e+02
242             	3.03970334e+02
243             	3.03976505e+02
244             	3.03982660e+02
245             	3.03988861e+02
246             	3.03995045e+02
247             	3.04001081e+02
248             	3.04007027e+02
249             	3.04013057e+02
250             	3.04019126e+02
251             	3.04025100e+02
252             	3.04030982e+02
253             	3.04036827e+02
254             	3.04042613e+02
255             	3.04048397e+02
256             	3.04054156e+02
257             	3.04059754e+02
258             	3.04065214e+02
259             	3.04070636e+02
260             	3.04076107e+02
261             	3.04081599e+02
262             	3.04087073e+02
263             	3.04092555e+02
264             	3.04098082e+02
265             	3.04103604e+02
266             	3.04108881e+02
267             	3.04113981e+02
268             	3.04119161e+02
269             	3.04124386e+02
270             	3.04129562e+02
271             	3.04134621e+02
272             	3.04139602e+02
273             	3.04144494e+02
274             	3.04149323e+02
275             	3.04154226e+02
276             	3.04159035e+02
277             	3.04163753e+02
278             	3.04168512e+02
279             	3.04173237e+02
280             	3.04177873e+02
281             	3.04182431e+02
282             	3.04186949e+02
283             	3.04191427e+02
284             	3.04195900e+02
285             	3.04200282e+02
286             	3.04204608e+02
287             	3.04208983e+02
288             	3.04213399e+02
289             	3.04217782e+02
290             	3.04222128e+02
291             	3.04226416e+02
292             	3.04230641e+02
293             	3.04234717e+02
294             	3.04238640e+02
295             	3.04242533e+02
296             	3.04246441e+02
297             	3.04250374e+02
298             	3.04254279e+02
299             	3.04258207e+02
300             	3.04262132e+02
301             	3.04266045e+02
302             	3.04269939e+02
303             	3.04273818e+02
304             	3.04277684e+02
305             	3.04281534e+02
306             	3.04285318e+02
307             	3.04289046e+02
308             	3.04292686e+02
309             	3.04296281e+02
310             	3.04299863e+02
311             	3.04303385e+02
312             	3.04306840e+02
313             	3.04310315e+02
314             	3.04313835e+02
315             	3.04317304e+02
316             	3.04320707e+02
317             	3.04324078e+02
318             	3.04327471e+02
319             	3.04330821e+02
320             	3.04334151e+02
321             	3.04337465e+02
322             	3.04340784e+02
323             	3.04344052e+02
324             	3.04347196e+02
325             	3.04350247e+02
326             	3.04353300e+02
327             	3.04356364e+02
328             	3.04359397e+02
329             	3.04362331e+02
330             	3.04365214e+02
331             	3.04368180e+02
332             	3.04371225e+02
333             	3.04374244e+02
334             	3.04377235e+02
335             	3.04380251e+02
336             	3.04383108e+02
337             	3.04385773e+02
338             	3.04388373e+02
339             	3.04391027e+02
340             	3.04393700e+02
341             	3.04396348e+02
342             	3.04398997e+02
343             	3.04401656e+02
344             	3.04404353e+02
345             	3.04407048e+02
346             	3.04409713e+02
347             	3.04412360e+02
348             	3.04415002e+02
349             	3.04417641e+02
350             	3.04420259e+02
351             	3.04422792e+02
352             	3.04425220e+02
353             	3.04427617e+02
354             	3.04429975e+02
355             	3.04432310e+02
356             	3.04434661e+02
357             	3.04437046e+02
358             	3.04439469e+02
359             	3.04441862e+02
360             	3.04444220e+02
361             	3.04446582e+02
362             	3.04448966e+02
363             	3.04451270e+02
364             	3.04453409e+02
365             	3.04455474e+02
366             	3.04457505e+02
367             	3.04459510e+02
368             	3.04461512e+02
369             	3.04463543e+02
370             	3.04465609e+02
371             	3.04467736e+02
372             	3.04469910e+02
373             	3.04472057e+02
374             	3.04474186e+02
375             	3.04476222e+02
376             	3.04478161e+02
377             	3.04480061e+02
378             	3.04481939e+02
379             	3.04483829e+02
380             	3.04485743e+02
381             	3.04487653e+02
382             	3.04489554e+02
383             	3.04491448e+02
384             	3.04493348e+02
385             	3.04495247e+02
386             	3.04497139e+02
387             	3.04499009e+02
388             	3.04500814e+02
389             	3.04502574e+02
390             	3.04504300e+02
391             	3.04506035e+02
392             	3.04507758e+02
393             	3.04509458e+02
394             	3.04511143e+02
395             	3.04512827e+02
396             	3.04514499e+02
397             	3.04516162e+02
398             	3.04517819e+02
399             	3.04519452e+02
400             	3.04521043e+02
401             	3.04522607e+02
402             	3.04524171e+02
403             	3.04525726e+02
404             	3.04527267e+02
405             	3.04528806e+02
406             	3.04530363e+02
407             	3.04531906e+02
408             	3.04533403e+02
409             	3.04534872e+02
410             	3.04536328e+02
411             	3.04537770e+02
412             	3.04539190e+02
413             	3.04540591e+02
414             	3.04542010e+02
415             	3.04543457e+02
416             	3.04544908e+02
417             	3.04546372e+02
418             	3.04547798e+02
419             	3.04549185e+02
420             	3.04550531e+02
421             	3.04551846e+02
422             	3.04553154e+02
423             	3.04554466e+02
424             	3.04555779e+02
425             	3.04557095e+02
426             	3.04558408e+02
427             	3.04559703e+02
428             	3.04560985e+02
429             	3.04562243e+02
430             	3.04563467e+02
431             	3.04564674e+02
432             	3.04565894e+02
433             	3.04567088e+02
434             	3.04568249e+02
435             	3.04569392e+02
436             	3.04570526e+02
437             	3.04571659e+02
438             	3.04572792e+02
439             	3.04573916e+02
440             	3.04575035e+02
441             	3.04576151e+02
442             	3.04577267e+02
443             	3.04578361e+02
444             	3.04579441e+02
445             	3.04580513e+02
446             	3.04581589e+02
447             	3.04582667e+02
448             	3.04583741e+02
449             	3.04584805e+02
450             	3.04585851e+02
451             	3.04586883e+02
452             	3.04587909e+02
453             	3.04588940e+02
454             	3.04589966e+02
455             	3.04590968e+02
456             	3.04591947e+02
457             	3.04592924e+02
458             	3.04593914e+02
459             	3.04594899e+02
460             	3.04595868e+02
461             	3.04596819e+02
462             	3.04597753e+02
463             	3.04598670e+02
464             	3.04599572e+02
465             	3.04600462e+02
466             	3.04601341e+02
467             	3.04602211e+02
468             	3.04603054e+02
469             	3.04603903e+02
470             	3.04604773e+02
471             	3.04605641e+02
472             	3.04606499e+02
473             	3.04607345e+02
474             	3.04608189e+02
475             	3.04609023e+02
476             	3.04609852e+02
477             	3.04610672e+02
478             	3.04611457e+02
479             	3.04612237e+02
480             	3.04613035e+02
481             	3.04613838e+02
482             	3.04614633e+02
483             	3.04615419e+02
484             	3.04616194e+02
485             	3.04616961e+02
486             	3.04617720e+02
487             	3.04618467e+02
488             	3.04619208e+02
489             	3.04619944e+02
490             	3.04620669e+02
491             	3.04621390e+02
492             	3.04622101e+02
493             	3.04622806e+02
494             	3.04623506e+02
495             	3.04624199e+02
496             	3.04624887e+02
497             	3.04625567e+02
498             	3.04626240e+02
499             	3.04626907e+02
500             	3.04627566e+02
501             	3.04628219e+02
502             	3.04628866e+02
503             	3.04629507e+02
504             	3.04630144e+02
505             	3.04630778e+02
506             	3.04631398e+02
507             	3.04632014e+02
508             	3.04632626e+02
509             	3.04633239e+02
510             	3.04633853e+02
511             	3.04634455e+02
512             	3.04635044e+02
513             	3.04635626e+02
514             	3.04636189e+02
515             	3.04636753e+02
516             	3.04637322e+02
517             	3.04637891e+02
518             	3.04638456e+02
519             	3.04639016e+02
520             	3.04639573e+02
521             	3.04640125e+02
522             	3.04640667e+02
523             	3.04641207e+02
524             	3.04641742e+02
525             	3.04642271e+02
526             	3.04642794e+02
527             	3.04643312e+02
528             	3.04643824e+02
529             	3.04644332e+02
530             	3.04644834e+02
531             	3.04645337e+02
532             	3.04645830e+02
533             	3.04646325e+02
534             	3.04646815e+02
535             	3.04647303e+02
536             	3.04647788e+02
537             	3.04648267e+02
538             	3.04648738e+02
539             	3.04649204e+02
540             	3.04649664e+02
541             	3.04650119e+02
542             	3.04650570e+02
543             	3.04651018e+02
544             	3.04651461e+02
545             	3.04651898e+02
546             	3.04652331e+02
547             	3.04652760e+02
548             	3.04653183e+02
549             	3.04653604e+02
550             	3.04654025e+02
551             	3.04654442e+02
552             	3.04654855e+02
553             	3.04655265e+02
554             	3.04655672e+02
555             	3.04656074e+02
556             	3.04656473e+02
557             	3.04656867e+02
558             	3.04657258e+02
559             	3.04657644e+02
560             	3.04658027e+02
561             	3.04658406e+02
562             	3.04658780e+02
563             	3.04659150e+02
564             	3.04659517e+02
565             	3.04659881e+02
566             	3.04660240e+02
567             	3.04660595e+02
568             	3.04660947e+02
569             	3.04661296e+02
570             	3.04661641e+02
571             	3.04661984e+02
572             	3.04662324e+02
573             	3.04662662e+02
574             	3.04662996e+02
575             	3.04663328e+02
576             	3.04663657e+02
577             	3.04663982e+02
578             	3.04664305e+02
579             	3.04664627e+02
580             	3.04664946e+02
581             	3.04665263e+02
582             	3.04665576e+02
583             	3.04665885e+02
584             	3.04666192e+02
585             	3.04666495e+02
586             	3.04666794e+02
587             	3.04667092e+02
588             	3.04667390e+02
589             	3.04667685e+02
590             	3.04667978e+02
591             	3.04668267e+02
592             	3.04668554e+02
593             	3.04668837e+02
594             	3.04669119e+02
595             	3.04669398e+02
596             	3.04669675e+02
597             	3.04669950e+02
598             	3.04670222e+02
599             	3.04670493e+02
600             	3.04670760e+02
601             	3.04671024e+02
602             	3.04671286e+02
603             	3.04671546e+02
604             	3.04671803e+02
605             	3.04672057e+02
606             	3.04672308e+02
607             	3.04672553e+02
608             	3.04672798e+02
609             	3.04673044e+02
610             	3.04673287e+02
611             	3.04673527e+02
612             	3.04673763e+02
613             	3.04673996e+02
614             	3.04674227e+02
615             	3.04674457e+02
616             	3.04674686e+02
617             	3.04674914e+02
618             	3.04675142e+02
619             	3.04675369e+02
620             	3.04675595e+02
621             	3.04675817e+02
