# Region        : cellZone component_2
# Cells         : 48
# Volume        : 6.21811629e-02
# Time          	volAverage(T)
1               	3.03246673e+02
2               	3.06379596e+02
3               	3.08468565e+02
4               	3.09977532e+02
5               	3.11463954e+02
6               	3.13006978e+02
7               	3.14426553e+02
8               	3.15675520e+02
9               	3.16897841e+02
10              	3.18100687e+02
11              	3.19237019e+02
12              	3.20177672e+02
13              	3.21010022e+02
14              	3.21773189e+02
15              	3.22649700e+02
16              	3.23396676e+02
17              	3.24072957e+02
18              	3.24674396e+02
19              	3.24820652e+02
20              	3.24643438e+02
21              	3.24592393e+02
22              	3.25028273e+02
23              	3.25706681e+02
24              	3.26350837e+02
25              	3.26951031e+02
26              	3.27538399e+02
27              	3.27975142e+02
28              	3.28301921e+02
29              	3.28549256e+02
30              	3.28806318e+02
31              	3.29133306e+02
32              	3.29499264e+02
33              	3.29764951e+02
34              	3.29908105e+02
35              	3.30026722e+02
36              	3.30256730e+02
37              	3.30348487e+02
38              	3.30306021e+02
39              	3.30308242e+02
40              	3.30327261e+02
41              	3.30470974e+02
42              	3.30693208e+02
43              	3.30842840e+02
44              	3.30926823e+02
45              	3.31022692e+02
46              	3.31106983e+02
47              	3.31217022e+02
48              	3.31321110e+02
49              	3.31454489e+02
50              	3.31493642e+02
51              	3.31572728e+02
52              	3.31669045e+02
53              	3.31890463e+02
54              	3.32171017e+02
55              	3.32520717e+02
56              	3.32909152e+02
57              	3.33133940e+02
58              	3.33281321e+02
59              	3.33398617e+02
60              	3.33469763e+02
61              	3.33607777e+02
62              	3.33636564e+02
63              	3.33625587e+02
64              	3.33483664e+02
65              	3.33371571e+02
66              	3.33390776e+02
67              	3.33503557e+02
68              	3.33558312e+02
69              	3.33562105e+02
70              	3.33503386e+02
71              	3.33499795e+02
72              	3.33531662e+02
73              	3.33658450e+02
74              	3.33811274e+02
75              	3.33896962e+02
76              	3.33894720e+02
77              	3.33874969e+02
78              	3.33859471e+02
79              	3.33907769e+02
80              	3.34018396e+02
81              	3.34146327e+02
82              	3.34271174e+02
83              	3.34408576e+02
84              	3.34575903e+02
85              	3.34774843e+02
86              	3.34975661e+02
87              	3.35209016e+02
88              	3.35417738e+02
89              	3.35605385e+02
90              	3.35765085e+02
91              	3.35900422e+02
92              	3.35994598e+02
93              	3.36050921e+02
94              	3.36124151e+02
95              	3.36136962e+02
96              	3.36165068e+02
97              	3.36108981e+02
98              	3.36066378e+02
99              	3.36074269e+02
100             	3.36187672e+02
101             	3.36281776e+02
102             	3.36256510e+02
103             	3.36264038e+02
104             	3.36327076e+02
105             	3.36429048e+02
106             	3.36515456e+02
107             	3.36557430e+02
108             	3.36555074e+02
109             	3.36495946e+02
110             	3.36428233e+02
111             	3.36358052e+02
112             	3.36338160e+02
113             	3.36339540e+02
114             	3.36378784e+02
115             	3.36432235e+02
116             	3.36479053e+02
117             	3.36509975e+02
118             	3.36596343e+02
119             	3.36744759e+02
120             	3.36918958e+02
121             	3.37085411e+02
122             	3.37193891e+02
123             	3.37231665e+02
124             	3.37203557e+02
125             	3.37192582e+02
126             	3.37172080e+02
127             	3.37172239e+02
128             	3.37199071e+02
129             	3.37214490e+02
130             	3.37175323e+02
131             	3.37191762e+02
132             	3.37254154e+02
133             	3.37356548e+02
134             	3.37484324e+02
135             	3.37609608e+02
136             	3.37729134e+02
137             	3.37846901e+02
138             	3.37944838e+02
139             	3.38009752e+02
140             	3.38079699e+02
141             	3.38149065e+02
142             	3.38251614e+02
143             	3.38367202e+02
144             	3.38449508e+02
145             	3.38510943e+02
146             	3.38559020e+02
147             	3.38595305e+02
148             	3.38633967e+02
149             	3.38693988e+02
150             	3.38772319e+02
151             	3.38859069e+02
152             	3.38953333e+02
153             	3.39049348e+02
154             	3.39171488e+02
155             	3.39317143e+02
156             	3.39467009e+02
157             	3.39570206e+02
158             	3.39700417e+02
159             	3.39852905e+02
160             	3.40011198e+02
161             	3.40157264e+02
162             	3.40269167e+02
163             	3.40372253e+02
164             	3.40478938e+02
165             	3.40556740e+02
166             	3.40614177e+02
167             	3.40669509e+02
168             	3.40676051e+02
169             	3.40675115e+02
170             	3.40696975e+02
171             	3.40734575e+02
172             	3.40779019e+02
173             	3.40828232e+02
174             	3.40882014e+02
175             	3.40942843e+02
176             	3.40994539e+02
177             	3.41036912e+02
178             	3.41090900e+02
179             	3.41150919e+02
180             	3.41206079e+02
181             	3.41209530e+02
182             	3.41223607e+02
183             	3.41268579e+02
184             	3.41323374e+02
185             	3.41376019e+02
186             	3.41424859e+02
187             	3.41468033e+02
188             	3.41512788e+02
189             	3.41558617e+02
190             	3.41603976e+02
191             	3.41676419e+02
192             	3.41714493e+02
193             	3.41717119e+02
194             	3.41730893e+02
195             	3.41785218e+02
196             	3.41842201e+02
197             	3.41876947e+02
198             	3.41908260e+02
199             	3.41955386e+02
200             	3.41993700e+02
201             	3.42037812e+02
202             	3.42080685e+02
203             	3.42121477e+02
204             	3.42164356e+02
205             	3.42209181e+02
206             	3.42255509e+02
207             	3.42302401e+02
208             	3.42295169e+02
209             	3.42320734e+02
210             	3.42364023e+02
211             	3.42405820e+02
212             	3.42439603e+02
213             	3.42470514e+02
214             	3.42496219e+02
215             	3.42515998e+02
216             	3.42537088e+02
217             	3.42549680e+02
218             	3.42570753e+02
219             	3.42595347e+02
220             	3.42624388e+02
221             	3.42662854e+02
222             	3.42701752e+02
223             	3.42737001e+02
224             	3.42768047e+02
225             	3.42799657e+02
226             	3.42805094e+02
227             	3.42822431e+02
228             	3.42840988e+02
229             	3.42864225e+02
230             	3.42888390e+02
231             	3.42899189e+02
232             	3.42896625e+02
233             	3.42908621e+02
234             	3.42916837e+02
235             	3.42910888e+02
236             	3.42906958e+02
237             	3.42913645e+02
238             	3.42926466e+02
239             	3.42928906e+02
240             	3.42933441e+02
241             	3.42941189e+02
242             	3.42949837e+02
243             	3.42959229e+02
244             	3.42942515e+02
245             	3.42940727e+02
246             	3.42958951e+02
247             	3.42982232e+02
248             	3.42998285e+02
249             	3.43005019e+02
250             	3.43006719e+02
251             	3.43008433e+02
252             	3.43031174e+02
253             	3.43016238e+02
254             	3.42997468e+02
255             	3.42997091e+02
256             	3.42998248e+02
257             	3.43009535e+02
258             	3.43022624e+02
259             	3.43029571e+02
260             	3.43031326e+02
261             	3.43032829e+02
262             	3.43039825e+02
263             	3.43053146e+02
264             	3.43068140e+02
265             	3.43078592e+02
266             	3.43087710e+02
267             	3.43088196e+02
268             	3.43090479e+02
269             	3.43096081e+02
270             	3.43102450e+02
271             	3.43106628e+02
272             	3.43108579e+02
273             	3.43109820e+02
274             	3.43113253e+02
275             	3.43116743e+02
276             	3.43121676e+02
277             	3.43128476e+02
278             	3.43134969e+02
279             	3.43139788e+02
280             	3.43141664e+02
281             	3.43135603e+02
282             	3.43131952e+02
283             	3.43132871e+02
284             	3.43132527e+02
285             	3.43128851e+02
286             	3.43122540e+02
287             	3.43124797e+02
288             	3.43131379e+02
289             	3.43137950e+02
290             	3.43144056e+02
291             	3.43148803e+02
292             	3.43149537e+02
293             	3.43145507e+02
294             	3.43138807e+02
295             	3.43125177e+02
296             	3.43122423e+02
297             	3.43122167e+02
298             	3.43119764e+02
299             	3.43120509e+02
300             	3.43123679e+02
301             	3.43125862e+02
302             	3.43124968e+02
303             	3.43124282e+02
304             	3.43132033e+02
305             	3.43137178e+02
306             	3.43142051e+02
307             	3.43137288e+02
308             	3.43133309e+02
309             	3.43133667e+02
310             	3.43136111e+02
311             	3.43137861e+02
312             	3.43136680e+02
313             	3.43126995e+02
314             	3.43119294e+02
315             	3.43121997e+02
316             	3.43128330e+02
317             	3.43134073e+02
318             	3.43137481e+02
319             	3.43142760e+02
320             	3.43142068e+02
321             	3.43139318e+02
322             	3.43138475e+02
323             	3.43138569e+02
324             	3.43142428e+02
325             	3.43139667e+02
326             	3.43134359e+02
327             	3.43132344e+02
328             	3.43132482e+02
329             	3.43131310e+02
330             	3.43131639e+02
331             	3.43132595e+02
332             	3.43138984e+02
333             	3.43142180e+02
334             	3.43142848e+02
335             	3.43141318e+02
336             	3.43147113e+02
337             	3.43156535e+02
338             	3.43163828e+02
339             	3.43166774e+02
340             	3.43168012e+02
341             	3.43170018e+02
342             	3.43176614e+02
343             	3.43172368e+02
344             	3.43168584e+02
345             	3.43167694e+02
346             	3.43165529e+02
347             	3.43164735e+02
348             	3.43163513e+02
349             	3.43160272e+02
350             	3.43152345e+02
351             	3.43144520e+02
352             	3.43145595e+02
353             	3.43151847e+02
354             	3.43158420e+02
355             	3.43164255e+02
356             	3.43168356e+02
357             	3.43171612e+02
358             	3.43174023e+02
359             	3.43176043e+02
360             	3.43178357e+02
361             	3.43179859e+02
362             	3.43181145e+02
363             	3.43181809e+02
364             	3.43183073e+02
365             	3.43178847e+02
366             	3.43172686e+02
367             	3.43168269e+02
368             	3.43166332e+02
369             	3.43167852e+02
370             	3.43170290e+02
371             	3.43171550e+02
372             	3.43168090e+02
373             	3.43159340e+02
374             	3.43159166e+02
375             	3.43165888e+02
376             	3.43170643e+02
377             	3.43174088e+02
378             	3.43177346e+02
379             	3.43180585e+02
380             	3.43185698e+02
381             	3.43188009e+02
382             	3.43183864e+02
383             	3.43181412e+02
384             	3.43181598e+02
385             	3.43182577e+02
386             	3.43182388e+02
387             	3.43181328e+02
388             	3.43180109e+02
389             	3.43170407e+02
390             	3.43167612e+02
391             	3.43170728e+02
392             	3.43175280e+02
393             	3.43178253e+02
394             	3.43179391e+02
395             	3.43179350e+02
396             	3.43179066e+02
397             	3.43178544e+02
398             	3.43177502e+02
399             	3.43175992e+02
400             	3.43174023e+02
401             	3.43170944e+02
402             	3.43167787e+02
403             	3.43165402e+02
404             	3.43162560e+02
405             	3.43154553e+02
406             	3.43146260e+02
407             	3.43141122e+02
408             	3.43139478e+02
409             	3.43140072e+02
410             	3.43141317e+02
411             	3.43142378e+02
412             	3.43141730e+02
413             	3.43135578e+02
414             	3.43135578e+02
415             	3.43140012e+02
416             	3.43143975e+02
417             	3.43142873e+02
418             	3.43142088e+02
419             	3.43144965e+02
420             	3.43149003e+02
421             	3.43155141e+02
422             	3.43153813e+02
423             	3.43148682e+02
424             	3.43146245e+02
425             	3.43148195e+02
426             	3.43149889e+02
427             	3.43140976e+02
428             	3.43136319e+02
429             	3.43135042e+02
430             	3.43135736e+02
431             	3.43137160e+02
432             	3.43140057e+02
433             	3.43144151e+02
434             	3.43147773e+02
435             	3.43150038e+02
436             	3.43150975e+02
437             	3.43151002e+02
438             	3.43150799e+02
439             	3.43151764e+02
440             	3.43150565e+02
441             	3.43148175e+02
442             	3.43144012e+02
443             	3.43140880e+02
444             	3.43139940e+02
445             	3.43140421e+02
446             	3.43142577e+02
447             	3.43143457e+02
448             	3.43137947e+02
449             	3.43138637e+02
450             	3.43144291e+02
451             	3.43150083e+02
452             	3.43156461e+02
453             	3.43159577e+02
454             	3.43160171e+02
455             	3.43160194e+02
456             	3.43160716e+02
457             	3.43161076e+02
458             	3.43160640e+02
459             	3.43160689e+02
460             	3.43160220e+02
461             	3.43158545e+02
462             	3.43154880e+02
463             	3.43151400e+02
464             	3.43149493e+02
465             	3.43148821e+02
466             	3.43149174e+02
467             	3.43151159e+02
468             	3.43154577e+02
469             	3.43156494e+02
470             	3.43159007e+02
471             	3.43162505e+02
472             	3.43164477e+02
473             	3.43162185e+02
474             	3.43162470e+02
475             	3.43164872e+02
476             	3.43167138e+02
477             	3.43168362e+02
478             	3.43168149e+02
479             	3.43167807e+02
480             	3.43167900e+02
481             	3.43168228e+02
482             	3.43167635e+02
483             	3.43166442e+02
484             	3.43164842e+02
485             	3.43163441e+02
486             	3.43162587e+02
487             	3.43165049e+02
488             	3.43163623e+02
489             	3.43160902e+02
490             	3.43160212e+02
491             	3.43160444e+02
492             	3.43161906e+02
493             	3.43163054e+02
494             	3.43164964e+02
495             	3.43168553e+02
496             	3.43172417e+02
497             	3.43176406e+02
498             	3.43176912e+02
499             	3.43178308e+02
500             	3.43179990e+02
501             	3.43181703e+02
502             	3.43182923e+02
503             	3.43183940e+02
504             	3.43184507e+02
505             	3.43184055e+02
506             	3.43182714e+02
507             	3.43182389e+02
508             	3.43182560e+02
509             	3.43182559e+02
510             	3.43182112e+02
511             	3.43181158e+02
512             	3.43181207e+02
513             	3.43182715e+02
514             	3.43186959e+02
515             	3.43190806e+02
516             	3.43189921e+02
517             	3.43186786e+02
518             	3.43185052e+02
519             	3.43183423e+02
520             	3.43182854e+02
521             	3.43183059e+02
522             	3.43186438e+02
523             	3.43190033e+02
524             	3.43191396e+02
525             	3.43191056e+02
526             	3.43190732e+02
527             	3.43190853e+02
528             	3.43192447e+02
529             	3.43192713e+02
530             	3.43191343e+02
531             	3.43191209e+02
532             	3.43192821e+02
533             	3.43195681e+02
534             	3.43197537e+02
535             	3.43198309e+02
536             	3.43198073e+02
537             	3.43199010e+02
538             	3.43198840e+02
539             	3.43197587e+02
540             	3.43194921e+02
541             	3.43191589e+02
542             	3.43188490e+02
543             	3.43186588e+02
544             	3.43186205e+02
545             	3.43183643e+02
546             	3.43177433e+02
547             	3.43177126e+02
548             	3.43180599e+02
549             	3.43185241e+02
550             	3.43189887e+02
551             	3.43190578e+02
552             	3.43189556e+02
553             	3.43189301e+02
554             	3.43189741e+02
555             	3.43190203e+02
556             	3.43189187e+02
557             	3.43187867e+02
558             	3.43186953e+02
559             	3.43183837e+02
560             	3.43182216e+02
561             	3.43182174e+02
562             	3.43183127e+02
563             	3.43184348e+02
564             	3.43186656e+02
565             	3.43190345e+02
566             	3.43193755e+02
567             	3.43196221e+02
568             	3.43196012e+02
569             	3.43197980e+02
570             	3.43201606e+02
571             	3.43204549e+02
572             	3.43206082e+02
573             	3.43206617e+02
574             	3.43206562e+02
575             	3.43206066e+02
576             	3.43204799e+02
577             	3.43206446e+02
578             	3.43208033e+02
579             	3.43208274e+02
580             	3.43207374e+02
581             	3.43207020e+02
582             	3.43207855e+02
583             	3.43207778e+02
584             	3.43206868e+02
585             	3.43205867e+02
586             	3.43202710e+02
587             	3.43197970e+02
588             	3.43197440e+02
589             	3.43199440e+02
590             	3.43201712e+02
591             	3.43203626e+02
592             	3.43204868e+02
593             	3.43205161e+02
594             	3.43204307e+02
595             	3.43203095e+02
596             	3.43201483e+02
597             	3.43200468e+02
598             	3.43197826e+02
599             	3.43194375e+02
600             	3.43192178e+02
601             	3.43189678e+02
602             	3.43188412e+02
603             	3.43188765e+02
604             	3.43190495e+02
605             	3.43193720e+02
606             	3.43196044e+02
607             	3.43198314e+02
608             	3.43198693e+02
609             	3.43198209e+02
610             	3.43198297e+02
611             	3.43199093e+02
612             	3.43199944e+02
613             	3.43200508e+02
614             	3.43200704e+02
615             	3.43197596e+02
616             	3.43192132e+02
617             	3.43191118e+02
618             	3.43193391e+02
619             	3.43196484e+02
620             	3.43199862e+02
621             	3.43200831e+02
