# Region        : cellZone component_2
# Cells         : 272
# Volume        : 5.45027807e-01
# Time          	volAverage(T)
1               	3.00125467e+02
2               	3.00249708e+02
3               	3.00367639e+02
4               	3.00480642e+02
5               	3.00590639e+02
6               	3.00698557e+02
7               	3.00803609e+02
8               	3.00907838e+02
9               	3.01010534e+02
10              	3.01111556e+02
11              	3.01211361e+02
12              	3.01310439e+02
13              	3.01407226e+02
14              	3.01504572e+02
15              	3.01601322e+02
16              	3.01696868e+02
17              	3.01791420e+02
18              	3.01886074e+02
19              	3.01978333e+02
20              	3.02069677e+02
21              	3.02159475e+02
22              	3.02247941e+02
23              	3.02334794e+02
24              	3.02419480e+02
25              	3.02500687e+02
26              	3.02579764e+02
27              	3.02657586e+02
28              	3.02733409e+02
29              	3.02806919e+02
30              	3.02878510e+02
31              	3.02950431e+02
32              	3.03022674e+02
33              	3.03094286e+02
34              	3.03169939e+02
35              	3.03243998e+02
36              	3.03321083e+02
37              	3.03395840e+02
38              	3.03463444e+02
39              	3.03528460e+02
40              	3.03596441e+02
41              	3.03663412e+02
42              	3.03727940e+02
43              	3.03792261e+02
44              	3.03853283e+02
45              	3.03911883e+02
46              	3.03969822e+02
47              	3.04025764e+02
48              	3.04078021e+02
49              	3.04129529e+02
50              	3.04181334e+02
51              	3.04234343e+02
52              	3.04284570e+02
53              	3.04332314e+02
54              	3.04382120e+02
55              	3.04432693e+02
56              	3.04482549e+02
57              	3.04531053e+02
58              	3.04578689e+02
59              	3.04625494e+02
60              	3.04674048e+02
61              	3.04721132e+02
62              	3.04768059e+02
63              	3.04816597e+02
64              	3.04862776e+02
65              	3.04907733e+02
66              	3.04951502e+02
67              	3.04994433e+02
68              	3.05035204e+02
69              	3.05074766e+02
70              	3.05113024e+02
71              	3.05150292e+02
72              	3.05187457e+02
73              	3.05225427e+02
74              	3.05262951e+02
75              	3.05301863e+02
76              	3.05341198e+02
77              	3.05381687e+02
78              	3.05422087e+02
79              	3.05460700e+02
80              	3.05498469e+02
81              	3.05534245e+02
82              	3.05567871e+02
83              	3.05599872e+02
84              	3.05630533e+02
85              	3.05661444e+02
86              	3.05691724e+02
87              	3.05721005e+02
88              	3.05749715e+02
89              	3.05777691e+02
90              	3.05806893e+02
91              	3.05835571e+02
92              	3.05863214e+02
93              	3.05890721e+02
94              	3.05917729e+02
95              	3.05943946e+02
96              	3.05970255e+02
97              	3.05997148e+02
98              	3.06024051e+02
99              	3.06051840e+02
100             	3.06080115e+02
101             	3.06109236e+02
102             	3.06137575e+02
103             	3.06165151e+02
104             	3.06192050e+02
105             	3.06218128e+02
106             	3.06244046e+02
107             	3.06269517e+02
108             	3.06294299e+02
109             	3.06318983e+02
110             	3.06343311e+02
111             	3.06367459e+02
112             	3.06391572e+02
113             	3.06415721e+02
114             	3.06439821e+02
115             	3.06463706e+02
116             	3.06488176e+02
117             	3.06513130e+02
118             	3.06538498e+02
119             	3.06564253e+02
120             	3.06590187e+02
121             	3.06616239e+02
122             	3.06642559e+02
123             	3.06668909e+02
124             	3.06695595e+02
125             	3.06722467e+02
126             	3.06748272e+02
127             	3.06774105e+02
128             	3.06799442e+02
129             	3.06823402e+02
130             	3.06847136e+02
131             	3.06869525e+02
132             	3.06891318e+02
133             	3.06912654e+02
134             	3.06932505e+02
135             	3.06951710e+02
136             	3.06970290e+02
137             	3.06988046e+02
138             	3.07005668e+02
139             	3.07023259e+02
140             	3.07040925e+02
141             	3.07058679e+02
142             	3.07076969e+02
143             	3.07095655e+02
144             	3.07114807e+02
145             	3.07133910e+02
146             	3.07152129e+02
147             	3.07169802e+02
148             	3.07187106e+02
149             	3.07204029e+02
150             	3.07220439e+02
151             	3.07236407e+02
152             	3.07251938e+02
153             	3.07267687e+02
154             	3.07283597e+02
155             	3.07299941e+02
156             	3.07316760e+02
157             	3.07334135e+02
158             	3.07351164e+02
159             	3.07367613e+02
160             	3.07383305e+02
161             	3.07398029e+02
162             	3.07411959e+02
163             	3.07425409e+02
164             	3.07438721e+02
165             	3.07451770e+02
166             	3.07464617e+02
167             	3.07477672e+02
168             	3.07490188e+02
169             	3.07502537e+02
170             	3.07514927e+02
171             	3.07527520e+02
172             	3.07540308e+02
173             	3.07553500e+02
174             	3.07567064e+02
175             	3.07580850e+02
176             	3.07594559e+02
177             	3.07607975e+02
178             	3.07620643e+02
179             	3.07632567e+02
180             	3.07644129e+02
181             	3.07655171e+02
182             	3.07665229e+02
183             	3.07674931e+02
184             	3.07684197e+02
185             	3.07693679e+02
186             	3.07703114e+02
187             	3.07712325e+02
188             	3.07721443e+02
189             	3.07730651e+02
190             	3.07740115e+02
191             	3.07749889e+02
192             	3.07760173e+02
193             	3.07770913e+02
194             	3.07782080e+02
195             	3.07793006e+02
196             	3.07803978e+02
197             	3.07814388e+02
198             	3.07824383e+02
199             	3.07834165e+02
200             	3.07843556e+02
201             	3.07852542e+02
202             	3.07861301e+02
203             	3.07869837e+02
204             	3.07878480e+02
205             	3.07887275e+02
206             	3.07896433e+02
207             	3.07905742e+02
208             	3.07915098e+02
209             	3.07924485e+02
210             	3.07933922e+02
211             	3.07942228e+02
212             	3.07950089e+02
213             	3.07957780e+02
214             	3.07965495e+02
215             	3.07973580e+02
216             	3.07981781e+02
217             	3.07989656e+02
218             	3.07997336e+02
219             	3.08004686e+02
220             	3.08012001e+02
221             	3.08019294e+02
222             	3.08026636e+02
223             	3.08034031e+02
224             	3.08041285e+02
225             	3.08048747e+02
226             	3.08056226e+02
227             	3.08063130e+02
228             	3.08069907e+02
229             	3.08076214e+02
230             	3.08082118e+02
231             	3.08088086e+02
232             	3.08093714e+02
233             	3.08099642e+02
234             	3.08105851e+02
235             	3.08112401e+02
236             	3.08119114e+02
237             	3.08125618e+02
238             	3.08132245e+02
239             	3.08138822e+02
240             	3.08145210e+02
241             	3.08150737e+02
242             	3.08156155e+02
243             	3.08161456e+02
244             	3.08166348e+02
245             	3.08170864e+02
246             	3.08175296e+02
247             	3.08179958e+02
248             	3.08184818e+02
249             	3.08190033e+02
250             	3.08195516e+02
251             	3.08201399e+02
252             	3.08207208e+02
253             	3.08212865e+02
254             	3.08218318e+02
255             	3.08223180e+02
256             	3.08227440e+02
257             	3.08231471e+02
258             	3.08235353e+02
259             	3.08238942e+02
260             	3.08242136e+02
261             	3.08245931e+02
262             	3.08250096e+02
263             	3.08254615e+02
264             	3.08259842e+02
265             	3.08265466e+02
266             	3.08271083e+02
267             	3.08276636e+02
268             	3.08281936e+02
269             	3.08287244e+02
270             	3.08292445e+02
271             	3.08297477e+02
272             	3.08302129e+02
273             	3.08306425e+02
274             	3.08310493e+02
275             	3.08314299e+02
276             	3.08318259e+02
277             	3.08321909e+02
278             	3.08325296e+02
279             	3.08328762e+02
280             	3.08332363e+02
281             	3.08336091e+02
282             	3.08339904e+02
283             	3.08343758e+02
284             	3.08347659e+02
285             	3.08351629e+02
286             	3.08355354e+02
287             	3.08358931e+02
288             	3.08362069e+02
289             	3.08365148e+02
290             	3.08368223e+02
291             	3.08371354e+02
292             	3.08374521e+02
293             	3.08377720e+02
294             	3.08380979e+02
295             	3.08384129e+02
296             	3.08387574e+02
297             	3.08391017e+02
298             	3.08394435e+02
299             	3.08397857e+02
300             	3.08401343e+02
301             	3.08404873e+02
302             	3.08408492e+02
303             	3.08411803e+02
304             	3.08414878e+02
305             	3.08418013e+02
306             	3.08420789e+02
307             	3.08423760e+02
308             	3.08426600e+02
309             	3.08429351e+02
310             	3.08431975e+02
311             	3.08434535e+02
312             	3.08436982e+02
313             	3.08439134e+02
314             	3.08441206e+02
315             	3.08443531e+02
316             	3.08446032e+02
317             	3.08448640e+02
318             	3.08451313e+02
319             	3.08454043e+02
320             	3.08456971e+02
321             	3.08460288e+02
322             	3.08463823e+02
323             	3.08467194e+02
324             	3.08470565e+02
325             	3.08473931e+02
326             	3.08477194e+02
327             	3.08480278e+02
328             	3.08483119e+02
329             	3.08485625e+02
330             	3.08487922e+02
331             	3.08490171e+02
332             	3.08492278e+02
333             	3.08494208e+02
334             	3.08495868e+02
335             	3.08497756e+02
336             	3.08499816e+02
337             	3.08502040e+02
338             	3.08504430e+02
339             	3.08506826e+02
340             	3.08509130e+02
341             	3.08511310e+02
342             	3.08513242e+02
343             	3.08514856e+02
344             	3.08516260e+02
345             	3.08517581e+02
346             	3.08518931e+02
347             	3.08520325e+02
348             	3.08521830e+02
349             	3.08523083e+02
350             	3.08524453e+02
351             	3.08525776e+02
352             	3.08527200e+02
353             	3.08528873e+02
354             	3.08530679e+02
355             	3.08532699e+02
356             	3.08534752e+02
357             	3.08536388e+02
358             	3.08537933e+02
359             	3.08539092e+02
360             	3.08539957e+02
361             	3.08540596e+02
362             	3.08540984e+02
363             	3.08541197e+02
364             	3.08541815e+02
365             	3.08542677e+02
366             	3.08543694e+02
367             	3.08544877e+02
368             	3.08546050e+02
369             	3.08547767e+02
370             	3.08549355e+02
371             	3.08550844e+02
372             	3.08552262e+02
373             	3.08553684e+02
374             	3.08554755e+02
375             	3.08555680e+02
376             	3.08556480e+02
377             	3.08557230e+02
378             	3.08557992e+02
379             	3.08558810e+02
380             	3.08559975e+02
381             	3.08561312e+02
382             	3.08562724e+02
383             	3.08563967e+02
384             	3.08565132e+02
385             	3.08566115e+02
386             	3.08566904e+02
387             	3.08567432e+02
388             	3.08567625e+02
389             	3.08567885e+02
390             	3.08568094e+02
391             	3.08568402e+02
392             	3.08569050e+02
393             	3.08569886e+02
394             	3.08570948e+02
395             	3.08571884e+02
396             	3.08572855e+02
397             	3.08573809e+02
398             	3.08574804e+02
399             	3.08575742e+02
400             	3.08576775e+02
401             	3.08577844e+02
402             	3.08579064e+02
403             	3.08580434e+02
404             	3.08581873e+02
405             	3.08583318e+02
406             	3.08584771e+02
407             	3.08586218e+02
408             	3.08587517e+02
409             	3.08588819e+02
410             	3.08590100e+02
411             	3.08591230e+02
412             	3.08592173e+02
413             	3.08592822e+02
414             	3.08593194e+02
415             	3.08593392e+02
416             	3.08593431e+02
417             	3.08593313e+02
418             	3.08593274e+02
419             	3.08593270e+02
420             	3.08593334e+02
421             	3.08593514e+02
422             	3.08593916e+02
423             	3.08594475e+02
424             	3.08595182e+02
425             	3.08595952e+02
426             	3.08596815e+02
427             	3.08597659e+02
428             	3.08598219e+02
429             	3.08598636e+02
430             	3.08598976e+02
431             	3.08599115e+02
432             	3.08599122e+02
433             	3.08599087e+02
434             	3.08599092e+02
435             	3.08599087e+02
436             	3.08599375e+02
437             	3.08599756e+02
438             	3.08600250e+02
439             	3.08600742e+02
440             	3.08601061e+02
441             	3.08601561e+02
442             	3.08602109e+02
443             	3.08602737e+02
444             	3.08603640e+02
445             	3.08604729e+02
446             	3.08605743e+02
447             	3.08606515e+02
448             	3.08607380e+02
449             	3.08608273e+02
450             	3.08609113e+02
451             	3.08609918e+02
452             	3.08610851e+02
453             	3.08611955e+02
454             	3.08613037e+02
455             	3.08614192e+02
456             	3.08615332e+02
457             	3.08616412e+02
458             	3.08617393e+02
459             	3.08618197e+02
460             	3.08618785e+02
461             	3.08619199e+02
462             	3.08619528e+02
463             	3.08619872e+02
464             	3.08620243e+02
465             	3.08620711e+02
466             	3.08621136e+02
467             	3.08621449e+02
468             	3.08621763e+02
469             	3.08622088e+02
470             	3.08622318e+02
471             	3.08622535e+02
472             	3.08622706e+02
473             	3.08622867e+02
474             	3.08623013e+02
475             	3.08623092e+02
476             	3.08623161e+02
477             	3.08623099e+02
478             	3.08623076e+02
479             	3.08623185e+02
480             	3.08623413e+02
481             	3.08623797e+02
482             	3.08624254e+02
483             	3.08624733e+02
484             	3.08625228e+02
485             	3.08625646e+02
486             	3.08626071e+02
487             	3.08626524e+02
488             	3.08627036e+02
489             	3.08627578e+02
490             	3.08628194e+02
491             	3.08629015e+02
492             	3.08629919e+02
493             	3.08630557e+02
494             	3.08631209e+02
495             	3.08631784e+02
496             	3.08632183e+02
497             	3.08632355e+02
498             	3.08632294e+02
499             	3.08632063e+02
500             	3.08631618e+02
501             	3.08631113e+02
502             	3.08630688e+02
503             	3.08630424e+02
504             	3.08630400e+02
505             	3.08630623e+02
506             	3.08631135e+02
507             	3.08631873e+02
508             	3.08632599e+02
509             	3.08633125e+02
510             	3.08633532e+02
511             	3.08633829e+02
512             	3.08634002e+02
513             	3.08634007e+02
514             	3.08633915e+02
515             	3.08633807e+02
516             	3.08633511e+02
517             	3.08633294e+02
518             	3.08633196e+02
519             	3.08633307e+02
520             	3.08633287e+02
521             	3.08633469e+02
522             	3.08633687e+02
523             	3.08634110e+02
524             	3.08634611e+02
525             	3.08635093e+02
526             	3.08635515e+02
527             	3.08635956e+02
528             	3.08636397e+02
529             	3.08636659e+02
530             	3.08636764e+02
531             	3.08636633e+02
532             	3.08636333e+02
533             	3.08635944e+02
534             	3.08635551e+02
535             	3.08635346e+02
536             	3.08635191e+02
537             	3.08635057e+02
538             	3.08634910e+02
539             	3.08634767e+02
540             	3.08634765e+02
541             	3.08634844e+02
542             	3.08635001e+02
543             	3.08635280e+02
544             	3.08635736e+02
545             	3.08636353e+02
546             	3.08637176e+02
547             	3.08638026e+02
548             	3.08638742e+02
549             	3.08639426e+02
550             	3.08639922e+02
551             	3.08640317e+02
552             	3.08640406e+02
553             	3.08640331e+02
554             	3.08640281e+02
555             	3.08640295e+02
556             	3.08640535e+02
557             	3.08640805e+02
558             	3.08641118e+02
559             	3.08641508e+02
560             	3.08641941e+02
561             	3.08642343e+02
562             	3.08642677e+02
563             	3.08642941e+02
564             	3.08643132e+02
565             	3.08643267e+02
566             	3.08643375e+02
567             	3.08643466e+02
568             	3.08643566e+02
569             	3.08643700e+02
570             	3.08643868e+02
571             	3.08644243e+02
572             	3.08644619e+02
573             	3.08645064e+02
574             	3.08645527e+02
575             	3.08645962e+02
576             	3.08646400e+02
577             	3.08646795e+02
578             	3.08647131e+02
579             	3.08647306e+02
580             	3.08647374e+02
581             	3.08647284e+02
582             	3.08647129e+02
583             	3.08646957e+02
584             	3.08646715e+02
585             	3.08646367e+02
586             	3.08646033e+02
587             	3.08645797e+02
588             	3.08645718e+02
589             	3.08645749e+02
590             	3.08645833e+02
591             	3.08645978e+02
592             	3.08646172e+02
593             	3.08646436e+02
594             	3.08646784e+02
595             	3.08647168e+02
596             	3.08647618e+02
597             	3.08648152e+02
598             	3.08648712e+02
599             	3.08649322e+02
600             	3.08649886e+02
601             	3.08650361e+02
602             	3.08650844e+02
603             	3.08651326e+02
604             	3.08651859e+02
605             	3.08652389e+02
606             	3.08652938e+02
607             	3.08653500e+02
608             	3.08654062e+02
609             	3.08654592e+02
610             	3.08655081e+02
611             	3.08655488e+02
612             	3.08655831e+02
613             	3.08656218e+02
614             	3.08656582e+02
615             	3.08657040e+02
616             	3.08657556e+02
617             	3.08658068e+02
618             	3.08658534e+02
619             	3.08658973e+02
620             	3.08659300e+02
621             	3.08659555e+02
