# Region        : cellZone component_3
# Cells         : 154
# Volume        : 3.08713912e-01
# Time          	volAverage(T)
1               	3.00556814e+02
2               	3.01100704e+02
3               	3.01563361e+02
4               	3.01968641e+02
5               	3.02353832e+02
6               	3.02729490e+02
7               	3.03095737e+02
8               	3.03445539e+02
9               	3.03780621e+02
10              	3.04101648e+02
11              	3.04413315e+02
12              	3.04722517e+02
13              	3.05027447e+02
14              	3.05323263e+02
15              	3.05615934e+02
16              	3.05899970e+02
17              	3.06175359e+02
18              	3.06434690e+02
19              	3.06685069e+02
20              	3.06929156e+02
21              	3.07164587e+02
22              	3.07390419e+02
23              	3.07610433e+02
24              	3.07827999e+02
25              	3.08048403e+02
26              	3.08273787e+02
27              	3.08494128e+02
28              	3.08714075e+02
29              	3.08930105e+02
30              	3.09138396e+02
31              	3.09326923e+02
32              	3.09493693e+02
33              	3.09657709e+02
34              	3.09817589e+02
35              	3.09967462e+02
36              	3.10109071e+02
37              	3.10247680e+02
38              	3.10384658e+02
39              	3.10530928e+02
40              	3.10684144e+02
41              	3.10833367e+02
42              	3.10979764e+02
43              	3.11121562e+02
44              	3.11250016e+02
45              	3.11374425e+02
46              	3.11490008e+02
47              	3.11595232e+02
48              	3.11699246e+02
49              	3.11801784e+02
50              	3.11900662e+02
51              	3.11997418e+02
52              	3.12091113e+02
53              	3.12188211e+02
54              	3.12293836e+02
55              	3.12402389e+02
56              	3.12518787e+02
57              	3.12629444e+02
58              	3.12729552e+02
59              	3.12824753e+02
60              	3.12903392e+02
61              	3.12975490e+02
62              	3.13033223e+02
63              	3.13085863e+02
64              	3.13132308e+02
65              	3.13181130e+02
66              	3.13223366e+02
67              	3.13264964e+02
68              	3.13309035e+02
69              	3.13357013e+02
70              	3.13410377e+02
71              	3.13468590e+02
72              	3.13522723e+02
73              	3.13575670e+02
74              	3.13643745e+02
75              	3.13701153e+02
76              	3.13745877e+02
77              	3.13787055e+02
78              	3.13833377e+02
79              	3.13882351e+02
80              	3.13926067e+02
81              	3.13962724e+02
82              	3.13998833e+02
83              	3.14040988e+02
84              	3.14074772e+02
85              	3.14115727e+02
86              	3.14150575e+02
87              	3.14191915e+02
88              	3.14226634e+02
89              	3.14270439e+02
90              	3.14320130e+02
91              	3.14363570e+02
92              	3.14402698e+02
93              	3.14435601e+02
94              	3.14469782e+02
95              	3.14499878e+02
96              	3.14537428e+02
97              	3.14571653e+02
98              	3.14604229e+02
99              	3.14631398e+02
100             	3.14652977e+02
101             	3.14671437e+02
102             	3.14699810e+02
103             	3.14738162e+02
104             	3.14768545e+02
105             	3.14790880e+02
106             	3.14816275e+02
107             	3.14830127e+02
108             	3.14852454e+02
109             	3.14865980e+02
110             	3.14876251e+02
111             	3.14883643e+02
112             	3.14900009e+02
113             	3.14910697e+02
114             	3.14918762e+02
115             	3.14924227e+02
116             	3.14941236e+02
117             	3.14959451e+02
118             	3.14979128e+02
119             	3.15002446e+02
120             	3.15028964e+02
121             	3.15055240e+02
122             	3.15086770e+02
123             	3.15116895e+02
124             	3.15139783e+02
125             	3.15159012e+02
126             	3.15177105e+02
127             	3.15196947e+02
128             	3.15217209e+02
129             	3.15237767e+02
130             	3.15255905e+02
131             	3.15268748e+02
132             	3.15286935e+02
133             	3.15309336e+02
134             	3.15329556e+02
135             	3.15345779e+02
136             	3.15357496e+02
137             	3.15359223e+02
138             	3.15357028e+02
139             	3.15361600e+02
140             	3.15373434e+02
141             	3.15386618e+02
142             	3.15403046e+02
143             	3.15419701e+02
144             	3.15435787e+02
145             	3.15453515e+02
146             	3.15473612e+02
147             	3.15492528e+02
148             	3.15511635e+02
149             	3.15530663e+02
150             	3.15548229e+02
151             	3.15566445e+02
152             	3.15579624e+02
153             	3.15587164e+02
154             	3.15595662e+02
155             	3.15593637e+02
156             	3.15594447e+02
157             	3.15594940e+02
158             	3.15599990e+02
159             	3.15608561e+02
160             	3.15618792e+02
161             	3.15630422e+02
162             	3.15643677e+02
163             	3.15656907e+02
164             	3.15669975e+02
165             	3.15682775e+02
166             	3.15694699e+02
167             	3.15705051e+02
168             	3.15712413e+02
169             	3.15721865e+02
170             	3.15735473e+02
171             	3.15747362e+02
172             	3.15750672e+02
173             	3.15754811e+02
174             	3.15762019e+02
175             	3.15768383e+02
176             	3.15775659e+02
177             	3.15783457e+02
178             	3.15791179e+02
179             	3.15799203e+02
180             	3.15808072e+02
181             	3.15817167e+02
182             	3.15826986e+02
183             	3.15836052e+02
184             	3.15844178e+02
185             	3.15843216e+02
186             	3.15846079e+02
187             	3.15844944e+02
188             	3.15845713e+02
189             	3.15849976e+02
190             	3.15856341e+02
191             	3.15863549e+02
192             	3.15871075e+02
193             	3.15878216e+02
194             	3.15884579e+02
195             	3.15891899e+02
196             	3.15899536e+02
197             	3.15907882e+02
198             	3.15915776e+02
199             	3.15925350e+02
200             	3.15933989e+02
201             	3.15941707e+02
202             	3.15948200e+02
203             	3.15952977e+02
204             	3.15959560e+02
205             	3.15966271e+02
206             	3.15974302e+02
207             	3.15982386e+02
208             	3.15989837e+02
209             	3.15996213e+02
210             	3.16000608e+02
211             	3.16007475e+02
212             	3.16008527e+02
213             	3.16010991e+02
214             	3.16015391e+02
215             	3.16020566e+02
216             	3.16025470e+02
217             	3.16030243e+02
218             	3.16034367e+02
219             	3.16037597e+02
220             	3.16041140e+02
221             	3.16044861e+02
222             	3.16048288e+02
223             	3.16053945e+02
224             	3.16059310e+02
225             	3.16063010e+02
226             	3.16069307e+02
227             	3.16075564e+02
228             	3.16079574e+02
229             	3.16082783e+02
230             	3.16088538e+02
231             	3.16096151e+02
232             	3.16101657e+02
233             	3.16105043e+02
234             	3.16106681e+02
235             	3.16109947e+02
236             	3.16111858e+02
237             	3.16114859e+02
238             	3.16115254e+02
239             	3.16115501e+02
240             	3.16115120e+02
241             	3.16114369e+02
242             	3.16114705e+02
243             	3.16115869e+02
244             	3.16117978e+02
245             	3.16120613e+02
246             	3.16124414e+02
247             	3.16129197e+02
248             	3.16132681e+02
249             	3.16135196e+02
250             	3.16136611e+02
251             	3.16138138e+02
252             	3.16139318e+02
253             	3.16141877e+02
254             	3.16145367e+02
255             	3.16148726e+02
256             	3.16151436e+02
257             	3.16153157e+02
258             	3.16152273e+02
259             	3.16152562e+02
260             	3.16149838e+02
261             	3.16149024e+02
262             	3.16149860e+02
263             	3.16149600e+02
264             	3.16149663e+02
265             	3.16151185e+02
266             	3.16153114e+02
267             	3.16155111e+02
268             	3.16157527e+02
269             	3.16162824e+02
270             	3.16167397e+02
271             	3.16171713e+02
272             	3.16176262e+02
273             	3.16179665e+02
274             	3.16180603e+02
275             	3.16185897e+02
276             	3.16186346e+02
277             	3.16181717e+02
278             	3.16179014e+02
279             	3.16174997e+02
280             	3.16169783e+02
281             	3.16164079e+02
282             	3.16160000e+02
283             	3.16159394e+02
284             	3.16159873e+02
285             	3.16160863e+02
286             	3.16162160e+02
287             	3.16166344e+02
288             	3.16172388e+02
289             	3.16176782e+02
290             	3.16181752e+02
291             	3.16185671e+02
292             	3.16190335e+02
293             	3.16194879e+02
294             	3.16198702e+02
295             	3.16201654e+02
296             	3.16203946e+02
297             	3.16205811e+02
298             	3.16207597e+02
299             	3.16209951e+02
300             	3.16212533e+02
301             	3.16215088e+02
302             	3.16217495e+02
303             	3.16219480e+02
304             	3.16220533e+02
305             	3.16220326e+02
306             	3.16221202e+02
307             	3.16220498e+02
308             	3.16217508e+02
309             	3.16212173e+02
310             	3.16205005e+02
311             	3.16196183e+02
312             	3.16185395e+02
313             	3.16178192e+02
314             	3.16171106e+02
315             	3.16163834e+02
316             	3.16156911e+02
317             	3.16151339e+02
318             	3.16148331e+02
319             	3.16148725e+02
320             	3.16152550e+02
321             	3.16155638e+02
322             	3.16157808e+02
323             	3.16161246e+02
324             	3.16166245e+02
325             	3.16170944e+02
326             	3.16174424e+02
327             	3.16175878e+02
328             	3.16175011e+02
329             	3.16171286e+02
330             	3.16169956e+02
331             	3.16167854e+02
332             	3.16164694e+02
333             	3.16160545e+02
334             	3.16155863e+02
335             	3.16153765e+02
336             	3.16152745e+02
337             	3.16153844e+02
338             	3.16156870e+02
339             	3.16160264e+02
340             	3.16165552e+02
341             	3.16169916e+02
342             	3.16173468e+02
343             	3.16178143e+02
344             	3.16183285e+02
345             	3.16188061e+02
346             	3.16191494e+02
347             	3.16193097e+02
348             	3.16192698e+02
349             	3.16189164e+02
350             	3.16188177e+02
351             	3.16186906e+02
352             	3.16184861e+02
353             	3.16182048e+02
354             	3.16181510e+02
355             	3.16181103e+02
356             	3.16178947e+02
357             	3.16178882e+02
358             	3.16179366e+02
359             	3.16179945e+02
360             	3.16180394e+02
361             	3.16180742e+02
362             	3.16181114e+02
363             	3.16181678e+02
364             	3.16182801e+02
365             	3.16184877e+02
366             	3.16186416e+02
367             	3.16187093e+02
368             	3.16186007e+02
369             	3.16185826e+02
370             	3.16185853e+02
371             	3.16186038e+02
372             	3.16187450e+02
373             	3.16187819e+02
374             	3.16189848e+02
375             	3.16189798e+02
376             	3.16190070e+02
377             	3.16190722e+02
378             	3.16191283e+02
379             	3.16191699e+02
380             	3.16191801e+02
381             	3.16191579e+02
382             	3.16191305e+02
383             	3.16191082e+02
384             	3.16190685e+02
385             	3.16190238e+02
386             	3.16190270e+02
387             	3.16192792e+02
388             	3.16193593e+02
389             	3.16196622e+02
390             	3.16197268e+02
391             	3.16198347e+02
392             	3.16200160e+02
393             	3.16202781e+02
394             	3.16204348e+02
395             	3.16204863e+02
396             	3.16206377e+02
397             	3.16209006e+02
398             	3.16212507e+02
399             	3.16216150e+02
400             	3.16219572e+02
401             	3.16221497e+02
402             	3.16222171e+02
403             	3.16220916e+02
404             	3.16220559e+02
405             	3.16218980e+02
406             	3.16215256e+02
407             	3.16213624e+02
408             	3.16212943e+02
409             	3.16210604e+02
410             	3.16207390e+02
411             	3.16204266e+02
412             	3.16201938e+02
413             	3.16202529e+02
414             	3.16202911e+02
415             	3.16204616e+02
416             	3.16207597e+02
417             	3.16211516e+02
418             	3.16216671e+02
419             	3.16219750e+02
420             	3.16224001e+02
421             	3.16229278e+02
422             	3.16234966e+02
423             	3.16239098e+02
424             	3.16242954e+02
425             	3.16247176e+02
426             	3.16250978e+02
427             	3.16253948e+02
428             	3.16255764e+02
429             	3.16256477e+02
430             	3.16255819e+02
431             	3.16257330e+02
432             	3.16256322e+02
433             	3.16256192e+02
434             	3.16255466e+02
435             	3.16254347e+02
436             	3.16252943e+02
437             	3.16251258e+02
438             	3.16249125e+02
439             	3.16246357e+02
440             	3.16243547e+02
441             	3.16241575e+02
442             	3.16241563e+02
443             	3.16240875e+02
444             	3.16241603e+02
445             	3.16243540e+02
446             	3.16247011e+02
447             	3.16251875e+02
448             	3.16254002e+02
449             	3.16255760e+02
450             	3.16259170e+02
451             	3.16262990e+02
452             	3.16266040e+02
453             	3.16266620e+02
454             	3.16263901e+02
455             	3.16260951e+02
456             	3.16259737e+02
457             	3.16258198e+02
458             	3.16256246e+02
459             	3.16254632e+02
460             	3.16254466e+02
461             	3.16256751e+02
462             	3.16255048e+02
463             	3.16254909e+02
464             	3.16251026e+02
465             	3.16247574e+02
466             	3.16244728e+02
467             	3.16241975e+02
468             	3.16238984e+02
469             	3.16236047e+02
470             	3.16233900e+02
471             	3.16234202e+02
472             	3.16236009e+02
473             	3.16239457e+02
474             	3.16240001e+02
475             	3.16240313e+02
476             	3.16242715e+02
477             	3.16246254e+02
478             	3.16250034e+02
479             	3.16253018e+02
480             	3.16254967e+02
481             	3.16255290e+02
482             	3.16252329e+02
483             	3.16250738e+02
484             	3.16248341e+02
485             	3.16244438e+02
486             	3.16238885e+02
487             	3.16234917e+02
488             	3.16233161e+02
489             	3.16233965e+02
490             	3.16232966e+02
491             	3.16235625e+02
492             	3.16237306e+02
493             	3.16240388e+02
494             	3.16245118e+02
495             	3.16248538e+02
496             	3.16253163e+02
497             	3.16258100e+02
498             	3.16261366e+02
499             	3.16263144e+02
500             	3.16263163e+02
501             	3.16262254e+02
502             	3.16261028e+02
503             	3.16259389e+02
504             	3.16257049e+02
505             	3.16254244e+02
506             	3.16251879e+02
507             	3.16251084e+02
508             	3.16252225e+02
509             	3.16252090e+02
510             	3.16252545e+02
511             	3.16253900e+02
512             	3.16255785e+02
513             	3.16257753e+02
514             	3.16259430e+02
515             	3.16260323e+02
516             	3.16261122e+02
517             	3.16260800e+02
518             	3.16258961e+02
519             	3.16256254e+02
520             	3.16253662e+02
521             	3.16252038e+02
522             	3.16251768e+02
523             	3.16253003e+02
524             	3.16255804e+02
525             	3.16260147e+02
526             	3.16265498e+02
527             	3.16271432e+02
528             	3.16277631e+02
529             	3.16283677e+02
530             	3.16288523e+02
531             	3.16292657e+02
532             	3.16295175e+02
533             	3.16296023e+02
534             	3.16295772e+02
535             	3.16293984e+02
536             	3.16289044e+02
537             	3.16285534e+02
538             	3.16284127e+02
539             	3.16280609e+02
540             	3.16275215e+02
541             	3.16269338e+02
542             	3.16264526e+02
543             	3.16261790e+02
544             	3.16261663e+02
545             	3.16263570e+02
546             	3.16266991e+02
547             	3.16271592e+02
548             	3.16273110e+02
549             	3.16276313e+02
550             	3.16280757e+02
551             	3.16285359e+02
552             	3.16289528e+02
553             	3.16292185e+02
554             	3.16293220e+02
555             	3.16292312e+02
556             	3.16287852e+02
557             	3.16285822e+02
558             	3.16281582e+02
559             	3.16279414e+02
560             	3.16276413e+02
561             	3.16272787e+02
562             	3.16269575e+02
563             	3.16267989e+02
564             	3.16268406e+02
565             	3.16266847e+02
566             	3.16266819e+02
567             	3.16264104e+02
568             	3.16262580e+02
569             	3.16262918e+02
570             	3.16264349e+02
571             	3.16266473e+02
572             	3.16269088e+02
573             	3.16272229e+02
574             	3.16275925e+02
575             	3.16277712e+02
576             	3.16280808e+02
577             	3.16284637e+02
578             	3.16288064e+02
579             	3.16290309e+02
580             	3.16291176e+02
581             	3.16289816e+02
582             	3.16284207e+02
583             	3.16276395e+02
584             	3.16271263e+02
585             	3.16264912e+02
586             	3.16260850e+02
587             	3.16256201e+02
588             	3.16251715e+02
589             	3.16249722e+02
590             	3.16246970e+02
591             	3.16248341e+02
592             	3.16248795e+02
593             	3.16250504e+02
594             	3.16253945e+02
595             	3.16259127e+02
596             	3.16262034e+02
597             	3.16263571e+02
598             	3.16267376e+02
599             	3.16271702e+02
600             	3.16274846e+02
601             	3.16276111e+02
602             	3.16274700e+02
603             	3.16268005e+02
604             	3.16264455e+02
605             	3.16259989e+02
606             	3.16254723e+02
607             	3.16250796e+02
608             	3.16249629e+02
609             	3.16246417e+02
610             	3.16245051e+02
611             	3.16246643e+02
612             	3.16248671e+02
613             	3.16252305e+02
614             	3.16257082e+02
615             	3.16260240e+02
616             	3.16264008e+02
617             	3.16267859e+02
618             	3.16270417e+02
619             	3.16270179e+02
620             	3.16265838e+02
621             	3.16262919e+02
