# Region        : cellZone component_1
# Cells         : 47
# Volume        : 7.88126911e-02
# Time          	volAverage(T)
1               	3.01069506e+02
2               	3.02115896e+02
3               	3.03070843e+02
4               	3.03958477e+02
5               	3.04802704e+02
6               	3.05614215e+02
7               	3.06397984e+02
8               	3.07158936e+02
9               	3.07900594e+02
10              	3.08621030e+02
11              	3.09329088e+02
12              	3.10034105e+02
13              	3.10733760e+02
14              	3.11395705e+02
15              	3.11989878e+02
16              	3.12500088e+02
17              	3.12959266e+02
18              	3.13432247e+02
19              	3.13946948e+02
20              	3.14490793e+02
21              	3.14996889e+02
22              	3.15487565e+02
23              	3.15962914e+02
24              	3.16423667e+02
25              	3.16867807e+02
26              	3.17290665e+02
27              	3.17687904e+02
28              	3.18063214e+02
29              	3.18416343e+02
30              	3.18758486e+02
31              	3.19091920e+02
32              	3.19417756e+02
33              	3.19727682e+02
34              	3.20022497e+02
35              	3.20305003e+02
36              	3.20574371e+02
37              	3.20853563e+02
38              	3.21145914e+02
39              	3.21442780e+02
40              	3.21744677e+02
41              	3.22019708e+02
42              	3.22303084e+02
43              	3.22550728e+02
44              	3.22780248e+02
45              	3.22990473e+02
46              	3.23177140e+02
47              	3.23333701e+02
48              	3.23469727e+02
49              	3.23590886e+02
50              	3.23714639e+02
51              	3.23847604e+02
52              	3.23992521e+02
53              	3.24155471e+02
54              	3.24323788e+02
55              	3.24503223e+02
56              	3.24688069e+02
57              	3.24873895e+02
58              	3.25049935e+02
59              	3.25212018e+02
60              	3.25351714e+02
61              	3.25488083e+02
62              	3.25608683e+02
63              	3.25724797e+02
64              	3.25831967e+02
65              	3.25940911e+02
66              	3.26050582e+02
67              	3.26148896e+02
68              	3.26231314e+02
69              	3.26315270e+02
70              	3.26383857e+02
71              	3.26437953e+02
72              	3.26487610e+02
73              	3.26532746e+02
74              	3.26578627e+02
75              	3.26630365e+02
76              	3.26679830e+02
77              	3.26732542e+02
78              	3.26781777e+02
79              	3.26834950e+02
80              	3.26893471e+02
81              	3.26957058e+02
82              	3.27012519e+02
83              	3.27058254e+02
84              	3.27098245e+02
85              	3.27133002e+02
86              	3.27168589e+02
87              	3.27205677e+02
88              	3.27245084e+02
89              	3.27287571e+02
90              	3.27322526e+02
91              	3.27366849e+02
92              	3.27412279e+02
93              	3.27451997e+02
94              	3.27486367e+02
95              	3.27522004e+02
96              	3.27559791e+02
97              	3.27600263e+02
98              	3.27637649e+02
99              	3.27675525e+02
100             	3.27709921e+02
101             	3.27741395e+02
102             	3.27767528e+02
103             	3.27789314e+02
104             	3.27808722e+02
105             	3.27825007e+02
106             	3.27838480e+02
107             	3.27852392e+02
108             	3.27867138e+02
109             	3.27883352e+02
110             	3.27901038e+02
111             	3.27920450e+02
112             	3.27941263e+02
113             	3.27964109e+02
114             	3.27989406e+02
115             	3.28015730e+02
116             	3.28040955e+02
117             	3.28061886e+02
118             	3.28081546e+02
119             	3.28099471e+02
120             	3.28115714e+02
121             	3.28130600e+02
122             	3.28145526e+02
123             	3.28160060e+02
124             	3.28171520e+02
125             	3.28183584e+02
126             	3.28195166e+02
127             	3.28204709e+02
128             	3.28212406e+02
129             	3.28218947e+02
130             	3.28225790e+02
131             	3.28233900e+02
132             	3.28243472e+02
133             	3.28253170e+02
134             	3.28262459e+02
135             	3.28275672e+02
136             	3.28287613e+02
137             	3.28301314e+02
138             	3.28316382e+02
139             	3.28331909e+02
140             	3.28348123e+02
141             	3.28365364e+02
142             	3.28382239e+02
143             	3.28399789e+02
144             	3.28412205e+02
145             	3.28425597e+02
146             	3.28437936e+02
147             	3.28448390e+02
148             	3.28457806e+02
149             	3.28465571e+02
150             	3.28471917e+02
151             	3.28477377e+02
152             	3.28482573e+02
153             	3.28489260e+02
154             	3.28498988e+02
155             	3.28511410e+02
156             	3.28523356e+02
157             	3.28537511e+02
158             	3.28554663e+02
159             	3.28573640e+02
160             	3.28593117e+02
161             	3.28605212e+02
162             	3.28617941e+02
163             	3.28628699e+02
164             	3.28636577e+02
165             	3.28641649e+02
166             	3.28644385e+02
167             	3.28645334e+02
168             	3.28644878e+02
169             	3.28643291e+02
170             	3.28642571e+02
171             	3.28644930e+02
172             	3.28646778e+02
173             	3.28651266e+02
174             	3.28658893e+02
175             	3.28668833e+02
176             	3.28677824e+02
177             	3.28686130e+02
178             	3.28694769e+02
179             	3.28702173e+02
180             	3.28708679e+02
181             	3.28714372e+02
182             	3.28717975e+02
183             	3.28720058e+02
184             	3.28721742e+02
185             	3.28722784e+02
186             	3.28723692e+02
187             	3.28724597e+02
188             	3.28725593e+02
189             	3.28726573e+02
190             	3.28727439e+02
191             	3.28729388e+02
192             	3.28733282e+02
193             	3.28736956e+02
194             	3.28741626e+02
195             	3.28747532e+02
196             	3.28754323e+02
197             	3.28760385e+02
198             	3.28764317e+02
199             	3.28768041e+02
200             	3.28771348e+02
201             	3.28773724e+02
202             	3.28775924e+02
203             	3.28777986e+02
204             	3.28779784e+02
205             	3.28780988e+02
206             	3.28781845e+02
207             	3.28782756e+02
208             	3.28783375e+02
209             	3.28783900e+02
210             	3.28784774e+02
211             	3.28786257e+02
212             	3.28788158e+02
213             	3.28790179e+02
214             	3.28792594e+02
215             	3.28795249e+02
216             	3.28798003e+02
217             	3.28800697e+02
218             	3.28803312e+02
219             	3.28805577e+02
220             	3.28807892e+02
221             	3.28810295e+02
222             	3.28812043e+02
223             	3.28813354e+02
224             	3.28814255e+02
225             	3.28814768e+02
226             	3.28815127e+02
227             	3.28815592e+02
228             	3.28816112e+02
229             	3.28816283e+02
230             	3.28816202e+02
231             	3.28815999e+02
232             	3.28815240e+02
233             	3.28814458e+02
234             	3.28813725e+02
235             	3.28813573e+02
236             	3.28813637e+02
237             	3.28814138e+02
238             	3.28814911e+02
239             	3.28815813e+02
240             	3.28816797e+02
241             	3.28817868e+02
242             	3.28817837e+02
243             	3.28818263e+02
244             	3.28818343e+02
245             	3.28818563e+02
246             	3.28818769e+02
247             	3.28818998e+02
248             	3.28819283e+02
249             	3.28819628e+02
250             	3.28820071e+02
251             	3.28820766e+02
252             	3.28823096e+02
253             	3.28825289e+02
254             	3.28827436e+02
255             	3.28829795e+02
256             	3.28832495e+02
257             	3.28835406e+02
258             	3.28838428e+02
259             	3.28841429e+02
260             	3.28844246e+02
261             	3.28846789e+02
262             	3.28848854e+02
263             	3.28850186e+02
264             	3.28850882e+02
265             	3.28851158e+02
266             	3.28851230e+02
267             	3.28850643e+02
268             	3.28849981e+02
269             	3.28849304e+02
270             	3.28848497e+02
271             	3.28847576e+02
272             	3.28846618e+02
273             	3.28845797e+02
274             	3.28845012e+02
275             	3.28844295e+02
276             	3.28843619e+02
277             	3.28843219e+02
278             	3.28842775e+02
279             	3.28842309e+02
280             	3.28841893e+02
281             	3.28841595e+02
282             	3.28841504e+02
283             	3.28841868e+02
284             	3.28842271e+02
285             	3.28842923e+02
286             	3.28843812e+02
287             	3.28844819e+02
288             	3.28845885e+02
289             	3.28846948e+02
290             	3.28848131e+02
291             	3.28849394e+02
292             	3.28850633e+02
293             	3.28851766e+02
294             	3.28852749e+02
295             	3.28853604e+02
296             	3.28854433e+02
297             	3.28855177e+02
298             	3.28855936e+02
299             	3.28856775e+02
300             	3.28857630e+02
301             	3.28858679e+02
302             	3.28859946e+02
303             	3.28861413e+02
304             	3.28862388e+02
305             	3.28863533e+02
306             	3.28864505e+02
307             	3.28865234e+02
308             	3.28865692e+02
309             	3.28865830e+02
310             	3.28865699e+02
311             	3.28865377e+02
312             	3.28864906e+02
313             	3.28864479e+02
314             	3.28863969e+02
315             	3.28863288e+02
316             	3.28862504e+02
317             	3.28862231e+02
318             	3.28861963e+02
319             	3.28861816e+02
320             	3.28861822e+02
321             	3.28861948e+02
322             	3.28862140e+02
323             	3.28862210e+02
324             	3.28862393e+02
325             	3.28862508e+02
326             	3.28862484e+02
327             	3.28862274e+02
328             	3.28861881e+02
329             	3.28861365e+02
330             	3.28860831e+02
331             	3.28860408e+02
332             	3.28860450e+02
333             	3.28860766e+02
334             	3.28861014e+02
335             	3.28861725e+02
336             	3.28862743e+02
337             	3.28864017e+02
338             	3.28865439e+02
339             	3.28866952e+02
340             	3.28868540e+02
341             	3.28870237e+02
342             	3.28871670e+02
343             	3.28873068e+02
344             	3.28874345e+02
345             	3.28875467e+02
346             	3.28876528e+02
347             	3.28877680e+02
348             	3.28878811e+02
349             	3.28879667e+02
350             	3.28880251e+02
351             	3.28880595e+02
352             	3.28880710e+02
353             	3.28880638e+02
354             	3.28880451e+02
355             	3.28880172e+02
356             	3.28879766e+02
357             	3.28879249e+02
358             	3.28878616e+02
359             	3.28877906e+02
360             	3.28877338e+02
361             	3.28876497e+02
362             	3.28875434e+02
363             	3.28874053e+02
364             	3.28872381e+02
365             	3.28870403e+02
366             	3.28868193e+02
367             	3.28865977e+02
368             	3.28863766e+02
369             	3.28861723e+02
370             	3.28859905e+02
371             	3.28858387e+02
372             	3.28857233e+02
373             	3.28856490e+02
374             	3.28856119e+02
375             	3.28856066e+02
376             	3.28856256e+02
377             	3.28856592e+02
378             	3.28856764e+02
379             	3.28857156e+02
380             	3.28857593e+02
381             	3.28858139e+02
382             	3.28858777e+02
383             	3.28859506e+02
384             	3.28860313e+02
385             	3.28861215e+02
386             	3.28862223e+02
387             	3.28863358e+02
388             	3.28864399e+02
389             	3.28865339e+02
390             	3.28866147e+02
391             	3.28866819e+02
392             	3.28867371e+02
393             	3.28867831e+02
394             	3.28868212e+02
395             	3.28868505e+02
396             	3.28868674e+02
397             	3.28868665e+02
398             	3.28868502e+02
399             	3.28868272e+02
400             	3.28868420e+02
401             	3.28868293e+02
402             	3.28867960e+02
403             	3.28867448e+02
404             	3.28866771e+02
405             	3.28865968e+02
406             	3.28865110e+02
407             	3.28864236e+02
408             	3.28863347e+02
409             	3.28862377e+02
410             	3.28861523e+02
411             	3.28860766e+02
412             	3.28860133e+02
413             	3.28859628e+02
414             	3.28859233e+02
415             	3.28858932e+02
416             	3.28858702e+02
417             	3.28858559e+02
418             	3.28858499e+02
419             	3.28858514e+02
420             	3.28858605e+02
421             	3.28858794e+02
422             	3.28859119e+02
423             	3.28859602e+02
424             	3.28860280e+02
425             	3.28861051e+02
426             	3.28861974e+02
427             	3.28863142e+02
428             	3.28864565e+02
429             	3.28865920e+02
430             	3.28867240e+02
431             	3.28868478e+02
432             	3.28869629e+02
433             	3.28870680e+02
434             	3.28871607e+02
435             	3.28872415e+02
436             	3.28873120e+02
437             	3.28873674e+02
438             	3.28874019e+02
439             	3.28874089e+02
440             	3.28873849e+02
441             	3.28873311e+02
442             	3.28872530e+02
443             	3.28871681e+02
444             	3.28870832e+02
445             	3.28869792e+02
446             	3.28868621e+02
447             	3.28867325e+02
448             	3.28866281e+02
449             	3.28865002e+02
450             	3.28863544e+02
451             	3.28861931e+02
452             	3.28860181e+02
453             	3.28858332e+02
454             	3.28856521e+02
455             	3.28854802e+02
456             	3.28853256e+02
457             	3.28851928e+02
458             	3.28850829e+02
459             	3.28849920e+02
460             	3.28849190e+02
461             	3.28848568e+02
462             	3.28848085e+02
463             	3.28847757e+02
464             	3.28847609e+02
465             	3.28847633e+02
466             	3.28847869e+02
467             	3.28848346e+02
468             	3.28849060e+02
469             	3.28849921e+02
470             	3.28850884e+02
471             	3.28852057e+02
472             	3.28853288e+02
473             	3.28854505e+02
474             	3.28855738e+02
475             	3.28857602e+02
476             	3.28860018e+02
477             	3.28862198e+02
478             	3.28864280e+02
479             	3.28866145e+02
480             	3.28867759e+02
481             	3.28869132e+02
482             	3.28870223e+02
483             	3.28871152e+02
484             	3.28871855e+02
485             	3.28872222e+02
486             	3.28872339e+02
487             	3.28872424e+02
488             	3.28872472e+02
489             	3.28872293e+02
490             	3.28872065e+02
491             	3.28872184e+02
492             	3.28871958e+02
493             	3.28871477e+02
494             	3.28870853e+02
495             	3.28870118e+02
496             	3.28869367e+02
497             	3.28868956e+02
498             	3.28868348e+02
499             	3.28868043e+02
500             	3.28867924e+02
501             	3.28867968e+02
502             	3.28868153e+02
503             	3.28868456e+02
504             	3.28868866e+02
505             	3.28869377e+02
506             	3.28869974e+02
507             	3.28870598e+02
508             	3.28871253e+02
509             	3.28871970e+02
510             	3.28872834e+02
511             	3.28873921e+02
512             	3.28875189e+02
513             	3.28876679e+02
514             	3.28878501e+02
515             	3.28880573e+02
516             	3.28882832e+02
517             	3.28885178e+02
518             	3.28887513e+02
519             	3.28889909e+02
520             	3.28892444e+02
521             	3.28894658e+02
522             	3.28896635e+02
523             	3.28898351e+02
524             	3.28899771e+02
525             	3.28900894e+02
526             	3.28901771e+02
527             	3.28902475e+02
528             	3.28903025e+02
529             	3.28903444e+02
530             	3.28903808e+02
531             	3.28904211e+02
532             	3.28904716e+02
533             	3.28904636e+02
534             	3.28904166e+02
535             	3.28903121e+02
536             	3.28901501e+02
537             	3.28899439e+02
538             	3.28897013e+02
539             	3.28894339e+02
540             	3.28891675e+02
541             	3.28889093e+02
542             	3.28886712e+02
543             	3.28884632e+02
544             	3.28882929e+02
545             	3.28881673e+02
546             	3.28880871e+02
547             	3.28880600e+02
548             	3.28880693e+02
549             	3.28880824e+02
550             	3.28880875e+02
551             	3.28880849e+02
552             	3.28880837e+02
553             	3.28880938e+02
554             	3.28881264e+02
555             	3.28881861e+02
556             	3.28882814e+02
557             	3.28884145e+02
558             	3.28886241e+02
559             	3.28888141e+02
560             	3.28889939e+02
561             	3.28891533e+02
562             	3.28892812e+02
563             	3.28893756e+02
564             	3.28894475e+02
565             	3.28895137e+02
566             	3.28895863e+02
567             	3.28896802e+02
568             	3.28897989e+02
569             	3.28899335e+02
570             	3.28900631e+02
571             	3.28901618e+02
572             	3.28902065e+02
573             	3.28901772e+02
574             	3.28900742e+02
575             	3.28899742e+02
576             	3.28898127e+02
577             	3.28896206e+02
578             	3.28894154e+02
579             	3.28892094e+02
580             	3.28890093e+02
581             	3.28888207e+02
582             	3.28886431e+02
583             	3.28884716e+02
584             	3.28883004e+02
585             	3.28881189e+02
586             	3.28879331e+02
587             	3.28877450e+02
588             	3.28875564e+02
589             	3.28873668e+02
590             	3.28871818e+02
591             	3.28870077e+02
592             	3.28868527e+02
593             	3.28867224e+02
594             	3.28866217e+02
595             	3.28865548e+02
596             	3.28865213e+02
597             	3.28865192e+02
598             	3.28865479e+02
599             	3.28866022e+02
600             	3.28866774e+02
601             	3.28867684e+02
602             	3.28868838e+02
603             	3.28870222e+02
604             	3.28871925e+02
605             	3.28873570e+02
606             	3.28875096e+02
607             	3.28876460e+02
608             	3.28877619e+02
609             	3.28878568e+02
610             	3.28879309e+02
611             	3.28879819e+02
612             	3.28880098e+02
613             	3.28880194e+02
614             	3.28880430e+02
615             	3.28880891e+02
616             	3.28881850e+02
617             	3.28882565e+02
618             	3.28883093e+02
619             	3.28883434e+02
620             	3.28883502e+02
621             	3.28883254e+02
