# Region        : cellZone component_1
# Cells         : 41
# Volume        : 7.05968897e-02
# Time          	volAverage(T)
1               	3.17954300e+02
2               	3.34931466e+02
3               	3.44100595e+02
4               	3.48995738e+02
5               	3.55623647e+02
6               	3.64649041e+02
7               	3.73415439e+02
8               	3.80737801e+02
9               	3.87613566e+02
10              	3.95125710e+02
11              	4.01880185e+02
12              	4.07321728e+02
13              	4.11957395e+02
14              	4.16920257e+02
15              	4.22637437e+02
16              	4.28389826e+02
17              	4.33681292e+02
18              	4.38366248e+02
19              	4.42877498e+02
20              	4.47287587e+02
21              	4.51764579e+02
22              	4.56036597e+02
23              	4.59938629e+02
24              	4.63349959e+02
25              	4.66237189e+02
26              	4.68519925e+02
27              	4.69962417e+02
28              	4.71422531e+02
29              	4.72610630e+02
30              	4.73508709e+02
31              	4.74612569e+02
32              	4.75976477e+02
33              	4.77303309e+02
34              	4.78908560e+02
35              	4.80497297e+02
36              	4.81593400e+02
37              	4.82170480e+02
38              	4.82510508e+02
39              	4.82771912e+02
40              	4.82912854e+02
41              	4.83054431e+02
42              	4.83257989e+02
43              	4.83408343e+02
44              	4.83487746e+02
45              	4.83754853e+02
46              	4.84128492e+02
47              	4.84482986e+02
48              	4.84944629e+02
49              	4.85677076e+02
50              	4.86858517e+02
51              	4.88407757e+02
52              	4.89947798e+02
53              	4.91488428e+02
54              	4.92713284e+02
55              	4.93254523e+02
56              	4.93822473e+02
57              	4.94116431e+02
58              	4.93875179e+02
59              	4.93402415e+02
60              	4.92856242e+02
61              	4.92348711e+02
62              	4.92062937e+02
63              	4.91866310e+02
64              	4.91790125e+02
65              	4.91936318e+02
66              	4.92222659e+02
67              	4.92700341e+02
68              	4.93287272e+02
69              	4.93992521e+02
70              	4.94685821e+02
71              	4.95325345e+02
72              	4.95694184e+02
73              	4.95572565e+02
74              	4.95471194e+02
75              	4.95290703e+02
76              	4.94942831e+02
77              	4.94432208e+02
78              	4.93807233e+02
79              	4.93179665e+02
80              	4.92825327e+02
81              	4.92404801e+02
82              	4.92107046e+02
83              	4.91950375e+02
84              	4.91874920e+02
85              	4.91866616e+02
86              	4.91661150e+02
87              	4.91578327e+02
88              	4.91417126e+02
89              	4.91195351e+02
90              	4.90872948e+02
91              	4.90400991e+02
92              	4.89899492e+02
93              	4.89378467e+02
94              	4.88886960e+02
95              	4.88488618e+02
96              	4.87938176e+02
97              	4.87411201e+02
98              	4.87070438e+02
99              	4.86944182e+02
100             	4.86817464e+02
101             	4.86292823e+02
102             	4.85710209e+02
103             	4.85356091e+02
104             	4.84957571e+02
105             	4.84497946e+02
106             	4.83997274e+02
107             	4.83527712e+02
108             	4.83118551e+02
109             	4.82772053e+02
110             	4.82152273e+02
111             	4.81612034e+02
112             	4.81278771e+02
113             	4.81044528e+02
114             	4.80823186e+02
115             	4.80612950e+02
116             	4.80407167e+02
117             	4.80149314e+02
118             	4.79816420e+02
119             	4.79472516e+02
120             	4.79104847e+02
121             	4.78710410e+02
122             	4.78309914e+02
123             	4.77910284e+02
124             	4.77494158e+02
125             	4.77128540e+02
126             	4.76775341e+02
127             	4.76486193e+02
128             	4.76162225e+02
129             	4.75848572e+02
130             	4.75570939e+02
131             	4.75271690e+02
132             	4.74981148e+02
133             	4.74735534e+02
134             	4.74506902e+02
135             	4.74264276e+02
136             	4.73953481e+02
137             	4.73650738e+02
138             	4.73353403e+02
139             	4.73102363e+02
140             	4.72820958e+02
141             	4.72524313e+02
142             	4.72256378e+02
143             	4.72019276e+02
144             	4.71846126e+02
145             	4.71660691e+02
146             	4.71484855e+02
147             	4.71340768e+02
148             	4.71215998e+02
149             	4.71038267e+02
150             	4.70875290e+02
151             	4.70724464e+02
152             	4.70554182e+02
153             	4.70354587e+02
154             	4.70152880e+02
155             	4.69957357e+02
156             	4.69766780e+02
157             	4.69582544e+02
158             	4.69405469e+02
159             	4.69236515e+02
160             	4.69066365e+02
161             	4.68889159e+02
162             	4.68709770e+02
163             	4.68527593e+02
164             	4.68364727e+02
165             	4.68212786e+02
166             	4.68061167e+02
167             	4.67926754e+02
168             	4.67811344e+02
169             	4.67709127e+02
170             	4.67608270e+02
171             	4.67504392e+02
172             	4.67390978e+02
173             	4.67274865e+02
174             	4.67156579e+02
175             	4.67038541e+02
176             	4.66921677e+02
177             	4.66803170e+02
178             	4.66684483e+02
179             	4.66568864e+02
180             	4.66457577e+02
181             	4.66349562e+02
182             	4.66242461e+02
183             	4.66134075e+02
184             	4.66032585e+02
185             	4.65934080e+02
186             	4.65835818e+02
187             	4.65736152e+02
188             	4.65642948e+02
189             	4.65566457e+02
190             	4.65483553e+02
191             	4.65397683e+02
192             	4.65315725e+02
193             	4.65237749e+02
194             	4.65163284e+02
195             	4.65084451e+02
196             	4.65000965e+02
197             	4.64919699e+02
198             	4.64837406e+02
199             	4.64754819e+02
200             	4.64675814e+02
201             	4.64598531e+02
202             	4.64522732e+02
203             	4.64451501e+02
204             	4.64384341e+02
205             	4.64316834e+02
206             	4.64249866e+02
207             	4.64184904e+02
208             	4.64121102e+02
209             	4.64062799e+02
210             	4.64003516e+02
211             	4.63944099e+02
212             	4.63887665e+02
213             	4.63833832e+02
214             	4.63780770e+02
215             	4.63728542e+02
216             	4.63677681e+02
217             	4.63629010e+02
218             	4.63581778e+02
219             	4.63535627e+02
220             	4.63489171e+02
221             	4.63443703e+02
222             	4.63395044e+02
223             	4.63350347e+02
224             	4.63309094e+02
225             	4.63267082e+02
226             	4.63224961e+02
227             	4.63183532e+02
228             	4.63142694e+02
229             	4.63105961e+02
230             	4.63068730e+02
231             	4.63032916e+02
232             	4.63003388e+02
233             	4.62974725e+02
234             	4.62946518e+02
235             	4.62919838e+02
236             	4.62894697e+02
237             	4.62869282e+02
238             	4.62840450e+02
239             	4.62814269e+02
240             	4.62789210e+02
241             	4.62762428e+02
242             	4.62733700e+02
243             	4.62706152e+02
244             	4.62679657e+02
245             	4.62652309e+02
246             	4.62625831e+02
247             	4.62601341e+02
248             	4.62572621e+02
249             	4.62547705e+02
250             	4.62526486e+02
251             	4.62506469e+02
252             	4.62489119e+02
253             	4.62476865e+02
254             	4.62463420e+02
255             	4.62448334e+02
256             	4.62432279e+02
257             	4.62417052e+02
258             	4.62403382e+02
259             	4.62393714e+02
260             	4.62383238e+02
261             	4.62371515e+02
262             	4.62360342e+02
263             	4.62351325e+02
264             	4.62343454e+02
265             	4.62332116e+02
266             	4.62319130e+02
267             	4.62307152e+02
268             	4.62295771e+02
269             	4.62284431e+02
270             	4.62273013e+02
271             	4.62262217e+02
272             	4.62254442e+02
273             	4.62245987e+02
274             	4.62237171e+02
275             	4.62228329e+02
276             	4.62219522e+02
277             	4.62211336e+02
278             	4.62204797e+02
279             	4.62199128e+02
280             	4.62193777e+02
281             	4.62188787e+02
282             	4.62184024e+02
283             	4.62181277e+02
284             	4.62178129e+02
285             	4.62173792e+02
286             	4.62169475e+02
287             	4.62165669e+02
288             	4.62162496e+02
289             	4.62160111e+02
290             	4.62158541e+02
291             	4.62157818e+02
292             	4.62157884e+02
293             	4.62158554e+02
294             	4.62155468e+02
295             	4.62153689e+02
296             	4.62152842e+02
297             	4.62150607e+02
298             	4.62148103e+02
299             	4.62145476e+02
300             	4.62142786e+02
301             	4.62140164e+02
302             	4.62137606e+02
303             	4.62137452e+02
304             	4.62138872e+02
305             	4.62138811e+02
306             	4.62138265e+02
307             	4.62139017e+02
308             	4.62141642e+02
309             	4.62145350e+02
310             	4.62148139e+02
311             	4.62146603e+02
312             	4.62147526e+02
313             	4.62148630e+02
314             	4.62148251e+02
315             	4.62147518e+02
316             	4.62146013e+02
317             	4.62144516e+02
318             	4.62142685e+02
319             	4.62142322e+02
320             	4.62141404e+02
321             	4.62143205e+02
322             	4.62144648e+02
323             	4.62145511e+02
324             	4.62147388e+02
325             	4.62151979e+02
326             	4.62156695e+02
327             	4.62160826e+02
328             	4.62164939e+02
329             	4.62165156e+02
330             	4.62165611e+02
331             	4.62167608e+02
332             	4.62169223e+02
333             	4.62170013e+02
334             	4.62170378e+02
335             	4.62170541e+02
336             	4.62170407e+02
337             	4.62168733e+02
338             	4.62167130e+02
339             	4.62165822e+02
340             	4.62167332e+02
341             	4.62168217e+02
342             	4.62168598e+02
343             	4.62171979e+02
344             	4.62175557e+02
345             	4.62179136e+02
346             	4.62183008e+02
347             	4.62186923e+02
348             	4.62189632e+02
349             	4.62190836e+02
350             	4.62192248e+02
351             	4.62192963e+02
352             	4.62193538e+02
353             	4.62193869e+02
354             	4.62193979e+02
355             	4.62194187e+02
356             	4.62194687e+02
357             	4.62195485e+02
358             	4.62196452e+02
359             	4.62197770e+02
360             	4.62199657e+02
361             	4.62202042e+02
362             	4.62204673e+02
363             	4.62207327e+02
364             	4.62209914e+02
365             	4.62212356e+02
366             	4.62214622e+02
367             	4.62216154e+02
368             	4.62217761e+02
369             	4.62218482e+02
370             	4.62219155e+02
371             	4.62219162e+02
372             	4.62218905e+02
373             	4.62218613e+02
374             	4.62218201e+02
375             	4.62218435e+02
376             	4.62218410e+02
377             	4.62219899e+02
378             	4.62221108e+02
379             	4.62221792e+02
380             	4.62222666e+02
381             	4.62223753e+02
382             	4.62224858e+02
383             	4.62226616e+02
384             	4.62229013e+02
385             	4.62231453e+02
386             	4.62233653e+02
387             	4.62235588e+02
388             	4.62237115e+02
389             	4.62238405e+02
390             	4.62239411e+02
391             	4.62240255e+02
392             	4.62241012e+02
393             	4.62242699e+02
394             	4.62244319e+02
395             	4.62245867e+02
396             	4.62247620e+02
397             	4.62249400e+02
398             	4.62251056e+02
399             	4.62252521e+02
400             	4.62253954e+02
401             	4.62255250e+02
402             	4.62256353e+02
403             	4.62257250e+02
404             	4.62257968e+02
405             	4.62258510e+02
406             	4.62258942e+02
407             	4.62259260e+02
408             	4.62259545e+02
409             	4.62259907e+02
410             	4.62260317e+02
411             	4.62260913e+02
412             	4.62261630e+02
413             	4.62262465e+02
414             	4.62263447e+02
415             	4.62264536e+02
416             	4.62265773e+02
417             	4.62267185e+02
418             	4.62268647e+02
419             	4.62270103e+02
420             	4.62271542e+02
421             	4.62272941e+02
422             	4.62274323e+02
423             	4.62275549e+02
424             	4.62276732e+02
425             	4.62277872e+02
426             	4.62278895e+02
427             	4.62279764e+02
428             	4.62280491e+02
429             	4.62281068e+02
430             	4.62281530e+02
431             	4.62281695e+02
432             	4.62281401e+02
433             	4.62280980e+02
434             	4.62280701e+02
435             	4.62280470e+02
436             	4.62280424e+02
437             	4.62280657e+02
438             	4.62280972e+02
439             	4.62282175e+02
440             	4.62283037e+02
441             	4.62283739e+02
442             	4.62284754e+02
443             	4.62286031e+02
444             	4.62287641e+02
445             	4.62289435e+02
446             	4.62291412e+02
447             	4.62292688e+02
448             	4.62294190e+02
449             	4.62295879e+02
450             	4.62297475e+02
451             	4.62298732e+02
452             	4.62299918e+02
453             	4.62300908e+02
454             	4.62301737e+02
455             	4.62302272e+02
456             	4.62302375e+02
457             	4.62302129e+02
458             	4.62302599e+02
459             	4.62302951e+02
460             	4.62303242e+02
461             	4.62303726e+02
462             	4.62304594e+02
463             	4.62305768e+02
464             	4.62307014e+02
465             	4.62308404e+02
466             	4.62309870e+02
467             	4.62311267e+02
468             	4.62312616e+02
469             	4.62313786e+02
470             	4.62314834e+02
471             	4.62315766e+02
472             	4.62316653e+02
473             	4.62317517e+02
474             	4.62318383e+02
475             	4.62319267e+02
476             	4.62320218e+02
477             	4.62321228e+02
478             	4.62322233e+02
479             	4.62323360e+02
480             	4.62324658e+02
481             	4.62325939e+02
482             	4.62327139e+02
483             	4.62328246e+02
484             	4.62329281e+02
485             	4.62330172e+02
486             	4.62330987e+02
487             	4.62331426e+02
488             	4.62331789e+02
489             	4.62332119e+02
490             	4.62332360e+02
491             	4.62332526e+02
492             	4.62332629e+02
493             	4.62332712e+02
494             	4.62332695e+02
495             	4.62332601e+02
496             	4.62332449e+02
497             	4.62332182e+02
498             	4.62331898e+02
499             	4.62331618e+02
500             	4.62331325e+02
501             	4.62331049e+02
502             	4.62330803e+02
503             	4.62330603e+02
504             	4.62330498e+02
505             	4.62330472e+02
506             	4.62330549e+02
507             	4.62330721e+02
508             	4.62330992e+02
509             	4.62331299e+02
510             	4.62331929e+02
511             	4.62332429e+02
512             	4.62332777e+02
513             	4.62333200e+02
514             	4.62333554e+02
515             	4.62333864e+02
516             	4.62334161e+02
517             	4.62334473e+02
518             	4.62334818e+02
519             	4.62335194e+02
520             	4.62335601e+02
521             	4.62336017e+02
522             	4.62336461e+02
523             	4.62336939e+02
524             	4.62337412e+02
525             	4.62337851e+02
526             	4.62338272e+02
527             	4.62338727e+02
528             	4.62339199e+02
529             	4.62339702e+02
530             	4.62340241e+02
531             	4.62340182e+02
532             	4.62340351e+02
533             	4.62340742e+02
534             	4.62340972e+02
535             	4.62341065e+02
536             	4.62341085e+02
537             	4.62341038e+02
538             	4.62340869e+02
539             	4.62340552e+02
540             	4.62340095e+02
541             	4.62339649e+02
542             	4.62339144e+02
543             	4.62338972e+02
544             	4.62338801e+02
545             	4.62338547e+02
546             	4.62338446e+02
547             	4.62338439e+02
548             	4.62338464e+02
549             	4.62338465e+02
550             	4.62338552e+02
551             	4.62338584e+02
552             	4.62338568e+02
553             	4.62338532e+02
554             	4.62338470e+02
555             	4.62338373e+02
556             	4.62338268e+02
557             	4.62338230e+02
558             	4.62338222e+02
559             	4.62338261e+02
560             	4.62338384e+02
561             	4.62338594e+02
562             	4.62338855e+02
563             	4.62339226e+02
564             	4.62339714e+02
565             	4.62340292e+02
566             	4.62340935e+02
567             	4.62341647e+02
568             	4.62342437e+02
569             	4.62343234e+02
570             	4.62344059e+02
571             	4.62344880e+02
572             	4.62345642e+02
573             	4.62346328e+02
574             	4.62346925e+02
575             	4.62347409e+02
576             	4.62347793e+02
577             	4.62348074e+02
578             	4.62348242e+02
579             	4.62348280e+02
580             	4.62348196e+02
581             	4.62348001e+02
582             	4.62347736e+02
583             	4.62347407e+02
584             	4.62347029e+02
585             	4.62346648e+02
586             	4.62346288e+02
587             	4.62345981e+02
588             	4.62345771e+02
589             	4.62345643e+02
590             	4.62345580e+02
591             	4.62345601e+02
592             	4.62345726e+02
593             	4.62345935e+02
594             	4.62346213e+02
595             	4.62346543e+02
596             	4.62346921e+02
597             	4.62347323e+02
598             	4.62347733e+02
599             	4.62348110e+02
600             	4.62348471e+02
601             	4.62348765e+02
602             	4.62349044e+02
603             	4.62349303e+02
604             	4.62349533e+02
605             	4.62349737e+02
606             	4.62349941e+02
607             	4.62350164e+02
608             	4.62350411e+02
609             	4.62350936e+02
610             	4.62351456e+02
611             	4.62351961e+02
612             	4.62352553e+02
613             	4.62353137e+02
614             	4.62353694e+02
615             	4.62354204e+02
616             	4.62354655e+02
617             	4.62355098e+02
618             	4.62355566e+02
619             	4.62356014e+02
620             	4.62356413e+02
621             	4.62356770e+02
