# Region        : cellZone component_0
# Cells         : 108
# Volume        : 2.11200427e-01
# Time          	volAverage(T)
1               	3.01064094e+02
2               	3.02119842e+02
3               	3.03116695e+02
4               	3.04067976e+02
5               	3.05013209e+02
6               	3.05943296e+02
7               	3.06865139e+02
8               	3.07790202e+02
9               	3.08718645e+02
10              	3.09641609e+02
11              	3.10540932e+02
12              	3.11418629e+02
13              	3.12285815e+02
14              	3.13150863e+02
15              	3.14009412e+02
16              	3.14865427e+02
17              	3.15726896e+02
18              	3.16588683e+02
19              	3.17447561e+02
20              	3.18296046e+02
21              	3.19126035e+02
22              	3.19944135e+02
23              	3.20742113e+02
24              	3.21518499e+02
25              	3.22273563e+02
26              	3.23011722e+02
27              	3.23729256e+02
28              	3.24430187e+02
29              	3.25104526e+02
30              	3.25758658e+02
31              	3.26395960e+02
32              	3.27024774e+02
33              	3.27630498e+02
34              	3.28194506e+02
35              	3.28737556e+02
36              	3.29266291e+02
37              	3.29783600e+02
38              	3.30279321e+02
39              	3.30752965e+02
40              	3.31221932e+02
41              	3.31692524e+02
42              	3.32172921e+02
43              	3.32660525e+02
44              	3.33133821e+02
45              	3.33588192e+02
46              	3.34048507e+02
47              	3.34512012e+02
48              	3.34966101e+02
49              	3.35398155e+02
50              	3.35809037e+02
51              	3.36210405e+02
52              	3.36601638e+02
53              	3.36982397e+02
54              	3.37349303e+02
55              	3.37702814e+02
56              	3.38041891e+02
57              	3.38384223e+02
58              	3.38726247e+02
59              	3.39065746e+02
60              	3.39408498e+02
61              	3.39733246e+02
62              	3.40060045e+02
63              	3.40377087e+02
64              	3.40698882e+02
65              	3.41018042e+02
66              	3.41325969e+02
67              	3.41622512e+02
68              	3.41885172e+02
69              	3.42133747e+02
70              	3.42381637e+02
71              	3.42620710e+02
72              	3.42855450e+02
73              	3.43084078e+02
74              	3.43310471e+02
75              	3.43545082e+02
76              	3.43791022e+02
77              	3.44050069e+02
78              	3.44306743e+02
79              	3.44554118e+02
80              	3.44805654e+02
81              	3.45050197e+02
82              	3.45278838e+02
83              	3.45493653e+02
84              	3.45703714e+02
85              	3.45910715e+02
86              	3.46112182e+02
87              	3.46312390e+02
88              	3.46512288e+02
89              	3.46708796e+02
90              	3.46903266e+02
91              	3.47098661e+02
92              	3.47291313e+02
93              	3.47490028e+02
94              	3.47678490e+02
95              	3.47861510e+02
96              	3.48036041e+02
97              	3.48208018e+02
98              	3.48377010e+02
99              	3.48543147e+02
100             	3.48706996e+02
101             	3.48871291e+02
102             	3.49033410e+02
103             	3.49194393e+02
104             	3.49356778e+02
105             	3.49519628e+02
106             	3.49679577e+02
107             	3.49840335e+02
108             	3.49996868e+02
109             	3.50154239e+02
110             	3.50305862e+02
111             	3.50455429e+02
112             	3.50604974e+02
113             	3.50754614e+02
114             	3.50901580e+02
115             	3.51043238e+02
116             	3.51177901e+02
117             	3.51309350e+02
118             	3.51435964e+02
119             	3.51557303e+02
120             	3.51673592e+02
121             	3.51788583e+02
122             	3.51897791e+02
123             	3.52006662e+02
124             	3.52114314e+02
125             	3.52223036e+02
126             	3.52330829e+02
127             	3.52437848e+02
128             	3.52544915e+02
129             	3.52653812e+02
130             	3.52764403e+02
131             	3.52875253e+02
132             	3.52980119e+02
133             	3.53086284e+02
134             	3.53192713e+02
135             	3.53296951e+02
136             	3.53394797e+02
137             	3.53482275e+02
138             	3.53570011e+02
139             	3.53649944e+02
140             	3.53734630e+02
141             	3.53813375e+02
142             	3.53891876e+02
143             	3.53972352e+02
144             	3.54061659e+02
145             	3.54143873e+02
146             	3.54226502e+02
147             	3.54310077e+02
148             	3.54392785e+02
149             	3.54473446e+02
150             	3.54547291e+02
151             	3.54624231e+02
152             	3.54699136e+02
153             	3.54774300e+02
154             	3.54849350e+02
155             	3.54922533e+02
156             	3.54995623e+02
157             	3.55069570e+02
158             	3.55140905e+02
159             	3.55209195e+02
160             	3.55276842e+02
161             	3.55343865e+02
162             	3.55410890e+02
163             	3.55476418e+02
164             	3.55540176e+02
165             	3.55602401e+02
166             	3.55663220e+02
167             	3.55724439e+02
168             	3.55783305e+02
169             	3.55837001e+02
170             	3.55887477e+02
171             	3.55937650e+02
172             	3.55990630e+02
173             	3.56042363e+02
174             	3.56088797e+02
175             	3.56135503e+02
176             	3.56182489e+02
177             	3.56229268e+02
178             	3.56280783e+02
179             	3.56334016e+02
180             	3.56388061e+02
181             	3.56442848e+02
182             	3.56491406e+02
183             	3.56541996e+02
184             	3.56599339e+02
185             	3.56654171e+02
186             	3.56707847e+02
187             	3.56756543e+02
188             	3.56800272e+02
189             	3.56841942e+02
190             	3.56884640e+02
191             	3.56924322e+02
192             	3.56962543e+02
193             	3.57000172e+02
194             	3.57037269e+02
195             	3.57072800e+02
196             	3.57109198e+02
197             	3.57144875e+02
198             	3.57179686e+02
199             	3.57212851e+02
200             	3.57245662e+02
201             	3.57277874e+02
202             	3.57312918e+02
203             	3.57349024e+02
204             	3.57385037e+02
205             	3.57422062e+02
206             	3.57458877e+02
207             	3.57494038e+02
208             	3.57530036e+02
209             	3.57566797e+02
210             	3.57602775e+02
211             	3.57637654e+02
212             	3.57670425e+02
213             	3.57703434e+02
214             	3.57737165e+02
215             	3.57768560e+02
216             	3.57798909e+02
217             	3.57827738e+02
218             	3.57854752e+02
219             	3.57884339e+02
220             	3.57913218e+02
221             	3.57939648e+02
222             	3.57965840e+02
223             	3.57988955e+02
224             	3.58011109e+02
225             	3.58032979e+02
226             	3.58057061e+02
227             	3.58077535e+02
228             	3.58098072e+02
229             	3.58119629e+02
230             	3.58142333e+02
231             	3.58165455e+02
232             	3.58189218e+02
233             	3.58212374e+02
234             	3.58228897e+02
235             	3.58249288e+02
236             	3.58271922e+02
237             	3.58294773e+02
238             	3.58316734e+02
239             	3.58339174e+02
240             	3.58360011e+02
241             	3.58380492e+02
242             	3.58402122e+02
243             	3.58424265e+02
244             	3.58439273e+02
245             	3.58457534e+02
246             	3.58479937e+02
247             	3.58500872e+02
248             	3.58517066e+02
249             	3.58531416e+02
250             	3.58547453e+02
251             	3.58565153e+02
252             	3.58586845e+02
253             	3.58605767e+02
254             	3.58624934e+02
255             	3.58645652e+02
256             	3.58665447e+02
257             	3.58685301e+02
258             	3.58705425e+02
259             	3.58724096e+02
260             	3.58741604e+02
261             	3.58759606e+02
262             	3.58776040e+02
263             	3.58791093e+02
264             	3.58804842e+02
265             	3.58817688e+02
266             	3.58827943e+02
267             	3.58838743e+02
268             	3.58850676e+02
269             	3.58861645e+02
270             	3.58875138e+02
271             	3.58884917e+02
272             	3.58894706e+02
273             	3.58906463e+02
274             	3.58920257e+02
275             	3.58936691e+02
276             	3.58953127e+02
277             	3.58963046e+02
278             	3.58976301e+02
279             	3.58991244e+02
280             	3.59004959e+02
281             	3.59016814e+02
282             	3.59028467e+02
283             	3.59038982e+02
284             	3.59048588e+02
285             	3.59058502e+02
286             	3.59069415e+02
287             	3.59076416e+02
288             	3.59085198e+02
289             	3.59093806e+02
290             	3.59101383e+02
291             	3.59107969e+02
292             	3.59113986e+02
293             	3.59121264e+02
294             	3.59129674e+02
295             	3.59137744e+02
296             	3.59148361e+02
297             	3.59159102e+02
298             	3.59168955e+02
299             	3.59179480e+02
300             	3.59195384e+02
301             	3.59211729e+02
302             	3.59218068e+02
303             	3.59229063e+02
304             	3.59241073e+02
305             	3.59249957e+02
306             	3.59256344e+02
307             	3.59260972e+02
308             	3.59264331e+02
309             	3.59269359e+02
310             	3.59284834e+02
311             	3.59289596e+02
312             	3.59294484e+02
313             	3.59301593e+02
314             	3.59307755e+02
315             	3.59315355e+02
316             	3.59321868e+02
317             	3.59331018e+02
318             	3.59330144e+02
319             	3.59336481e+02
320             	3.59334692e+02
321             	3.59335115e+02
322             	3.59336832e+02
323             	3.59332966e+02
324             	3.59328254e+02
325             	3.59336991e+02
326             	3.59332963e+02
327             	3.59344074e+02
328             	3.59350187e+02
329             	3.59364105e+02
330             	3.59386590e+02
331             	3.59406059e+02
332             	3.59418354e+02
333             	3.59423824e+02
334             	3.59422471e+02
335             	3.59416037e+02
336             	3.59407022e+02
337             	3.59401263e+02
338             	3.59396750e+02
339             	3.59395600e+02
340             	3.59397529e+02
341             	3.59404029e+02
342             	3.59411060e+02
343             	3.59420101e+02
344             	3.59429623e+02
345             	3.59438215e+02
346             	3.59445149e+02
347             	3.59450150e+02
348             	3.59453006e+02
349             	3.59453953e+02
350             	3.59453676e+02
351             	3.59452852e+02
352             	3.59452274e+02
353             	3.59452887e+02
354             	3.59455924e+02
355             	3.59462227e+02
356             	3.59470717e+02
357             	3.59480325e+02
358             	3.59492789e+02
359             	3.59506193e+02
360             	3.59513894e+02
361             	3.59524282e+02
362             	3.59534324e+02
363             	3.59546454e+02
364             	3.59553127e+02
365             	3.59560583e+02
366             	3.59566481e+02
367             	3.59572458e+02
368             	3.59579089e+02
369             	3.59584945e+02
370             	3.59590411e+02
371             	3.59595428e+02
372             	3.59600666e+02
373             	3.59604932e+02
374             	3.59608066e+02
375             	3.59610462e+02
376             	3.59612464e+02
377             	3.59612719e+02
378             	3.59611923e+02
379             	3.59611183e+02
380             	3.59609887e+02
381             	3.59608300e+02
382             	3.59607333e+02
383             	3.59607358e+02
384             	3.59607687e+02
385             	3.59608252e+02
386             	3.59610283e+02
387             	3.59611387e+02
388             	3.59612991e+02
389             	3.59615408e+02
390             	3.59617658e+02
391             	3.59618443e+02
392             	3.59620382e+02
393             	3.59619018e+02
394             	3.59618426e+02
395             	3.59617882e+02
396             	3.59620316e+02
397             	3.59619953e+02
398             	3.59620898e+02
399             	3.59622854e+02
400             	3.59625962e+02
401             	3.59629748e+02
402             	3.59633909e+02
403             	3.59638078e+02
404             	3.59642326e+02
405             	3.59645712e+02
406             	3.59648299e+02
407             	3.59650431e+02
408             	3.59652443e+02
409             	3.59654429e+02
410             	3.59656735e+02
411             	3.59659263e+02
412             	3.59662477e+02
413             	3.59666276e+02
414             	3.59670355e+02
415             	3.59674912e+02
416             	3.59680324e+02
417             	3.59686076e+02
418             	3.59692097e+02
419             	3.59698010e+02
420             	3.59703659e+02
421             	3.59708915e+02
422             	3.59713604e+02
423             	3.59717952e+02
424             	3.59721866e+02
425             	3.59725369e+02
426             	3.59728614e+02
427             	3.59731676e+02
428             	3.59735312e+02
429             	3.59738149e+02
430             	3.59740731e+02
431             	3.59743211e+02
432             	3.59745463e+02
433             	3.59747281e+02
434             	3.59748749e+02
435             	3.59749954e+02
436             	3.59751962e+02
437             	3.59752296e+02
438             	3.59752062e+02
439             	3.59751812e+02
440             	3.59751404e+02
441             	3.59750578e+02
442             	3.59749351e+02
443             	3.59748032e+02
444             	3.59746431e+02
445             	3.59744024e+02
446             	3.59742251e+02
447             	3.59740489e+02
448             	3.59739230e+02
449             	3.59738358e+02
450             	3.59737529e+02
451             	3.59737029e+02
452             	3.59736941e+02
453             	3.59736855e+02
454             	3.59737179e+02
455             	3.59737532e+02
456             	3.59737682e+02
457             	3.59737550e+02
458             	3.59737418e+02
459             	3.59737195e+02
460             	3.59737073e+02
461             	3.59737034e+02
462             	3.59737093e+02
463             	3.59737526e+02
464             	3.59738267e+02
465             	3.59739762e+02
466             	3.59740718e+02
467             	3.59741937e+02
468             	3.59743787e+02
469             	3.59745990e+02
470             	3.59747382e+02
471             	3.59749743e+02
472             	3.59752005e+02
473             	3.59753880e+02
474             	3.59755440e+02
475             	3.59756853e+02
476             	3.59758328e+02
477             	3.59759946e+02
478             	3.59761496e+02
479             	3.59763345e+02
480             	3.59765382e+02
481             	3.59767534e+02
482             	3.59769709e+02
483             	3.59771850e+02
484             	3.59773958e+02
485             	3.59775980e+02
486             	3.59777825e+02
487             	3.59779468e+02
488             	3.59780918e+02
489             	3.59782226e+02
490             	3.59783402e+02
491             	3.59784406e+02
492             	3.59785385e+02
493             	3.59785923e+02
494             	3.59785437e+02
495             	3.59785388e+02
496             	3.59785369e+02
497             	3.59784759e+02
498             	3.59783824e+02
499             	3.59782885e+02
500             	3.59782989e+02
501             	3.59782312e+02
502             	3.59781639e+02
503             	3.59781370e+02
504             	3.59781329e+02
505             	3.59781185e+02
506             	3.59780905e+02
507             	3.59780746e+02
508             	3.59780478e+02
509             	3.59780406e+02
510             	3.59780315e+02
511             	3.59780270e+02
512             	3.59780361e+02
513             	3.59780521e+02
514             	3.59781066e+02
515             	3.59781617e+02
516             	3.59782580e+02
517             	3.59783512e+02
518             	3.59784435e+02
519             	3.59785500e+02
520             	3.59786733e+02
521             	3.59787839e+02
522             	3.59788960e+02
523             	3.59789792e+02
524             	3.59790592e+02
525             	3.59791284e+02
526             	3.59791797e+02
527             	3.59792106e+02
528             	3.59792196e+02
529             	3.59792166e+02
530             	3.59792191e+02
531             	3.59792122e+02
532             	3.59792090e+02
533             	3.59792170e+02
534             	3.59792345e+02
535             	3.59792460e+02
536             	3.59792625e+02
537             	3.59792915e+02
538             	3.59793297e+02
539             	3.59793544e+02
540             	3.59793840e+02
541             	3.59794059e+02
542             	3.59794104e+02
543             	3.59793879e+02
544             	3.59793327e+02
545             	3.59793224e+02
546             	3.59793181e+02
547             	3.59793075e+02
548             	3.59793076e+02
549             	3.59793305e+02
550             	3.59793464e+02
551             	3.59793744e+02
552             	3.59794304e+02
553             	3.59795056e+02
554             	3.59795957e+02
555             	3.59796777e+02
556             	3.59797710e+02
557             	3.59798698e+02
558             	3.59799712e+02
559             	3.59800566e+02
560             	3.59801169e+02
561             	3.59801950e+02
562             	3.59802558e+02
563             	3.59803290e+02
564             	3.59804019e+02
565             	3.59804694e+02
566             	3.59805358e+02
567             	3.59806111e+02
568             	3.59806852e+02
569             	3.59807414e+02
570             	3.59808031e+02
571             	3.59808499e+02
572             	3.59808510e+02
573             	3.59808859e+02
574             	3.59809185e+02
575             	3.59809454e+02
576             	3.59809652e+02
577             	3.59809823e+02
578             	3.59809775e+02
579             	3.59809884e+02
580             	3.59810143e+02
581             	3.59810470e+02
582             	3.59810849e+02
583             	3.59811293e+02
584             	3.59811773e+02
585             	3.59812314e+02
586             	3.59812894e+02
587             	3.59813502e+02
588             	3.59813543e+02
589             	3.59814009e+02
590             	3.59814503e+02
591             	3.59814796e+02
592             	3.59814939e+02
593             	3.59814999e+02
594             	3.59815017e+02
595             	3.59815524e+02
596             	3.59815721e+02
597             	3.59815882e+02
598             	3.59816169e+02
599             	3.59816573e+02
600             	3.59817082e+02
601             	3.59817630e+02
602             	3.59818181e+02
603             	3.59818666e+02
604             	3.59818976e+02
605             	3.59819461e+02
606             	3.59819975e+02
607             	3.59820470e+02
608             	3.59820928e+02
609             	3.59821317e+02
610             	3.59821673e+02
611             	3.59821911e+02
612             	3.59822051e+02
613             	3.59822231e+02
614             	3.59822588e+02
615             	3.59822947e+02
616             	3.59823758e+02
617             	3.59824321e+02
618             	3.59825144e+02
619             	3.59826274e+02
620             	3.59827389e+02
621             	3.59828007e+02
