# Region        : cellZone component_0
# Cells         : 252
# Volume        : 4.66356050e-01
# Time          	volAverage(T)
1               	3.00673576e+02
2               	3.01333783e+02
3               	3.01879109e+02
4               	3.02345815e+02
5               	3.02798287e+02
6               	3.03256623e+02
7               	3.03710037e+02
8               	3.04146617e+02
9               	3.04571338e+02
10              	3.04984671e+02
11              	3.05384818e+02
12              	3.05773712e+02
13              	3.06149946e+02
14              	3.06512513e+02
15              	3.06871189e+02
16              	3.07216310e+02
17              	3.07555096e+02
18              	3.07884129e+02
19              	3.08203920e+02
20              	3.08523798e+02
21              	3.08845023e+02
22              	3.09168832e+02
23              	3.09479741e+02
24              	3.09774560e+02
25              	3.10048141e+02
26              	3.10308574e+02
27              	3.10542618e+02
28              	3.10773759e+02
29              	3.10994517e+02
30              	3.11210600e+02
31              	3.11422318e+02
32              	3.11624315e+02
33              	3.11812301e+02
34              	3.11974055e+02
35              	3.12097305e+02
36              	3.12202501e+02
37              	3.12326991e+02
38              	3.12469373e+02
39              	3.12618821e+02
40              	3.12766828e+02
41              	3.12909866e+02
42              	3.13045238e+02
43              	3.13190356e+02
44              	3.13336630e+02
45              	3.13490777e+02
46              	3.13633379e+02
47              	3.13768355e+02
48              	3.13890675e+02
49              	3.14015722e+02
50              	3.14125089e+02
51              	3.14216953e+02
52              	3.14299291e+02
53              	3.14377707e+02
54              	3.14455686e+02
55              	3.14539966e+02
56              	3.14634700e+02
57              	3.14725344e+02
58              	3.14805208e+02
59              	3.14856504e+02
60              	3.14900273e+02
61              	3.14965778e+02
62              	3.15034362e+02
63              	3.15105185e+02
64              	3.15184267e+02
65              	3.15264894e+02
66              	3.15344729e+02
67              	3.15422476e+02
68              	3.15497020e+02
69              	3.15570421e+02
70              	3.15639489e+02
71              	3.15703840e+02
72              	3.15761072e+02
73              	3.15809600e+02
74              	3.15854095e+02
75              	3.15895463e+02
76              	3.15953911e+02
77              	3.16033907e+02
78              	3.16121428e+02
79              	3.16209984e+02
80              	3.16274260e+02
81              	3.16326522e+02
82              	3.16378244e+02
83              	3.16432722e+02
84              	3.16488008e+02
85              	3.16542022e+02
86              	3.16601469e+02
87              	3.16664029e+02
88              	3.16732371e+02
89              	3.16798804e+02
90              	3.16863085e+02
91              	3.16927174e+02
92              	3.16986667e+02
93              	3.17041662e+02
94              	3.17090547e+02
95              	3.17129917e+02
96              	3.17159983e+02
97              	3.17184663e+02
98              	3.17210324e+02
99              	3.17244033e+02
100             	3.17283921e+02
101             	3.17319915e+02
102             	3.17362345e+02
103             	3.17396942e+02
104             	3.17431936e+02
105             	3.17469137e+02
106             	3.17498752e+02
107             	3.17517758e+02
108             	3.17519357e+02
109             	3.17519198e+02
110             	3.17525222e+02
111             	3.17542027e+02
112             	3.17566111e+02
113             	3.17598652e+02
114             	3.17636688e+02
115             	3.17679147e+02
116             	3.17722917e+02
117             	3.17761715e+02
118             	3.17794139e+02
119             	3.17821079e+02
120             	3.17843956e+02
121             	3.17859826e+02
122             	3.17869960e+02
123             	3.17875989e+02
124             	3.17876531e+02
125             	3.17879241e+02
126             	3.17891731e+02
127             	3.17917620e+02
128             	3.17943020e+02
129             	3.17960438e+02
130             	3.17971306e+02
131             	3.17967738e+02
132             	3.17967720e+02
133             	3.17969347e+02
134             	3.17973983e+02
135             	3.17979085e+02
136             	3.17989332e+02
137             	3.18007718e+02
138             	3.18032505e+02
139             	3.18056965e+02
140             	3.18071756e+02
141             	3.18086634e+02
142             	3.18102082e+02
143             	3.18117306e+02
144             	3.18131168e+02
145             	3.18149696e+02
146             	3.18169228e+02
147             	3.18187127e+02
148             	3.18206595e+02
149             	3.18227909e+02
150             	3.18248432e+02
151             	3.18252674e+02
152             	3.18250237e+02
153             	3.18242206e+02
154             	3.18227729e+02
155             	3.18205047e+02
156             	3.18171586e+02
157             	3.18168511e+02
158             	3.18190600e+02
159             	3.18213797e+02
160             	3.18230984e+02
161             	3.18237556e+02
162             	3.18246072e+02
163             	3.18255270e+02
164             	3.18256376e+02
165             	3.18253617e+02
166             	3.18252022e+02
167             	3.18246021e+02
168             	3.18245471e+02
169             	3.18258773e+02
170             	3.18282352e+02
171             	3.18313686e+02
172             	3.18351595e+02
173             	3.18393734e+02
174             	3.18428341e+02
175             	3.18458578e+02
176             	3.18480536e+02
177             	3.18493373e+02
178             	3.18495049e+02
179             	3.18489828e+02
180             	3.18487112e+02
181             	3.18490754e+02
182             	3.18498762e+02
183             	3.18511284e+02
184             	3.18522071e+02
185             	3.18534421e+02
186             	3.18549295e+02
187             	3.18566405e+02
188             	3.18586239e+02
189             	3.18603826e+02
190             	3.18614917e+02
191             	3.18619692e+02
192             	3.18619181e+02
193             	3.18617901e+02
194             	3.18617375e+02
195             	3.18617404e+02
196             	3.18619048e+02
197             	3.18623763e+02
198             	3.18629449e+02
199             	3.18643951e+02
200             	3.18659344e+02
201             	3.18673570e+02
202             	3.18692176e+02
203             	3.18703182e+02
204             	3.18707915e+02
205             	3.18704403e+02
206             	3.18697197e+02
207             	3.18689425e+02
208             	3.18685201e+02
209             	3.18685768e+02
210             	3.18690058e+02
211             	3.18694825e+02
212             	3.18702283e+02
213             	3.18710951e+02
214             	3.18722486e+02
215             	3.18734704e+02
216             	3.18747447e+02
217             	3.18759301e+02
218             	3.18769480e+02
219             	3.18777727e+02
220             	3.18785007e+02
221             	3.18790492e+02
222             	3.18795890e+02
223             	3.18800195e+02
224             	3.18808164e+02
225             	3.18818579e+02
226             	3.18829932e+02
227             	3.18840775e+02
228             	3.18848717e+02
229             	3.18852812e+02
230             	3.18855151e+02
231             	3.18855904e+02
232             	3.18855914e+02
233             	3.18857228e+02
234             	3.18859786e+02
235             	3.18863861e+02
236             	3.18868897e+02
237             	3.18875038e+02
238             	3.18882322e+02
239             	3.18890367e+02
240             	3.18899585e+02
241             	3.18909959e+02
242             	3.18922305e+02
243             	3.18934011e+02
244             	3.18944531e+02
245             	3.18952838e+02
246             	3.18960187e+02
247             	3.18966834e+02
248             	3.18971893e+02
249             	3.18974746e+02
250             	3.18976621e+02
251             	3.18977935e+02
252             	3.18979500e+02
253             	3.18981838e+02
254             	3.18985748e+02
255             	3.18992252e+02
256             	3.18999962e+02
257             	3.19006951e+02
258             	3.19013839e+02
259             	3.19020274e+02
260             	3.19026214e+02
261             	3.19031299e+02
262             	3.19035622e+02
263             	3.19039798e+02
264             	3.19044332e+02
265             	3.19048601e+02
266             	3.19051717e+02
267             	3.19055414e+02
268             	3.19060347e+02
269             	3.19065728e+02
270             	3.19071119e+02
271             	3.19077098e+02
272             	3.19082006e+02
273             	3.19086598e+02
274             	3.19091685e+02
275             	3.19095830e+02
276             	3.19100065e+02
277             	3.19104221e+02
278             	3.19108115e+02
279             	3.19110586e+02
280             	3.19112285e+02
281             	3.19114152e+02
282             	3.19116775e+02
283             	3.19119057e+02
284             	3.19121396e+02
285             	3.19124597e+02
286             	3.19128879e+02
287             	3.19132838e+02
288             	3.19136124e+02
289             	3.19139635e+02
290             	3.19144303e+02
291             	3.19149335e+02
292             	3.19154381e+02
293             	3.19158077e+02
294             	3.19159553e+02
295             	3.19160500e+02
296             	3.19160578e+02
297             	3.19159902e+02
298             	3.19158723e+02
299             	3.19157556e+02
300             	3.19157132e+02
301             	3.19158143e+02
302             	3.19160102e+02
303             	3.19161639e+02
304             	3.19164757e+02
305             	3.19169957e+02
306             	3.19175714e+02
307             	3.19179801e+02
308             	3.19181738e+02
309             	3.19182670e+02
310             	3.19183426e+02
311             	3.19184311e+02
312             	3.19185861e+02
313             	3.19187273e+02
314             	3.19186899e+02
315             	3.19188417e+02
316             	3.19191816e+02
317             	3.19195781e+02
318             	3.19199038e+02
319             	3.19201414e+02
320             	3.19202857e+02
321             	3.19203303e+02
322             	3.19203099e+02
323             	3.19202589e+02
324             	3.19202292e+02
325             	3.19202595e+02
326             	3.19203926e+02
327             	3.19205616e+02
328             	3.19207037e+02
329             	3.19209518e+02
330             	3.19212404e+02
331             	3.19215177e+02
332             	3.19217207e+02
333             	3.19218768e+02
334             	3.19219811e+02
335             	3.19220142e+02
336             	3.19219973e+02
337             	3.19219459e+02
338             	3.19219422e+02
339             	3.19220149e+02
340             	3.19220831e+02
341             	3.19222207e+02
342             	3.19224548e+02
343             	3.19227009e+02
344             	3.19229287e+02
345             	3.19231099e+02
346             	3.19232573e+02
347             	3.19233282e+02
348             	3.19233414e+02
349             	3.19233218e+02
350             	3.19232934e+02
351             	3.19233107e+02
352             	3.19233524e+02
353             	3.19234220e+02
354             	3.19235559e+02
355             	3.19237877e+02
356             	3.19240196e+02
357             	3.19242016e+02
358             	3.19243426e+02
359             	3.19244174e+02
360             	3.19243928e+02
361             	3.19243403e+02
362             	3.19243035e+02
363             	3.19243163e+02
364             	3.19243561e+02
365             	3.19244310e+02
366             	3.19245040e+02
367             	3.19245750e+02
368             	3.19246412e+02
369             	3.19246734e+02
370             	3.19246843e+02
371             	3.19246823e+02
372             	3.19246926e+02
373             	3.19247257e+02
374             	3.19247446e+02
375             	3.19247556e+02
376             	3.19247641e+02
377             	3.19247851e+02
378             	3.19248182e+02
379             	3.19248771e+02
380             	3.19249559e+02
381             	3.19250550e+02
382             	3.19251734e+02
383             	3.19252729e+02
384             	3.19253315e+02
385             	3.19253756e+02
386             	3.19254161e+02
387             	3.19254481e+02
388             	3.19254770e+02
389             	3.19255056e+02
390             	3.19255383e+02
391             	3.19255697e+02
392             	3.19255964e+02
393             	3.19256206e+02
394             	3.19256498e+02
395             	3.19256884e+02
396             	3.19257330e+02
397             	3.19257812e+02
398             	3.19258400e+02
399             	3.19258944e+02
400             	3.19259415e+02
401             	3.19259868e+02
402             	3.19260169e+02
403             	3.19260362e+02
404             	3.19260467e+02
405             	3.19260452e+02
406             	3.19260404e+02
407             	3.19260362e+02
408             	3.19260343e+02
409             	3.19260378e+02
410             	3.19260499e+02
411             	3.19260684e+02
412             	3.19261008e+02
413             	3.19261479e+02
414             	3.19262037e+02
415             	3.19262631e+02
416             	3.19263165e+02
417             	3.19263682e+02
418             	3.19264121e+02
419             	3.19264450e+02
420             	3.19264608e+02
421             	3.19264642e+02
422             	3.19264621e+02
423             	3.19264760e+02
424             	3.19265023e+02
425             	3.19265365e+02
426             	3.19265811e+02
427             	3.19266273e+02
428             	3.19266797e+02
429             	3.19267328e+02
430             	3.19267771e+02
431             	3.19268188e+02
432             	3.19268565e+02
433             	3.19268838e+02
434             	3.19268891e+02
435             	3.19268882e+02
436             	3.19268866e+02
437             	3.19268841e+02
438             	3.19268877e+02
439             	3.19269023e+02
440             	3.19269263e+02
441             	3.19269618e+02
442             	3.19270027e+02
443             	3.19270426e+02
444             	3.19270749e+02
445             	3.19270963e+02
446             	3.19271052e+02
447             	3.19271049e+02
448             	3.19271022e+02
449             	3.19271127e+02
450             	3.19271364e+02
451             	3.19271635e+02
452             	3.19271890e+02
453             	3.19272139e+02
454             	3.19272389e+02
455             	3.19272613e+02
456             	3.19272806e+02
457             	3.19273001e+02
458             	3.19273168e+02
459             	3.19273324e+02
460             	3.19273467e+02
461             	3.19273609e+02
462             	3.19273736e+02
463             	3.19273854e+02
464             	3.19273953e+02
465             	3.19274040e+02
466             	3.19274118e+02
467             	3.19274206e+02
468             	3.19274341e+02
469             	3.19274521e+02
470             	3.19274725e+02
471             	3.19274927e+02
472             	3.19275127e+02
473             	3.19275330e+02
474             	3.19275516e+02
475             	3.19275645e+02
476             	3.19275735e+02
477             	3.19275845e+02
478             	3.19275931e+02
479             	3.19276000e+02
480             	3.19276057e+02
481             	3.19276139e+02
482             	3.19276246e+02
483             	3.19276387e+02
484             	3.19276536e+02
485             	3.19276642e+02
486             	3.19276749e+02
487             	3.19276896e+02
488             	3.19277076e+02
489             	3.19277239e+02
490             	3.19277366e+02
491             	3.19277470e+02
492             	3.19277561e+02
493             	3.19277628e+02
494             	3.19277679e+02
495             	3.19277713e+02
496             	3.19277728e+02
497             	3.19277766e+02
498             	3.19277827e+02
499             	3.19277892e+02
500             	3.19277974e+02
501             	3.19278094e+02
502             	3.19278235e+02
503             	3.19278359e+02
504             	3.19278436e+02
505             	3.19278500e+02
506             	3.19278537e+02
507             	3.19278557e+02
508             	3.19278556e+02
509             	3.19278557e+02
510             	3.19278586e+02
511             	3.19278645e+02
512             	3.19278707e+02
513             	3.19278769e+02
514             	3.19278806e+02
515             	3.19278827e+02
516             	3.19278830e+02
517             	3.19278824e+02
518             	3.19278827e+02
519             	3.19278850e+02
520             	3.19278884e+02
521             	3.19278929e+02
522             	3.19278988e+02
523             	3.19279059e+02
524             	3.19279130e+02
525             	3.19279205e+02
526             	3.19279261e+02
527             	3.19279302e+02
528             	3.19279325e+02
529             	3.19279353e+02
530             	3.19279386e+02
531             	3.19279443e+02
532             	3.19279511e+02
533             	3.19279583e+02
534             	3.19279646e+02
535             	3.19279707e+02
536             	3.19279754e+02
537             	3.19279788e+02
538             	3.19279793e+02
539             	3.19279785e+02
540             	3.19279779e+02
541             	3.19279769e+02
542             	3.19279757e+02
543             	3.19279752e+02
544             	3.19279750e+02
545             	3.19279749e+02
546             	3.19279757e+02
547             	3.19279775e+02
548             	3.19279797e+02
549             	3.19279817e+02
550             	3.19279833e+02
551             	3.19279851e+02
552             	3.19279865e+02
553             	3.19279881e+02
554             	3.19279896e+02
555             	3.19279912e+02
556             	3.19279936e+02
557             	3.19279965e+02
558             	3.19279989e+02
559             	3.19280011e+02
560             	3.19280032e+02
561             	3.19280055e+02
562             	3.19280069e+02
563             	3.19280073e+02
564             	3.19280068e+02
565             	3.19280068e+02
566             	3.19280072e+02
567             	3.19280078e+02
568             	3.19280086e+02
569             	3.19280096e+02
570             	3.19280093e+02
571             	3.19280084e+02
572             	3.19280077e+02
573             	3.19280069e+02
574             	3.19280055e+02
575             	3.19280046e+02
576             	3.19280040e+02
577             	3.19280044e+02
578             	3.19280058e+02
579             	3.19280081e+02
580             	3.19280109e+02
581             	3.19280145e+02
582             	3.19280188e+02
583             	3.19280230e+02
584             	3.19280262e+02
585             	3.19280289e+02
586             	3.19280307e+02
587             	3.19280319e+02
588             	3.19280322e+02
589             	3.19280319e+02
590             	3.19280313e+02
591             	3.19280309e+02
592             	3.19280308e+02
593             	3.19280313e+02
594             	3.19280324e+02
595             	3.19280339e+02
596             	3.19280355e+02
597             	3.19280373e+02
598             	3.19280393e+02
599             	3.19280413e+02
600             	3.19280425e+02
601             	3.19280437e+02
602             	3.19280445e+02
603             	3.19280452e+02
604             	3.19280462e+02
605             	3.19280473e+02
606             	3.19280482e+02
607             	3.19280501e+02
608             	3.19280525e+02
609             	3.19280551e+02
610             	3.19280577e+02
611             	3.19280604e+02
612             	3.19280633e+02
613             	3.19280665e+02
614             	3.19280697e+02
615             	3.19280729e+02
616             	3.19280754e+02
617             	3.19280771e+02
618             	3.19280776e+02
619             	3.19280773e+02
620             	3.19280759e+02
621             	3.19280743e+02
