# Region        : cellZone component_4
# Cells         : 120
# Volume        : 2.09879274e-01
# Time          	volAverage(T)
1               	3.01465263e+02
2               	3.02904246e+02
3               	3.04047856e+02
4               	3.05000248e+02
5               	3.05920760e+02
6               	3.06846453e+02
7               	3.07749271e+02
8               	3.08609108e+02
9               	3.09433209e+02
10              	3.10231104e+02
11              	3.11009931e+02
12              	3.11772635e+02
13              	3.12528264e+02
14              	3.13270483e+02
15              	3.13995078e+02
16              	3.14693194e+02
17              	3.15355273e+02
18              	3.16010331e+02
19              	3.16649158e+02
20              	3.17285997e+02
21              	3.17885897e+02
22              	3.18431818e+02
23              	3.18929252e+02
24              	3.19406897e+02
25              	3.19883830e+02
26              	3.20357465e+02
27              	3.20817478e+02
28              	3.21249142e+02
29              	3.21646397e+02
30              	3.22026630e+02
31              	3.22387796e+02
32              	3.22729492e+02
33              	3.23038113e+02
34              	3.23318230e+02
35              	3.23574611e+02
36              	3.23807619e+02
37              	3.24013143e+02
38              	3.24190992e+02
39              	3.24343029e+02
40              	3.24462033e+02
41              	3.24579857e+02
42              	3.24689493e+02
43              	3.24799441e+02
44              	3.24909699e+02
45              	3.25019609e+02
46              	3.25122817e+02
47              	3.25218485e+02
48              	3.25307686e+02
49              	3.25394613e+02
50              	3.25483615e+02
51              	3.25574626e+02
52              	3.25668464e+02
53              	3.25758559e+02
54              	3.25842594e+02
55              	3.25916300e+02
56              	3.25976674e+02
57              	3.26019992e+02
58              	3.26049503e+02
59              	3.26070960e+02
60              	3.26085941e+02
61              	3.26096439e+02
62              	3.26105968e+02
63              	3.26115295e+02
64              	3.26128032e+02
65              	3.26148185e+02
66              	3.26175336e+02
67              	3.26204724e+02
68              	3.26238684e+02
69              	3.26278577e+02
70              	3.26322843e+02
71              	3.26367507e+02
72              	3.26410628e+02
73              	3.26446745e+02
74              	3.26474297e+02
75              	3.26488786e+02
76              	3.26492641e+02
77              	3.26488064e+02
78              	3.26476560e+02
79              	3.26458326e+02
80              	3.26435481e+02
81              	3.26409389e+02
82              	3.26378564e+02
83              	3.26342604e+02
84              	3.26301409e+02
85              	3.26259766e+02
86              	3.26214953e+02
87              	3.26178268e+02
88              	3.26149118e+02
89              	3.26126545e+02
90              	3.26107832e+02
91              	3.26086982e+02
92              	3.26064647e+02
93              	3.26033677e+02
94              	3.25994919e+02
95              	3.25948471e+02
96              	3.25893195e+02
97              	3.25826264e+02
98              	3.25756178e+02
99              	3.25699019e+02
100             	3.25654320e+02
101             	3.25621982e+02
102             	3.25605070e+02
103             	3.25595215e+02
104             	3.25596264e+02
105             	3.25596304e+02
106             	3.25589462e+02
107             	3.25572371e+02
108             	3.25547166e+02
109             	3.25514760e+02
110             	3.25476695e+02
111             	3.25434404e+02
112             	3.25390063e+02
113             	3.25344174e+02
114             	3.25297297e+02
115             	3.25250297e+02
116             	3.25202628e+02
117             	3.25161832e+02
118             	3.25129304e+02
119             	3.25102782e+02
120             	3.25081147e+02
121             	3.25063042e+02
122             	3.25047773e+02
123             	3.25034972e+02
124             	3.25024004e+02
125             	3.25012589e+02
126             	3.25001102e+02
127             	3.24987257e+02
128             	3.24968290e+02
129             	3.24945553e+02
130             	3.24919167e+02
131             	3.24889063e+02
132             	3.24860653e+02
133             	3.24838060e+02
134             	3.24823430e+02
135             	3.24815399e+02
136             	3.24812476e+02
137             	3.24811901e+02
138             	3.24813893e+02
139             	3.24815324e+02
140             	3.24812939e+02
141             	3.24804966e+02
142             	3.24791818e+02
143             	3.24774457e+02
144             	3.24754570e+02
145             	3.24734427e+02
146             	3.24715096e+02
147             	3.24698397e+02
148             	3.24688335e+02
149             	3.24684187e+02
150             	3.24683935e+02
151             	3.24686288e+02
152             	3.24690210e+02
153             	3.24694206e+02
154             	3.24697820e+02
155             	3.24700320e+02
156             	3.24700896e+02
157             	3.24699893e+02
158             	3.24697498e+02
159             	3.24694495e+02
160             	3.24691305e+02
161             	3.24688534e+02
162             	3.24686287e+02
163             	3.24684408e+02
164             	3.24682780e+02
165             	3.24680937e+02
166             	3.24678401e+02
167             	3.24674235e+02
168             	3.24668851e+02
169             	3.24662480e+02
170             	3.24655976e+02
171             	3.24650808e+02
172             	3.24648056e+02
173             	3.24647813e+02
174             	3.24649636e+02
175             	3.24653375e+02
176             	3.24658336e+02
177             	3.24663854e+02
178             	3.24669417e+02
179             	3.24674691e+02
180             	3.24679397e+02
181             	3.24683492e+02
182             	3.24686796e+02
183             	3.24689131e+02
184             	3.24690362e+02
185             	3.24690298e+02
186             	3.24688981e+02
187             	3.24687088e+02
188             	3.24684834e+02
189             	3.24682522e+02
190             	3.24680511e+02
191             	3.24679260e+02
192             	3.24678977e+02
193             	3.24679168e+02
194             	3.24679082e+02
195             	3.24678266e+02
196             	3.24676533e+02
197             	3.24674148e+02
198             	3.24671417e+02
199             	3.24669293e+02
200             	3.24667948e+02
201             	3.24667366e+02
202             	3.24667673e+02
203             	3.24668772e+02
204             	3.24670502e+02
205             	3.24672761e+02
206             	3.24675780e+02
207             	3.24679615e+02
208             	3.24683653e+02
209             	3.24687163e+02
210             	3.24689601e+02
211             	3.24690910e+02
212             	3.24691012e+02
213             	3.24690218e+02
214             	3.24688880e+02
215             	3.24687397e+02
216             	3.24686016e+02
217             	3.24684721e+02
218             	3.24683608e+02
219             	3.24682701e+02
220             	3.24681795e+02
221             	3.24680850e+02
222             	3.24679835e+02
223             	3.24678702e+02
224             	3.24677481e+02
225             	3.24676287e+02
226             	3.24675196e+02
227             	3.24674321e+02
228             	3.24673756e+02
229             	3.24673569e+02
230             	3.24673842e+02
231             	3.24674468e+02
232             	3.24675534e+02
233             	3.24676980e+02
234             	3.24678674e+02
235             	3.24680599e+02
236             	3.24682478e+02
237             	3.24683813e+02
238             	3.24683957e+02
239             	3.24682991e+02
240             	3.24681129e+02
241             	3.24678581e+02
242             	3.24676076e+02
243             	3.24674207e+02
244             	3.24673036e+02
245             	3.24672755e+02
246             	3.24673368e+02
247             	3.24674800e+02
248             	3.24676844e+02
249             	3.24679245e+02
250             	3.24681551e+02
251             	3.24683301e+02
252             	3.24684393e+02
253             	3.24684824e+02
254             	3.24684686e+02
255             	3.24684091e+02
256             	3.24683095e+02
257             	3.24681941e+02
258             	3.24680676e+02
259             	3.24679291e+02
260             	3.24677887e+02
261             	3.24676797e+02
262             	3.24675911e+02
263             	3.24675139e+02
264             	3.24674395e+02
265             	3.24673653e+02
266             	3.24673005e+02
267             	3.24672413e+02
268             	3.24671887e+02
269             	3.24671464e+02
270             	3.24671204e+02
271             	3.24671127e+02
272             	3.24671290e+02
273             	3.24671671e+02
274             	3.24672275e+02
275             	3.24673088e+02
276             	3.24674042e+02
277             	3.24675017e+02
278             	3.24675817e+02
279             	3.24676144e+02
280             	3.24675952e+02
281             	3.24675357e+02
282             	3.24674488e+02
283             	3.24673460e+02
284             	3.24672590e+02
285             	3.24671939e+02
286             	3.24671456e+02
287             	3.24671313e+02
288             	3.24671419e+02
289             	3.24671851e+02
290             	3.24672564e+02
291             	3.24673402e+02
292             	3.24674228e+02
293             	3.24674944e+02
294             	3.24675533e+02
295             	3.24675956e+02
296             	3.24676190e+02
297             	3.24676226e+02
298             	3.24676106e+02
299             	3.24675888e+02
300             	3.24675588e+02
301             	3.24675273e+02
302             	3.24674958e+02
303             	3.24674607e+02
304             	3.24674206e+02
305             	3.24673761e+02
306             	3.24673277e+02
307             	3.24672756e+02
308             	3.24672227e+02
309             	3.24671820e+02
310             	3.24671517e+02
311             	3.24671334e+02
312             	3.24671314e+02
313             	3.24671413e+02
314             	3.24671551e+02
315             	3.24671667e+02
316             	3.24671739e+02
317             	3.24671738e+02
318             	3.24671666e+02
319             	3.24671530e+02
320             	3.24671342e+02
321             	3.24671098e+02
322             	3.24670801e+02
323             	3.24670433e+02
324             	3.24669960e+02
325             	3.24669423e+02
326             	3.24668889e+02
327             	3.24668452e+02
328             	3.24668212e+02
329             	3.24668122e+02
330             	3.24668182e+02
331             	3.24668318e+02
332             	3.24668465e+02
333             	3.24668598e+02
334             	3.24668669e+02
335             	3.24668650e+02
336             	3.24668526e+02
337             	3.24668306e+02
338             	3.24668007e+02
339             	3.24667644e+02
340             	3.24667219e+02
341             	3.24666758e+02
342             	3.24666320e+02
343             	3.24665979e+02
344             	3.24665789e+02
345             	3.24665742e+02
346             	3.24665788e+02
347             	3.24665843e+02
348             	3.24665844e+02
349             	3.24665781e+02
350             	3.24665650e+02
351             	3.24665478e+02
352             	3.24665267e+02
353             	3.24665014e+02
354             	3.24664737e+02
355             	3.24664442e+02
356             	3.24664152e+02
357             	3.24663883e+02
358             	3.24663677e+02
359             	3.24663516e+02
360             	3.24663397e+02
361             	3.24663314e+02
362             	3.24663261e+02
363             	3.24663243e+02
364             	3.24663224e+02
365             	3.24663206e+02
366             	3.24663187e+02
367             	3.24663166e+02
368             	3.24663129e+02
369             	3.24663056e+02
370             	3.24662946e+02
371             	3.24662812e+02
372             	3.24662665e+02
373             	3.24662507e+02
374             	3.24662342e+02
375             	3.24662172e+02
376             	3.24662013e+02
377             	3.24661873e+02
378             	3.24661757e+02
379             	3.24661662e+02
380             	3.24661583e+02
381             	3.24661513e+02
382             	3.24661446e+02
383             	3.24661381e+02
384             	3.24661317e+02
385             	3.24661259e+02
386             	3.24661223e+02
387             	3.24661221e+02
388             	3.24661246e+02
389             	3.24661267e+02
390             	3.24661277e+02
391             	3.24661268e+02
392             	3.24661221e+02
393             	3.24661122e+02
394             	3.24660985e+02
395             	3.24660830e+02
396             	3.24660677e+02
397             	3.24660528e+02
398             	3.24660394e+02
399             	3.24660289e+02
400             	3.24660213e+02
401             	3.24660165e+02
402             	3.24660139e+02
403             	3.24660128e+02
404             	3.24660126e+02
405             	3.24660131e+02
406             	3.24660145e+02
407             	3.24660160e+02
408             	3.24660150e+02
409             	3.24660115e+02
410             	3.24660057e+02
411             	3.24659979e+02
412             	3.24659887e+02
413             	3.24659779e+02
414             	3.24659654e+02
415             	3.24659520e+02
416             	3.24659404e+02
417             	3.24659322e+02
418             	3.24659275e+02
419             	3.24659263e+02
420             	3.24659282e+02
421             	3.24659320e+02
422             	3.24659360e+02
423             	3.24659373e+02
424             	3.24659357e+02
425             	3.24659317e+02
426             	3.24659256e+02
427             	3.24659175e+02
428             	3.24659078e+02
429             	3.24658972e+02
430             	3.24658867e+02
431             	3.24658777e+02
432             	3.24658723e+02
433             	3.24658699e+02
434             	3.24658695e+02
435             	3.24658704e+02
436             	3.24658722e+02
437             	3.24658744e+02
438             	3.24658758e+02
439             	3.24658752e+02
440             	3.24658728e+02
441             	3.24658681e+02
442             	3.24658621e+02
443             	3.24658555e+02
444             	3.24658482e+02
445             	3.24658407e+02
446             	3.24658334e+02
447             	3.24658266e+02
448             	3.24658201e+02
449             	3.24658136e+02
450             	3.24658074e+02
451             	3.24658013e+02
452             	3.24657952e+02
453             	3.24657896e+02
454             	3.24657847e+02
455             	3.24657804e+02
456             	3.24657766e+02
457             	3.24657733e+02
458             	3.24657706e+02
459             	3.24657693e+02
460             	3.24657694e+02
461             	3.24657708e+02
462             	3.24657731e+02
463             	3.24657750e+02
464             	3.24657763e+02
465             	3.24657763e+02
466             	3.24657750e+02
467             	3.24657716e+02
468             	3.24657664e+02
469             	3.24657598e+02
470             	3.24657523e+02
471             	3.24657445e+02
472             	3.24657375e+02
473             	3.24657323e+02
474             	3.24657291e+02
475             	3.24657279e+02
476             	3.24657280e+02
477             	3.24657288e+02
478             	3.24657296e+02
479             	3.24657298e+02
480             	3.24657293e+02
481             	3.24657281e+02
482             	3.24657270e+02
483             	3.24657263e+02
484             	3.24657264e+02
485             	3.24657270e+02
486             	3.24657274e+02
487             	3.24657271e+02
488             	3.24657262e+02
489             	3.24657245e+02
490             	3.24657221e+02
491             	3.24657193e+02
492             	3.24657162e+02
493             	3.24657130e+02
494             	3.24657100e+02
495             	3.24657073e+02
496             	3.24657051e+02
497             	3.24657033e+02
498             	3.24657019e+02
499             	3.24657011e+02
500             	3.24657006e+02
501             	3.24657003e+02
502             	3.24657002e+02
503             	3.24657001e+02
504             	3.24657000e+02
505             	3.24656999e+02
506             	3.24656998e+02
507             	3.24656994e+02
508             	3.24656986e+02
509             	3.24656976e+02
510             	3.24656967e+02
511             	3.24656958e+02
512             	3.24656948e+02
513             	3.24656938e+02
514             	3.24656930e+02
515             	3.24656924e+02
516             	3.24656918e+02
517             	3.24656910e+02
518             	3.24656899e+02
519             	3.24656885e+02
520             	3.24656870e+02
521             	3.24656854e+02
522             	3.24656837e+02
523             	3.24656823e+02
524             	3.24656810e+02
525             	3.24656798e+02
526             	3.24656789e+02
527             	3.24656783e+02
528             	3.24656781e+02
529             	3.24656783e+02
530             	3.24656788e+02
531             	3.24656793e+02
532             	3.24656796e+02
533             	3.24656793e+02
534             	3.24656785e+02
535             	3.24656774e+02
536             	3.24656760e+02
537             	3.24656747e+02
538             	3.24656729e+02
539             	3.24656709e+02
540             	3.24656691e+02
541             	3.24656673e+02
542             	3.24656654e+02
543             	3.24656638e+02
544             	3.24656621e+02
545             	3.24656605e+02
546             	3.24656590e+02
547             	3.24656576e+02
548             	3.24656563e+02
549             	3.24656549e+02
550             	3.24656533e+02
551             	3.24656520e+02
552             	3.24656509e+02
553             	3.24656499e+02
554             	3.24656487e+02
555             	3.24656475e+02
556             	3.24656463e+02
557             	3.24656454e+02
558             	3.24656447e+02
559             	3.24656440e+02
560             	3.24656432e+02
561             	3.24656422e+02
562             	3.24656412e+02
563             	3.24656401e+02
564             	3.24656388e+02
565             	3.24656376e+02
566             	3.24656364e+02
567             	3.24656353e+02
568             	3.24656347e+02
569             	3.24656345e+02
570             	3.24656345e+02
571             	3.24656347e+02
572             	3.24656349e+02
573             	3.24656351e+02
574             	3.24656351e+02
575             	3.24656348e+02
576             	3.24656344e+02
577             	3.24656337e+02
578             	3.24656328e+02
579             	3.24656318e+02
580             	3.24656304e+02
581             	3.24656291e+02
582             	3.24656279e+02
583             	3.24656268e+02
584             	3.24656259e+02
585             	3.24656248e+02
586             	3.24656237e+02
587             	3.24656227e+02
588             	3.24656219e+02
589             	3.24656212e+02
590             	3.24656206e+02
591             	3.24656201e+02
592             	3.24656199e+02
593             	3.24656197e+02
594             	3.24656196e+02
595             	3.24656197e+02
596             	3.24656198e+02
597             	3.24656201e+02
598             	3.24656203e+02
599             	3.24656206e+02
600             	3.24656209e+02
601             	3.24656213e+02
602             	3.24656215e+02
603             	3.24656214e+02
604             	3.24656208e+02
605             	3.24656200e+02
606             	3.24656190e+02
607             	3.24656181e+02
608             	3.24656173e+02
609             	3.24656168e+02
610             	3.24656166e+02
611             	3.24656167e+02
612             	3.24656171e+02
613             	3.24656178e+02
614             	3.24656185e+02
615             	3.24656192e+02
616             	3.24656195e+02
617             	3.24656194e+02
618             	3.24656191e+02
619             	3.24656185e+02
620             	3.24656178e+02
621             	3.24656170e+02
