# Region        : cellZone component_3
# Cells         : 172
# Volume        : 3.62751808e-01
# Time          	volAverage(T)
1               	3.00178289e+02
2               	3.00354490e+02
3               	3.00520950e+02
4               	3.00680142e+02
5               	3.00834360e+02
6               	3.00984420e+02
7               	3.01131052e+02
8               	3.01274869e+02
9               	3.01416026e+02
10              	3.01554888e+02
11              	3.01692055e+02
12              	3.01828856e+02
13              	3.01962564e+02
14              	3.02092489e+02
15              	3.02220060e+02
16              	3.02347869e+02
17              	3.02476647e+02
18              	3.02603428e+02
19              	3.02728923e+02
20              	3.02851699e+02
21              	3.02972495e+02
22              	3.03093932e+02
23              	3.03212727e+02
24              	3.03328509e+02
25              	3.03441329e+02
26              	3.03550591e+02
27              	3.03656732e+02
28              	3.03759430e+02
29              	3.03858134e+02
30              	3.03955583e+02
31              	3.04051471e+02
32              	3.04146639e+02
33              	3.04242729e+02
34              	3.04334984e+02
35              	3.04426511e+02
36              	3.04508597e+02
37              	3.04587445e+02
38              	3.04661278e+02
39              	3.04738817e+02
40              	3.04813267e+02
41              	3.04882504e+02
42              	3.04947430e+02
43              	3.05009505e+02
44              	3.05069984e+02
45              	3.05127484e+02
46              	3.05185081e+02
47              	3.05242045e+02
48              	3.05303354e+02
49              	3.05364027e+02
50              	3.05422822e+02
51              	3.05475116e+02
52              	3.05518102e+02
53              	3.05562217e+02
54              	3.05607243e+02
55              	3.05650925e+02
56              	3.05693441e+02
57              	3.05733742e+02
58              	3.05774535e+02
59              	3.05816020e+02
60              	3.05857281e+02
61              	3.05897671e+02
62              	3.05935735e+02
63              	3.05973648e+02
64              	3.06010712e+02
65              	3.06049126e+02
66              	3.06091291e+02
67              	3.06136550e+02
68              	3.06184581e+02
69              	3.06234461e+02
70              	3.06281071e+02
71              	3.06325773e+02
72              	3.06368376e+02
73              	3.06410136e+02
74              	3.06446917e+02
75              	3.06484271e+02
76              	3.06523857e+02
77              	3.06563708e+02
78              	3.06604342e+02
79              	3.06642410e+02
80              	3.06679047e+02
81              	3.06713727e+02
82              	3.06745515e+02
83              	3.06773694e+02
84              	3.06799230e+02
85              	3.06824570e+02
86              	3.06851396e+02
87              	3.06882141e+02
88              	3.06915624e+02
89              	3.06952971e+02
90              	3.06992930e+02
91              	3.07032670e+02
92              	3.07073715e+02
93              	3.07111662e+02
94              	3.07148997e+02
95              	3.07185002e+02
96              	3.07219999e+02
97              	3.07255788e+02
98              	3.07291793e+02
99              	3.07326688e+02
100             	3.07360670e+02
101             	3.07392425e+02
102             	3.07422345e+02
103             	3.07449658e+02
104             	3.07475269e+02
105             	3.07499302e+02
106             	3.07521681e+02
107             	3.07541986e+02
108             	3.07561318e+02
109             	3.07580095e+02
110             	3.07599302e+02
111             	3.07618974e+02
112             	3.07639504e+02
113             	3.07660737e+02
114             	3.07682654e+02
115             	3.07704992e+02
116             	3.07727787e+02
117             	3.07751377e+02
118             	3.07776057e+02
119             	3.07800118e+02
120             	3.07825372e+02
121             	3.07850777e+02
122             	3.07876013e+02
123             	3.07901258e+02
124             	3.07926433e+02
125             	3.07951591e+02
126             	3.07976130e+02
127             	3.08000362e+02
128             	3.08024382e+02
129             	3.08047921e+02
130             	3.08071420e+02
131             	3.08094109e+02
132             	3.08116482e+02
133             	3.08138157e+02
134             	3.08159696e+02
135             	3.08180612e+02
136             	3.08201533e+02
137             	3.08221351e+02
138             	3.08240665e+02
139             	3.08259736e+02
140             	3.08279075e+02
141             	3.08298668e+02
142             	3.08318680e+02
143             	3.08338946e+02
144             	3.08358841e+02
145             	3.08378697e+02
146             	3.08398114e+02
147             	3.08417269e+02
148             	3.08436628e+02
149             	3.08456040e+02
150             	3.08475836e+02
151             	3.08496166e+02
152             	3.08516722e+02
153             	3.08537583e+02
154             	3.08558494e+02
155             	3.08578604e+02
156             	3.08597887e+02
157             	3.08615749e+02
158             	3.08632340e+02
159             	3.08647424e+02
160             	3.08661331e+02
161             	3.08674338e+02
162             	3.08686848e+02
163             	3.08699084e+02
164             	3.08711138e+02
165             	3.08723074e+02
166             	3.08735290e+02
167             	3.08748005e+02
168             	3.08761590e+02
169             	3.08775739e+02
170             	3.08790189e+02
171             	3.08805112e+02
172             	3.08820047e+02
173             	3.08834718e+02
174             	3.08849398e+02
175             	3.08862913e+02
176             	3.08875789e+02
177             	3.08887269e+02
178             	3.08897636e+02
179             	3.08907055e+02
180             	3.08915693e+02
181             	3.08923773e+02
182             	3.08931526e+02
183             	3.08939780e+02
184             	3.08948193e+02
185             	3.08957504e+02
186             	3.08967563e+02
187             	3.08978365e+02
188             	3.08989884e+02
189             	3.09001624e+02
190             	3.09013597e+02
191             	3.09025929e+02
192             	3.09038331e+02
193             	3.09050587e+02
194             	3.09062483e+02
195             	3.09074243e+02
196             	3.09085358e+02
197             	3.09096135e+02
198             	3.09106446e+02
199             	3.09116768e+02
200             	3.09126292e+02
201             	3.09135586e+02
202             	3.09144606e+02
203             	3.09153306e+02
204             	3.09161931e+02
205             	3.09170356e+02
206             	3.09178667e+02
207             	3.09186944e+02
208             	3.09194956e+02
209             	3.09202966e+02
210             	3.09210795e+02
211             	3.09217860e+02
212             	3.09225725e+02
213             	3.09234435e+02
214             	3.09243852e+02
215             	3.09253429e+02
216             	3.09262820e+02
217             	3.09272353e+02
218             	3.09281230e+02
219             	3.09288883e+02
220             	3.09295649e+02
221             	3.09301501e+02
222             	3.09306606e+02
223             	3.09311382e+02
224             	3.09315960e+02
225             	3.09320607e+02
226             	3.09325378e+02
227             	3.09330976e+02
228             	3.09337396e+02
229             	3.09344426e+02
230             	3.09352498e+02
231             	3.09361384e+02
232             	3.09370537e+02
233             	3.09379591e+02
234             	3.09388334e+02
235             	3.09396485e+02
236             	3.09403517e+02
237             	3.09409506e+02
238             	3.09414493e+02
239             	3.09418724e+02
240             	3.09422472e+02
241             	3.09426123e+02
242             	3.09429859e+02
243             	3.09434115e+02
244             	3.09439197e+02
245             	3.09445110e+02
246             	3.09451752e+02
247             	3.09458849e+02
248             	3.09466229e+02
249             	3.09472963e+02
250             	3.09479634e+02
251             	3.09485773e+02
252             	3.09491093e+02
253             	3.09495599e+02
254             	3.09499403e+02
255             	3.09502533e+02
256             	3.09505150e+02
257             	3.09507562e+02
258             	3.09509910e+02
259             	3.09512337e+02
260             	3.09514929e+02
261             	3.09517907e+02
262             	3.09521267e+02
263             	3.09524734e+02
264             	3.09528850e+02
265             	3.09533455e+02
266             	3.09538328e+02
267             	3.09543201e+02
268             	3.09547873e+02
269             	3.09552150e+02
270             	3.09555859e+02
271             	3.09558775e+02
272             	3.09561179e+02
273             	3.09563278e+02
274             	3.09565114e+02
275             	3.09566858e+02
276             	3.09568650e+02
277             	3.09570558e+02
278             	3.09572657e+02
279             	3.09575005e+02
280             	3.09577876e+02
281             	3.09581172e+02
282             	3.09584861e+02
283             	3.09589043e+02
284             	3.09593611e+02
285             	3.09598560e+02
286             	3.09603698e+02
287             	3.09608859e+02
288             	3.09613853e+02
289             	3.09618741e+02
290             	3.09623165e+02
291             	3.09626937e+02
292             	3.09630286e+02
293             	3.09633070e+02
294             	3.09635194e+02
295             	3.09636774e+02
296             	3.09637957e+02
297             	3.09639184e+02
298             	3.09640410e+02
299             	3.09641665e+02
300             	3.09642965e+02
301             	3.09644376e+02
302             	3.09646164e+02
303             	3.09648122e+02
304             	3.09650272e+02
305             	3.09652432e+02
306             	3.09654784e+02
307             	3.09657260e+02
308             	3.09659797e+02
309             	3.09662479e+02
310             	3.09665257e+02
311             	3.09668229e+02
312             	3.09671151e+02
313             	3.09674092e+02
314             	3.09676983e+02
315             	3.09679688e+02
316             	3.09682017e+02
317             	3.09683820e+02
318             	3.09685001e+02
319             	3.09685586e+02
320             	3.09685729e+02
321             	3.09685643e+02
322             	3.09685319e+02
323             	3.09685003e+02
324             	3.09684681e+02
325             	3.09684691e+02
326             	3.09685203e+02
327             	3.09686315e+02
328             	3.09687903e+02
329             	3.09689899e+02
330             	3.09692099e+02
331             	3.09694315e+02
332             	3.09696420e+02
333             	3.09698549e+02
334             	3.09700717e+02
335             	3.09702647e+02
336             	3.09704280e+02
337             	3.09705464e+02
338             	3.09706154e+02
339             	3.09706357e+02
340             	3.09706276e+02
341             	3.09705962e+02
342             	3.09705630e+02
343             	3.09705460e+02
344             	3.09705585e+02
345             	3.09705969e+02
346             	3.09706721e+02
347             	3.09707801e+02
348             	3.09709320e+02
349             	3.09711308e+02
350             	3.09713541e+02
351             	3.09715955e+02
352             	3.09718507e+02
353             	3.09721138e+02
354             	3.09723799e+02
355             	3.09726218e+02
356             	3.09728348e+02
357             	3.09730247e+02
358             	3.09731915e+02
359             	3.09733234e+02
360             	3.09734323e+02
361             	3.09735212e+02
362             	3.09735963e+02
363             	3.09736647e+02
364             	3.09737206e+02
365             	3.09737640e+02
366             	3.09737969e+02
367             	3.09738226e+02
368             	3.09738481e+02
369             	3.09738738e+02
370             	3.09739178e+02
371             	3.09739855e+02
372             	3.09740706e+02
373             	3.09741716e+02
374             	3.09742835e+02
375             	3.09744066e+02
376             	3.09745403e+02
377             	3.09746836e+02
378             	3.09748245e+02
379             	3.09749689e+02
380             	3.09751150e+02
381             	3.09752497e+02
382             	3.09753626e+02
383             	3.09754527e+02
384             	3.09755093e+02
385             	3.09755521e+02
386             	3.09755718e+02
387             	3.09755744e+02
388             	3.09755803e+02
389             	3.09756200e+02
390             	3.09756724e+02
391             	3.09757778e+02
392             	3.09759388e+02
393             	3.09761179e+02
394             	3.09763314e+02
395             	3.09765476e+02
396             	3.09767524e+02
397             	3.09769361e+02
398             	3.09770951e+02
399             	3.09772123e+02
400             	3.09772838e+02
401             	3.09773136e+02
402             	3.09773091e+02
403             	3.09772853e+02
404             	3.09772453e+02
405             	3.09772069e+02
406             	3.09771674e+02
407             	3.09771471e+02
408             	3.09771587e+02
409             	3.09772098e+02
410             	3.09772704e+02
411             	3.09773599e+02
412             	3.09774709e+02
413             	3.09775787e+02
414             	3.09776903e+02
415             	3.09777999e+02
416             	3.09778882e+02
417             	3.09779503e+02
418             	3.09779854e+02
419             	3.09779825e+02
420             	3.09779465e+02
421             	3.09778873e+02
422             	3.09778178e+02
423             	3.09777647e+02
424             	3.09777527e+02
425             	3.09777628e+02
426             	3.09778124e+02
427             	3.09779083e+02
428             	3.09780404e+02
429             	3.09782048e+02
430             	3.09783766e+02
431             	3.09785484e+02
432             	3.09787089e+02
433             	3.09788474e+02
434             	3.09789561e+02
435             	3.09790363e+02
436             	3.09790872e+02
437             	3.09791093e+02
438             	3.09791073e+02
439             	3.09790895e+02
440             	3.09790659e+02
441             	3.09790377e+02
442             	3.09790179e+02
443             	3.09790171e+02
444             	3.09790605e+02
445             	3.09791338e+02
446             	3.09792441e+02
447             	3.09793893e+02
448             	3.09795545e+02
449             	3.09797221e+02
450             	3.09798873e+02
451             	3.09800321e+02
452             	3.09801392e+02
453             	3.09802149e+02
454             	3.09802675e+02
455             	3.09802973e+02
456             	3.09803118e+02
457             	3.09803208e+02
458             	3.09803312e+02
459             	3.09803482e+02
460             	3.09803772e+02
461             	3.09804199e+02
462             	3.09804687e+02
463             	3.09805238e+02
464             	3.09805738e+02
465             	3.09806222e+02
466             	3.09806632e+02
467             	3.09807003e+02
468             	3.09807405e+02
469             	3.09807813e+02
470             	3.09808310e+02
471             	3.09808876e+02
472             	3.09809608e+02
473             	3.09810503e+02
474             	3.09811548e+02
475             	3.09812755e+02
476             	3.09814012e+02
477             	3.09815291e+02
478             	3.09816555e+02
479             	3.09817704e+02
480             	3.09818716e+02
481             	3.09819542e+02
482             	3.09820176e+02
483             	3.09820643e+02
484             	3.09820934e+02
485             	3.09821119e+02
486             	3.09821300e+02
487             	3.09821491e+02
488             	3.09821598e+02
489             	3.09821636e+02
490             	3.09821636e+02
491             	3.09821650e+02
492             	3.09821743e+02
493             	3.09822115e+02
494             	3.09822686e+02
495             	3.09823464e+02
496             	3.09824487e+02
497             	3.09825631e+02
498             	3.09826940e+02
499             	3.09828258e+02
500             	3.09829456e+02
501             	3.09830534e+02
502             	3.09831396e+02
503             	3.09832071e+02
504             	3.09832577e+02
505             	3.09832904e+02
506             	3.09833135e+02
507             	3.09833265e+02
508             	3.09833340e+02
509             	3.09833401e+02
510             	3.09833437e+02
511             	3.09833406e+02
512             	3.09833376e+02
513             	3.09833301e+02
514             	3.09833205e+02
515             	3.09833074e+02
516             	3.09832887e+02
517             	3.09832683e+02
518             	3.09832468e+02
519             	3.09832318e+02
520             	3.09832250e+02
521             	3.09832283e+02
522             	3.09832456e+02
523             	3.09832771e+02
524             	3.09833173e+02
525             	3.09833622e+02
526             	3.09834110e+02
527             	3.09834620e+02
528             	3.09835101e+02
529             	3.09835511e+02
530             	3.09835850e+02
531             	3.09836067e+02
532             	3.09836192e+02
533             	3.09836256e+02
534             	3.09836286e+02
535             	3.09836282e+02
536             	3.09836284e+02
537             	3.09836229e+02
538             	3.09836133e+02
539             	3.09835998e+02
540             	3.09835822e+02
541             	3.09835605e+02
542             	3.09835366e+02
543             	3.09835129e+02
544             	3.09834921e+02
545             	3.09834759e+02
546             	3.09834665e+02
547             	3.09834623e+02
548             	3.09834611e+02
549             	3.09834725e+02
550             	3.09834905e+02
551             	3.09835108e+02
552             	3.09835339e+02
553             	3.09835590e+02
554             	3.09835822e+02
555             	3.09836012e+02
556             	3.09836117e+02
557             	3.09836162e+02
558             	3.09836209e+02
559             	3.09836275e+02
560             	3.09836367e+02
561             	3.09836449e+02
562             	3.09836493e+02
563             	3.09836491e+02
564             	3.09836402e+02
565             	3.09836209e+02
566             	3.09835942e+02
567             	3.09835638e+02
568             	3.09835332e+02
569             	3.09835082e+02
570             	3.09834926e+02
571             	3.09834842e+02
572             	3.09834846e+02
573             	3.09834952e+02
574             	3.09835153e+02
575             	3.09835408e+02
576             	3.09835693e+02
577             	3.09835953e+02
578             	3.09836189e+02
579             	3.09836383e+02
580             	3.09836561e+02
581             	3.09836730e+02
582             	3.09836883e+02
583             	3.09837001e+02
584             	3.09837094e+02
585             	3.09837161e+02
586             	3.09837165e+02
587             	3.09837116e+02
588             	3.09836997e+02
589             	3.09836835e+02
590             	3.09836676e+02
591             	3.09836525e+02
592             	3.09836440e+02
593             	3.09836460e+02
594             	3.09836569e+02
595             	3.09836782e+02
596             	3.09837086e+02
597             	3.09837430e+02
598             	3.09837806e+02
599             	3.09838199e+02
600             	3.09838590e+02
601             	3.09838942e+02
602             	3.09839254e+02
603             	3.09839507e+02
604             	3.09839719e+02
605             	3.09839875e+02
606             	3.09839976e+02
607             	3.09840031e+02
608             	3.09840091e+02
609             	3.09840129e+02
610             	3.09840173e+02
611             	3.09840219e+02
612             	3.09840285e+02
613             	3.09840402e+02
614             	3.09840554e+02
615             	3.09840769e+02
616             	3.09841051e+02
617             	3.09841391e+02
618             	3.09841786e+02
619             	3.09842218e+02
620             	3.09842664e+02
621             	3.09843079e+02
