# Region        : cellZone component_2
# Cells         : 67
# Volume        : 9.89813936e-02
# Time          	volAverage(T)
1               	3.00605620e+02
2               	3.01200189e+02
3               	3.01751444e+02
4               	3.02284554e+02
5               	3.02812178e+02
6               	3.03338362e+02
7               	3.03863911e+02
8               	3.04394059e+02
9               	3.04923302e+02
10              	3.05450435e+02
11              	3.05972181e+02
12              	3.06490264e+02
13              	3.07001298e+02
14              	3.07508314e+02
15              	3.08017274e+02
16              	3.08522278e+02
17              	3.09027532e+02
18              	3.09524523e+02
19              	3.10017196e+02
20              	3.10504075e+02
21              	3.10990159e+02
22              	3.11467380e+02
23              	3.11938936e+02
24              	3.12404298e+02
25              	3.12865719e+02
26              	3.13327240e+02
27              	3.13783555e+02
28              	3.14231173e+02
29              	3.14672939e+02
30              	3.15107560e+02
31              	3.15543558e+02
32              	3.15979537e+02
33              	3.16410234e+02
34              	3.16833604e+02
35              	3.17236042e+02
36              	3.17620160e+02
37              	3.18006027e+02
38              	3.18408169e+02
39              	3.18801362e+02
40              	3.19185883e+02
41              	3.19570365e+02
42              	3.19957135e+02
43              	3.20337518e+02
44              	3.20716918e+02
45              	3.21089416e+02
46              	3.21453328e+02
47              	3.21814452e+02
48              	3.22170003e+02
49              	3.22536564e+02
50              	3.22905677e+02
51              	3.23272786e+02
52              	3.23625598e+02
53              	3.23971985e+02
54              	3.24323204e+02
55              	3.24674358e+02
56              	3.25025417e+02
57              	3.25377487e+02
58              	3.25728776e+02
59              	3.26080270e+02
60              	3.26416549e+02
61              	3.26755883e+02
62              	3.27076741e+02
63              	3.27411630e+02
64              	3.27744907e+02
65              	3.28078626e+02
66              	3.28409583e+02
67              	3.28737348e+02
68              	3.29056519e+02
69              	3.29370193e+02
70              	3.29676651e+02
71              	3.29976041e+02
72              	3.30274179e+02
73              	3.30568227e+02
74              	3.30858723e+02
75              	3.31146881e+02
76              	3.31432790e+02
77              	3.31719014e+02
78              	3.32002903e+02
79              	3.32276951e+02
80              	3.32552415e+02
81              	3.32822357e+02
82              	3.33098350e+02
83              	3.33369823e+02
84              	3.33641373e+02
85              	3.33891705e+02
86              	3.34152325e+02
87              	3.34414835e+02
88              	3.34679899e+02
89              	3.34940421e+02
90              	3.35196156e+02
91              	3.35447332e+02
92              	3.35692249e+02
93              	3.35933584e+02
94              	3.36172803e+02
95              	3.36410959e+02
96              	3.36638673e+02
97              	3.36869625e+02
98              	3.37093399e+02
99              	3.37319422e+02
100             	3.37538317e+02
101             	3.37758552e+02
102             	3.37977766e+02
103             	3.38193470e+02
104             	3.38405138e+02
105             	3.38613606e+02
106             	3.38820018e+02
107             	3.39018060e+02
108             	3.39216323e+02
109             	3.39413813e+02
110             	3.39607935e+02
111             	3.39799625e+02
112             	3.39988957e+02
113             	3.40176351e+02
114             	3.40362165e+02
115             	3.40546008e+02
116             	3.40728529e+02
117             	3.40910075e+02
118             	3.41086854e+02
119             	3.41262364e+02
120             	3.41437219e+02
121             	3.41611916e+02
122             	3.41785794e+02
123             	3.41958499e+02
124             	3.42128940e+02
125             	3.42296971e+02
126             	3.42462852e+02
127             	3.42626571e+02
128             	3.42788522e+02
129             	3.42948419e+02
130             	3.43106651e+02
131             	3.43263872e+02
132             	3.43417361e+02
133             	3.43569144e+02
134             	3.43715113e+02
135             	3.43861862e+02
136             	3.44008613e+02
137             	3.44154153e+02
138             	3.44297535e+02
139             	3.44440791e+02
140             	3.44580305e+02
141             	3.44721576e+02
142             	3.44858902e+02
143             	3.44992647e+02
144             	3.45128332e+02
145             	3.45261384e+02
146             	3.45395165e+02
147             	3.45529180e+02
148             	3.45659547e+02
149             	3.45787615e+02
150             	3.45914391e+02
151             	3.46039602e+02
152             	3.46164363e+02
153             	3.46288123e+02
154             	3.46409524e+02
155             	3.46529520e+02
156             	3.46646383e+02
157             	3.46762081e+02
158             	3.46876670e+02
159             	3.46989859e+02
160             	3.47101379e+02
161             	3.47211864e+02
162             	3.47321237e+02
163             	3.47427855e+02
164             	3.47534784e+02
165             	3.47640244e+02
166             	3.47744286e+02
167             	3.47847828e+02
168             	3.47949575e+02
169             	3.48051226e+02
170             	3.48151639e+02
171             	3.48250351e+02
172             	3.48347899e+02
173             	3.48445227e+02
174             	3.48541239e+02
175             	3.48635257e+02
176             	3.48728170e+02
177             	3.48821198e+02
178             	3.48912980e+02
179             	3.49003379e+02
180             	3.49092409e+02
181             	3.49181215e+02
182             	3.49269564e+02
183             	3.49354859e+02
184             	3.49440620e+02
185             	3.49525588e+02
186             	3.49610123e+02
187             	3.49693621e+02
188             	3.49775691e+02
189             	3.49857133e+02
190             	3.49938221e+02
191             	3.50017864e+02
192             	3.50096846e+02
193             	3.50174840e+02
194             	3.50252029e+02
195             	3.50327993e+02
196             	3.50403419e+02
197             	3.50478103e+02
198             	3.50552018e+02
199             	3.50623997e+02
200             	3.50696127e+02
201             	3.50766588e+02
202             	3.50836400e+02
203             	3.50906831e+02
204             	3.50975882e+02
205             	3.51043714e+02
206             	3.51111776e+02
207             	3.51179407e+02
208             	3.51246693e+02
209             	3.51312570e+02
210             	3.51378219e+02
211             	3.51443292e+02
212             	3.51505949e+02
213             	3.51569074e+02
214             	3.51631794e+02
215             	3.51693191e+02
216             	3.51754397e+02
217             	3.51814355e+02
218             	3.51873697e+02
219             	3.51933765e+02
220             	3.51993139e+02
221             	3.52051442e+02
222             	3.52108360e+02
223             	3.52165602e+02
224             	3.52221552e+02
225             	3.52276650e+02
226             	3.52330951e+02
227             	3.52385726e+02
228             	3.52439353e+02
229             	3.52492654e+02
230             	3.52544961e+02
231             	3.52597286e+02
232             	3.52649974e+02
233             	3.52701312e+02
234             	3.52752358e+02
235             	3.52802019e+02
236             	3.52852273e+02
237             	3.52901683e+02
238             	3.52950587e+02
239             	3.52999644e+02
240             	3.53047557e+02
241             	3.53094745e+02
242             	3.53142569e+02
243             	3.53189501e+02
244             	3.53236622e+02
245             	3.53282356e+02
246             	3.53328550e+02
247             	3.53373929e+02
248             	3.53419031e+02
249             	3.53463197e+02
250             	3.53507904e+02
251             	3.53551684e+02
252             	3.53595327e+02
253             	3.53637754e+02
254             	3.53680387e+02
255             	3.53722229e+02
256             	3.53763469e+02
257             	3.53805110e+02
258             	3.53846068e+02
259             	3.53887043e+02
260             	3.53926560e+02
261             	3.53966635e+02
262             	3.54006613e+02
263             	3.54045817e+02
264             	3.54084150e+02
265             	3.54123140e+02
266             	3.54161631e+02
267             	3.54199864e+02
268             	3.54237175e+02
269             	3.54274922e+02
270             	3.54312335e+02
271             	3.54349003e+02
272             	3.54386072e+02
273             	3.54422667e+02
274             	3.54459024e+02
275             	3.54494424e+02
276             	3.54530357e+02
277             	3.54565780e+02
278             	3.54601095e+02
279             	3.54635558e+02
280             	3.54670507e+02
281             	3.54704996e+02
282             	3.54739330e+02
283             	3.54772876e+02
284             	3.54807114e+02
285             	3.54840980e+02
286             	3.54874776e+02
287             	3.54907754e+02
288             	3.54941375e+02
289             	3.54974572e+02
290             	3.55007615e+02
291             	3.55039868e+02
292             	3.55072779e+02
293             	3.55105378e+02
294             	3.55137926e+02
295             	3.55169755e+02
296             	3.55202313e+02
297             	3.55234591e+02
298             	3.55266917e+02
299             	3.55298502e+02
300             	3.55330707e+02
301             	3.55362593e+02
302             	3.55394603e+02
303             	3.55426027e+02
304             	3.55458203e+02
305             	3.55490118e+02
306             	3.55522061e+02
307             	3.55553401e+02
308             	3.55585582e+02
309             	3.55617503e+02
310             	3.55649466e+02
311             	3.55680810e+02
312             	3.55712823e+02
313             	3.55744675e+02
314             	3.55776577e+02
315             	3.55807793e+02
316             	3.55839798e+02
317             	3.55871526e+02
318             	3.55903308e+02
319             	3.55934506e+02
320             	3.55966594e+02
321             	3.55998470e+02
322             	3.56030546e+02
323             	3.56061952e+02
324             	3.56094243e+02
325             	3.56126573e+02
326             	3.56158922e+02
327             	3.56190741e+02
328             	3.56223504e+02
329             	3.56256144e+02
330             	3.56288929e+02
331             	3.56321195e+02
332             	3.56354390e+02
333             	3.56387406e+02
334             	3.56420508e+02
335             	3.56452991e+02
336             	3.56486415e+02
337             	3.56519612e+02
338             	3.56553094e+02
339             	3.56586027e+02
340             	3.56619948e+02
341             	3.56653679e+02
342             	3.56687528e+02
343             	3.56720809e+02
344             	3.56755091e+02
345             	3.56789268e+02
346             	3.56823585e+02
347             	3.56857286e+02
348             	3.56891968e+02
349             	3.56926454e+02
350             	3.56961266e+02
351             	3.56995320e+02
352             	3.57030374e+02
353             	3.57065188e+02
354             	3.57100098e+02
355             	3.57134376e+02
356             	3.57169663e+02
357             	3.57204671e+02
358             	3.57239744e+02
359             	3.57274143e+02
360             	3.57309549e+02
361             	3.57344709e+02
362             	3.57380068e+02
363             	3.57414818e+02
364             	3.57450620e+02
365             	3.57486129e+02
366             	3.57521684e+02
367             	3.57556528e+02
368             	3.57592318e+02
369             	3.57627719e+02
370             	3.57663152e+02
371             	3.57697872e+02
372             	3.57733599e+02
373             	3.57768976e+02
374             	3.57804322e+02
375             	3.57838920e+02
376             	3.57874439e+02
377             	3.57909491e+02
378             	3.57944760e+02
379             	3.57978947e+02
380             	3.58013983e+02
381             	3.58048670e+02
382             	3.58083446e+02
383             	3.58117346e+02
384             	3.58152242e+02
385             	3.58186714e+02
386             	3.58221163e+02
387             	3.58254834e+02
388             	3.58289392e+02
389             	3.58323442e+02
390             	3.58357427e+02
391             	3.58390525e+02
392             	3.58424473e+02
393             	3.58458026e+02
394             	3.58491584e+02
395             	3.58524289e+02
396             	3.58557943e+02
397             	3.58590936e+02
398             	3.58624084e+02
399             	3.58656465e+02
400             	3.58689747e+02
401             	3.58722500e+02
402             	3.58755263e+02
403             	3.58787301e+02
404             	3.58820308e+02
405             	3.58852892e+02
406             	3.58885488e+02
407             	3.58917587e+02
408             	3.58950519e+02
409             	3.58983010e+02
410             	3.59015592e+02
411             	3.59047610e+02
412             	3.59080738e+02
413             	3.59113490e+02
414             	3.59146330e+02
415             	3.59178554e+02
416             	3.59211873e+02
417             	3.59244713e+02
418             	3.59277603e+02
419             	3.59309561e+02
420             	3.59342775e+02
421             	3.59375516e+02
422             	3.59408312e+02
423             	3.59440540e+02
424             	3.59473479e+02
425             	3.59505852e+02
426             	3.59538268e+02
427             	3.59569973e+02
428             	3.59602664e+02
429             	3.59634811e+02
430             	3.59666941e+02
431             	3.59698356e+02
432             	3.59730742e+02
433             	3.59762584e+02
434             	3.59794347e+02
435             	3.59825360e+02
436             	3.59857293e+02
437             	3.59888609e+02
438             	3.59919997e+02
439             	3.59950484e+02
440             	3.59981859e+02
441             	3.60012597e+02
442             	3.60043225e+02
443             	3.60073073e+02
444             	3.60103795e+02
445             	3.60133847e+02
446             	3.60163800e+02
447             	3.60193021e+02
448             	3.60223102e+02
449             	3.60252541e+02
450             	3.60281856e+02
451             	3.60310448e+02
452             	3.60339877e+02
453             	3.60368613e+02
454             	3.60397207e+02
455             	3.60425076e+02
456             	3.60453702e+02
457             	3.60481670e+02
458             	3.60509522e+02
459             	3.60536668e+02
460             	3.60564579e+02
461             	3.60591791e+02
462             	3.60618805e+02
463             	3.60645142e+02
464             	3.60672191e+02
465             	3.60698508e+02
466             	3.60724576e+02
467             	3.60749949e+02
468             	3.60775949e+02
469             	3.60801179e+02
470             	3.60826169e+02
471             	3.60850443e+02
472             	3.60875300e+02
473             	3.60899382e+02
474             	3.60923196e+02
475             	3.60947434e+02
476             	3.60971063e+02
477             	3.60993979e+02
478             	3.61016621e+02
479             	3.61039747e+02
480             	3.61062316e+02
481             	3.61084229e+02
482             	3.61105987e+02
483             	3.61128175e+02
484             	3.61149822e+02
485             	3.61170864e+02
486             	3.61191762e+02
487             	3.61213142e+02
488             	3.61234013e+02
489             	3.61254330e+02
490             	3.61274544e+02
491             	3.61295224e+02
492             	3.61315459e+02
493             	3.61335189e+02
494             	3.61354857e+02
495             	3.61375001e+02
496             	3.61394699e+02
497             	3.61413875e+02
498             	3.61432975e+02
499             	3.61452510e+02
500             	3.61471637e+02
501             	3.61490258e+02
502             	3.61508802e+02
503             	3.61527814e+02
504             	3.61546382e+02
505             	3.61564516e+02
506             	3.61582586e+02
507             	3.61601115e+02
508             	3.61619246e+02
509             	3.61636839e+02
510             	3.61654313e+02
511             	3.61672250e+02
512             	3.61689796e+02
513             	3.61706828e+02
514             	3.61723718e+02
515             	3.61741013e+02
516             	3.61757952e+02
517             	3.61774393e+02
518             	3.61790701e+02
519             	3.61807386e+02
520             	3.61823629e+02
521             	3.61839379e+02
522             	3.61854990e+02
523             	3.61870934e+02
524             	3.61886471e+02
525             	3.61901551e+02
526             	3.61916572e+02
527             	3.61931847e+02
528             	3.61946706e+02
529             	3.61961100e+02
530             	3.61975354e+02
531             	3.61989921e+02
532             	3.62004032e+02
533             	3.62017696e+02
534             	3.62031173e+02
535             	3.62044870e+02
536             	3.62058079e+02
537             	3.62070890e+02
538             	3.62083550e+02
539             	3.62096459e+02
540             	3.62108981e+02
541             	3.62121112e+02
542             	3.62133194e+02
543             	3.62145528e+02
544             	3.62157530e+02
545             	3.62169306e+02
546             	3.62180886e+02
547             	3.62192763e+02
548             	3.62204352e+02
549             	3.62215630e+02
550             	3.62226842e+02
551             	3.62238355e+02
552             	3.62249468e+02
553             	3.62260843e+02
554             	3.62271814e+02
555             	3.62283199e+02
556             	3.62294219e+02
557             	3.62305467e+02
558             	3.62316229e+02
559             	3.62327330e+02
560             	3.62338122e+02
561             	3.62349188e+02
562             	3.62359695e+02
563             	3.62370505e+02
564             	3.62381076e+02
565             	3.62391879e+02
566             	3.62402629e+02
567             	3.62413244e+02
568             	3.62423639e+02
569             	3.62434278e+02
570             	3.62444872e+02
571             	3.62455333e+02
572             	3.62465489e+02
573             	3.62475829e+02
574             	3.62486087e+02
575             	3.62496114e+02
576             	3.62505794e+02
577             	3.62515619e+02
578             	3.62525324e+02
579             	3.62534848e+02
580             	3.62544062e+02
581             	3.62553453e+02
582             	3.62562746e+02
583             	3.62571866e+02
584             	3.62580698e+02
585             	3.62589703e+02
586             	3.62598624e+02
587             	3.62607375e+02
588             	3.62615827e+02
589             	3.62624422e+02
590             	3.62632915e+02
591             	3.62641233e+02
592             	3.62649268e+02
593             	3.62657465e+02
594             	3.62665580e+02
595             	3.62673541e+02
596             	3.62681198e+02
597             	3.62689034e+02
598             	3.62696802e+02
599             	3.62704437e+02
600             	3.62711832e+02
601             	3.62719401e+02
602             	3.62726891e+02
603             	3.62734351e+02
604             	3.62741470e+02
605             	3.62748726e+02
606             	3.62755918e+02
607             	3.62762944e+02
608             	3.62769812e+02
609             	3.62776833e+02
610             	3.62783784e+02
611             	3.62790612e+02
612             	3.62797227e+02
613             	3.62804017e+02
614             	3.62810792e+02
615             	3.62817492e+02
616             	3.62823993e+02
617             	3.62830632e+02
618             	3.62837248e+02
619             	3.62843778e+02
620             	3.62850146e+02
621             	3.62856744e+02
