# Region        : cellZone component_1
# Cells         : 11
# Volume        : 1.29015665e-02
# Time          	volAverage(T)
1               	3.05739839e+02
2               	3.11287430e+02
3               	3.15089570e+02
4               	3.17815786e+02
5               	3.19951416e+02
6               	3.21606656e+02
7               	3.22986892e+02
8               	3.24154884e+02
9               	3.25334949e+02
10              	3.26322863e+02
11              	3.27221411e+02
12              	3.28080610e+02
13              	3.28932407e+02
14              	3.30036961e+02
15              	3.30906757e+02
16              	3.31620905e+02
17              	3.32219463e+02
18              	3.32481387e+02
19              	3.32772064e+02
20              	3.33116391e+02
21              	3.33548462e+02
22              	3.33913817e+02
23              	3.34133572e+02
24              	3.34071538e+02
25              	3.33994379e+02
26              	3.34182939e+02
27              	3.34449840e+02
28              	3.34739428e+02
29              	3.35025545e+02
30              	3.35275075e+02
31              	3.35379675e+02
32              	3.35286377e+02
33              	3.35226034e+02
34              	3.35317731e+02
35              	3.35356915e+02
36              	3.35488352e+02
37              	3.35506805e+02
38              	3.35610379e+02
39              	3.35802560e+02
40              	3.35849776e+02
41              	3.35811625e+02
42              	3.35747719e+02
43              	3.35762582e+02
44              	3.35729921e+02
45              	3.35277862e+02
46              	3.34905003e+02
47              	3.34670363e+02
48              	3.34629569e+02
49              	3.34661160e+02
50              	3.34868099e+02
51              	3.35044574e+02
52              	3.34976331e+02
53              	3.34612997e+02
54              	3.34218607e+02
55              	3.33703458e+02
56              	3.33254403e+02
57              	3.33006202e+02
58              	3.32993626e+02
59              	3.33107466e+02
60              	3.33080552e+02
61              	3.33007070e+02
62              	3.32886659e+02
63              	3.32708850e+02
64              	3.32556041e+02
65              	3.32440098e+02
66              	3.32346160e+02
67              	3.32305750e+02
68              	3.32238779e+02
69              	3.32219519e+02
70              	3.32225780e+02
71              	3.32180729e+02
72              	3.32069602e+02
73              	3.31896188e+02
74              	3.31667773e+02
75              	3.31329929e+02
76              	3.31190032e+02
77              	3.31239337e+02
78              	3.31346770e+02
79              	3.31583909e+02
80              	3.32026499e+02
81              	3.32656267e+02
82              	3.33498506e+02
83              	3.34431995e+02
84              	3.35325106e+02
85              	3.36527653e+02
86              	3.37509143e+02
87              	3.38475823e+02
88              	3.39246392e+02
89              	3.39967237e+02
90              	3.40614750e+02
91              	3.40906696e+02
92              	3.41106765e+02
93              	3.40997599e+02
94              	3.40827231e+02
95              	3.40541613e+02
96              	3.40098925e+02
97              	3.39488490e+02
98              	3.38742336e+02
99              	3.37896388e+02
100             	3.37067383e+02
101             	3.36341531e+02
102             	3.35911130e+02
103             	3.35472851e+02
104             	3.35155565e+02
105             	3.34758553e+02
106             	3.34461523e+02
107             	3.34117251e+02
108             	3.33955007e+02
109             	3.33735167e+02
110             	3.33708321e+02
111             	3.33650463e+02
112             	3.33816741e+02
113             	3.33944024e+02
114             	3.34140628e+02
115             	3.34400029e+02
116             	3.34715105e+02
117             	3.34918699e+02
118             	3.34959635e+02
119             	3.35101873e+02
120             	3.35142397e+02
121             	3.35227631e+02
122             	3.35240488e+02
123             	3.35339219e+02
124             	3.35360543e+02
125             	3.35487967e+02
126             	3.35572951e+02
127             	3.35771218e+02
128             	3.35859324e+02
129             	3.36072125e+02
130             	3.36319589e+02
131             	3.36601969e+02
132             	3.36827525e+02
133             	3.37066379e+02
134             	3.37346083e+02
135             	3.37607452e+02
136             	3.37889100e+02
137             	3.38199710e+02
138             	3.38524001e+02
139             	3.38866182e+02
140             	3.39176039e+02
141             	3.39426078e+02
142             	3.39785203e+02
143             	3.39948301e+02
144             	3.40085640e+02
145             	3.40101553e+02
146             	3.40180240e+02
147             	3.40110573e+02
148             	3.40057926e+02
149             	3.39870721e+02
150             	3.39730652e+02
151             	3.39505725e+02
152             	3.39391909e+02
153             	3.39183060e+02
154             	3.39130910e+02
155             	3.38937272e+02
156             	3.38993912e+02
157             	3.38907903e+02
158             	3.38836984e+02
159             	3.38829774e+02
160             	3.38885908e+02
161             	3.38964251e+02
162             	3.39071487e+02
163             	3.39087418e+02
164             	3.39106461e+02
165             	3.39189999e+02
166             	3.39305895e+02
167             	3.39418181e+02
168             	3.39506349e+02
169             	3.39569030e+02
170             	3.39600604e+02
171             	3.39632653e+02
172             	3.39614762e+02
173             	3.39562713e+02
174             	3.39494450e+02
175             	3.39418538e+02
176             	3.39343920e+02
177             	3.39278478e+02
178             	3.39233174e+02
179             	3.39218314e+02
180             	3.39266931e+02
181             	3.39391564e+02
182             	3.39557929e+02
183             	3.39749582e+02
184             	3.39942669e+02
185             	3.40125749e+02
186             	3.40267903e+02
187             	3.40485720e+02
188             	3.40642756e+02
189             	3.40762323e+02
190             	3.40854007e+02
191             	3.40900138e+02
192             	3.40955111e+02
193             	3.41009445e+02
194             	3.41036785e+02
195             	3.41004437e+02
196             	3.40955976e+02
197             	3.40910928e+02
198             	3.40852936e+02
199             	3.40777849e+02
200             	3.40659797e+02
201             	3.40542090e+02
202             	3.40389905e+02
203             	3.40244434e+02
204             	3.40104763e+02
205             	3.39960490e+02
206             	3.39842769e+02
207             	3.40013173e+02
208             	3.40044604e+02
209             	3.40076627e+02
210             	3.40161283e+02
211             	3.40322290e+02
212             	3.40541077e+02
213             	3.40751773e+02
214             	3.40871802e+02
215             	3.40935720e+02
216             	3.41022960e+02
217             	3.41112894e+02
218             	3.41191929e+02
219             	3.41248020e+02
220             	3.41251797e+02
221             	3.41228246e+02
222             	3.41190224e+02
223             	3.41166646e+02
224             	3.41146916e+02
225             	3.41144207e+02
226             	3.41139016e+02
227             	3.41146474e+02
228             	3.41136327e+02
229             	3.41099575e+02
230             	3.41062196e+02
231             	3.41037945e+02
232             	3.41036088e+02
233             	3.41055043e+02
234             	3.41093317e+02
235             	3.41154165e+02
236             	3.41265102e+02
237             	3.41401862e+02
238             	3.41532060e+02
239             	3.41645395e+02
240             	3.41737983e+02
241             	3.41802829e+02
242             	3.41835817e+02
243             	3.41843035e+02
244             	3.41809466e+02
245             	3.41732274e+02
246             	3.41681503e+02
247             	3.41646735e+02
248             	3.41621623e+02
249             	3.41609984e+02
250             	3.41604510e+02
251             	3.41604518e+02
252             	3.41641158e+02
253             	3.41655656e+02
254             	3.41641553e+02
255             	3.41624792e+02
256             	3.41619182e+02
257             	3.41668425e+02
258             	3.41763438e+02
259             	3.41884184e+02
260             	3.42039478e+02
261             	3.42212725e+02
262             	3.42387430e+02
263             	3.42541088e+02
264             	3.42674717e+02
265             	3.42785628e+02
266             	3.42855999e+02
267             	3.42888085e+02
268             	3.42913068e+02
269             	3.42924039e+02
270             	3.42884491e+02
271             	3.42833341e+02
272             	3.42738863e+02
273             	3.42589387e+02
274             	3.42424906e+02
275             	3.42250219e+02
276             	3.42066376e+02
277             	3.41879047e+02
278             	3.41696155e+02
279             	3.41517857e+02
280             	3.41335809e+02
281             	3.41164207e+02
282             	3.41014113e+02
283             	3.40919937e+02
284             	3.40872760e+02
285             	3.40855096e+02
286             	3.40850511e+02
287             	3.40858991e+02
288             	3.40890294e+02
289             	3.40942639e+02
290             	3.41014598e+02
291             	3.41111034e+02
292             	3.41226627e+02
293             	3.41349342e+02
294             	3.41473014e+02
295             	3.41601581e+02
296             	3.41752486e+02
297             	3.41889785e+02
298             	3.41992758e+02
299             	3.42070148e+02
300             	3.42113904e+02
301             	3.42157375e+02
302             	3.42206301e+02
303             	3.42249249e+02
304             	3.42295944e+02
305             	3.42348059e+02
306             	3.42392056e+02
307             	3.42428891e+02
308             	3.42462121e+02
309             	3.42487253e+02
310             	3.42500383e+02
311             	3.42495591e+02
312             	3.42481721e+02
313             	3.42444640e+02
314             	3.42394395e+02
315             	3.42350381e+02
316             	3.42337974e+02
317             	3.42324085e+02
318             	3.42309548e+02
319             	3.42315080e+02
320             	3.42313975e+02
321             	3.42310556e+02
322             	3.42297194e+02
323             	3.42274250e+02
324             	3.42241857e+02
325             	3.42200274e+02
326             	3.42152213e+02
327             	3.42093400e+02
328             	3.42029662e+02
329             	3.41966193e+02
330             	3.41911406e+02
331             	3.41862428e+02
332             	3.41822184e+02
333             	3.41788334e+02
334             	3.41751949e+02
335             	3.41722627e+02
336             	3.41700801e+02
337             	3.41677212e+02
338             	3.41658976e+02
339             	3.41635615e+02
340             	3.41592945e+02
341             	3.41526152e+02
342             	3.41475940e+02
343             	3.41454059e+02
344             	3.41445811e+02
345             	3.41444280e+02
346             	3.41450599e+02
347             	3.41449747e+02
348             	3.41474609e+02
349             	3.41562560e+02
350             	3.41654284e+02
351             	3.41745037e+02
352             	3.41846441e+02
353             	3.41972216e+02
354             	3.42081344e+02
355             	3.42184150e+02
356             	3.42296894e+02
357             	3.42404437e+02
358             	3.42500555e+02
359             	3.42567859e+02
360             	3.42606551e+02
361             	3.42632160e+02
362             	3.42644470e+02
363             	3.42648690e+02
364             	3.42643273e+02
365             	3.42632774e+02
366             	3.42620436e+02
367             	3.42601824e+02
368             	3.42575587e+02
369             	3.42548145e+02
370             	3.42510730e+02
371             	3.42499955e+02
372             	3.42484100e+02
373             	3.42461883e+02
374             	3.42435857e+02
375             	3.42408272e+02
376             	3.42386840e+02
377             	3.42371027e+02
378             	3.42364097e+02
379             	3.42292773e+02
380             	3.42239634e+02
381             	3.42201426e+02
382             	3.42165382e+02
383             	3.42128344e+02
384             	3.42086900e+02
385             	3.42029229e+02
386             	3.41974916e+02
387             	3.41952878e+02
388             	3.41911001e+02
389             	3.41859267e+02
390             	3.41821877e+02
391             	3.41815603e+02
392             	3.41865929e+02
393             	3.41936726e+02
394             	3.41998849e+02
395             	3.42034999e+02
396             	3.42063045e+02
397             	3.42083471e+02
398             	3.42086712e+02
399             	3.42102397e+02
400             	3.42124354e+02
401             	3.42148152e+02
402             	3.42183394e+02
403             	3.42221748e+02
404             	3.42250298e+02
405             	3.42272669e+02
406             	3.42298784e+02
407             	3.42315965e+02
408             	3.42338430e+02
409             	3.42367225e+02
410             	3.42387119e+02
411             	3.42406889e+02
412             	3.42426538e+02
413             	3.42453777e+02
414             	3.42475847e+02
415             	3.42502517e+02
416             	3.42509576e+02
417             	3.42533221e+02
418             	3.42550382e+02
419             	3.42553669e+02
420             	3.42556244e+02
421             	3.42560226e+02
422             	3.42566280e+02
423             	3.42568826e+02
424             	3.42573856e+02
425             	3.42562769e+02
426             	3.42519057e+02
427             	3.42471490e+02
428             	3.42413914e+02
429             	3.42344318e+02
430             	3.42281206e+02
431             	3.42230312e+02
432             	3.42194572e+02
433             	3.42173859e+02
434             	3.42159154e+02
435             	3.42155156e+02
436             	3.42154222e+02
437             	3.42136177e+02
438             	3.42120288e+02
439             	3.42104866e+02
440             	3.42083706e+02
441             	3.42070192e+02
442             	3.42063208e+02
443             	3.42090848e+02
444             	3.42147978e+02
445             	3.42212147e+02
446             	3.42284398e+02
447             	3.42360725e+02
448             	3.42432069e+02
449             	3.42496457e+02
450             	3.42563628e+02
451             	3.42621611e+02
452             	3.42675742e+02
453             	3.42726468e+02
454             	3.42767406e+02
455             	3.42803680e+02
456             	3.42834719e+02
457             	3.42856633e+02
458             	3.42862433e+02
459             	3.42845084e+02
460             	3.42821118e+02
461             	3.42794036e+02
462             	3.42756216e+02
463             	3.42714824e+02
464             	3.42661199e+02
465             	3.42604824e+02
466             	3.42550634e+02
467             	3.42495454e+02
468             	3.42435750e+02
469             	3.42379122e+02
470             	3.42326473e+02
471             	3.42301950e+02
472             	3.42305857e+02
473             	3.42318684e+02
474             	3.42333416e+02
475             	3.42351226e+02
476             	3.42371492e+02
477             	3.42386797e+02
478             	3.42413630e+02
479             	3.42445106e+02
480             	3.42472223e+02
481             	3.42507130e+02
482             	3.42513586e+02
483             	3.42511732e+02
484             	3.42509406e+02
485             	3.42505139e+02
486             	3.42498132e+02
487             	3.42485070e+02
488             	3.42457269e+02
489             	3.42427231e+02
490             	3.42398449e+02
491             	3.42367170e+02
492             	3.42341197e+02
493             	3.42317969e+02
494             	3.42303501e+02
495             	3.42298928e+02
496             	3.42295158e+02
497             	3.42301437e+02
498             	3.42315217e+02
499             	3.42325459e+02
500             	3.42342616e+02
501             	3.42357610e+02
502             	3.42364314e+02
503             	3.42373035e+02
504             	3.42410157e+02
505             	3.42441972e+02
506             	3.42475209e+02
507             	3.42516246e+02
508             	3.42556059e+02
509             	3.42599115e+02
510             	3.42649990e+02
511             	3.42690731e+02
512             	3.42729551e+02
513             	3.42766588e+02
514             	3.42784594e+02
515             	3.42797124e+02
516             	3.42800404e+02
517             	3.42778737e+02
518             	3.42755156e+02
519             	3.42728887e+02
520             	3.42700859e+02
521             	3.42666982e+02
522             	3.42630514e+02
523             	3.42590207e+02
524             	3.42554850e+02
525             	3.42514409e+02
526             	3.42497604e+02
527             	3.42485641e+02
528             	3.42478629e+02
529             	3.42473755e+02
530             	3.42490443e+02
531             	3.42517118e+02
532             	3.42558036e+02
533             	3.42577756e+02
534             	3.42598988e+02
535             	3.42623306e+02
536             	3.42641400e+02
537             	3.42654416e+02
538             	3.42658862e+02
539             	3.42662551e+02
540             	3.42663227e+02
541             	3.42662483e+02
542             	3.42657308e+02
543             	3.42648131e+02
544             	3.42633323e+02
545             	3.42614845e+02
546             	3.42592369e+02
547             	3.42569507e+02
548             	3.42545307e+02
549             	3.42522762e+02
550             	3.42502856e+02
551             	3.42487095e+02
552             	3.42473113e+02
553             	3.42463530e+02
554             	3.42453664e+02
555             	3.42446641e+02
556             	3.42438279e+02
557             	3.42430043e+02
558             	3.42423538e+02
559             	3.42410022e+02
560             	3.42398477e+02
561             	3.42390070e+02
562             	3.42385307e+02
563             	3.42385323e+02
564             	3.42388457e+02
565             	3.42388605e+02
566             	3.42390400e+02
567             	3.42396153e+02
568             	3.42392327e+02
569             	3.42391581e+02
570             	3.42391939e+02
571             	3.42398370e+02
572             	3.42406193e+02
573             	3.42408944e+02
574             	3.42416217e+02
575             	3.42429917e+02
576             	3.42441604e+02
577             	3.42458111e+02
578             	3.42478909e+02
579             	3.42494569e+02
580             	3.42512858e+02
581             	3.42533613e+02
582             	3.42558100e+02
583             	3.42581289e+02
584             	3.42602689e+02
585             	3.42623039e+02
586             	3.42640994e+02
587             	3.42654833e+02
588             	3.42668699e+02
589             	3.42678229e+02
590             	3.42688391e+02
591             	3.42694371e+02
592             	3.42700872e+02
593             	3.42705594e+02
594             	3.42714294e+02
595             	3.42717917e+02
596             	3.42716914e+02
597             	3.42708885e+02
598             	3.42696739e+02
599             	3.42678157e+02
600             	3.42657085e+02
601             	3.42631555e+02
602             	3.42606946e+02
603             	3.42585206e+02
604             	3.42567120e+02
605             	3.42554049e+02
606             	3.42545803e+02
607             	3.42539285e+02
608             	3.42527407e+02
609             	3.42516769e+02
610             	3.42508172e+02
611             	3.42501490e+02
612             	3.42490146e+02
613             	3.42472795e+02
614             	3.42451430e+02
615             	3.42431668e+02
616             	3.42416286e+02
617             	3.42409113e+02
618             	3.42412866e+02
619             	3.42419459e+02
620             	3.42430228e+02
621             	3.42442927e+02
