# Region        : cellZone component_4
# Cells         : 368
# Volume        : 7.41682037e-01
# Time          	volAverage(T)
1               	3.00197355e+02
2               	3.00393087e+02
3               	3.00577391e+02
4               	3.00754171e+02
5               	3.00926653e+02
6               	3.01096250e+02
7               	3.01263679e+02
8               	3.01429502e+02
9               	3.01593867e+02
10              	3.01756604e+02
11              	3.01918013e+02
12              	3.02077974e+02
13              	3.02236829e+02
14              	3.02394717e+02
15              	3.02549727e+02
16              	3.02702850e+02
17              	3.02854513e+02
18              	3.03004503e+02
19              	3.03151457e+02
20              	3.03296023e+02
21              	3.03438830e+02
22              	3.03579646e+02
23              	3.03717385e+02
24              	3.03852366e+02
25              	3.03985324e+02
26              	3.04115233e+02
27              	3.04244957e+02
28              	3.04371972e+02
29              	3.04496384e+02
30              	3.04618984e+02
31              	3.04736626e+02
32              	3.04849110e+02
33              	3.04957761e+02
34              	3.05066111e+02
35              	3.05175465e+02
36              	3.05284461e+02
37              	3.05390967e+02
38              	3.05494941e+02
39              	3.05596197e+02
40              	3.05694972e+02
41              	3.05793363e+02
42              	3.05891103e+02
43              	3.05988300e+02
44              	3.06084307e+02
45              	3.06180182e+02
46              	3.06276495e+02
47              	3.06374956e+02
48              	3.06474572e+02
49              	3.06573281e+02
50              	3.06672016e+02
51              	3.06768820e+02
52              	3.06866827e+02
53              	3.06965294e+02
54              	3.07062239e+02
55              	3.07158243e+02
56              	3.07252957e+02
57              	3.07346442e+02
58              	3.07438568e+02
59              	3.07525668e+02
60              	3.07610656e+02
61              	3.07691936e+02
62              	3.07772581e+02
63              	3.07852895e+02
64              	3.07931745e+02
65              	3.08009622e+02
66              	3.08086350e+02
67              	3.08162894e+02
68              	3.08239327e+02
69              	3.08315133e+02
70              	3.08389725e+02
71              	3.08464240e+02
72              	3.08538026e+02
73              	3.08611599e+02
74              	3.08684270e+02
75              	3.08755474e+02
76              	3.08824895e+02
77              	3.08893868e+02
78              	3.08961450e+02
79              	3.09028700e+02
80              	3.09095049e+02
81              	3.09160431e+02
82              	3.09225095e+02
83              	3.09289397e+02
84              	3.09353170e+02
85              	3.09416090e+02
86              	3.09477830e+02
87              	3.09539875e+02
88              	3.09600824e+02
89              	3.09661026e+02
90              	3.09719712e+02
91              	3.09778977e+02
92              	3.09838125e+02
93              	3.09896751e+02
94              	3.09954124e+02
95              	3.10012040e+02
96              	3.10069169e+02
97              	3.10126587e+02
98              	3.10183795e+02
99              	3.10240785e+02
100             	3.10296973e+02
101             	3.10353836e+02
102             	3.10409802e+02
103             	3.10465077e+02
104             	3.10520358e+02
105             	3.10575051e+02
106             	3.10626748e+02
107             	3.10676455e+02
108             	3.10728860e+02
109             	3.10781547e+02
110             	3.10834390e+02
111             	3.10885985e+02
112             	3.10935384e+02
113             	3.10983036e+02
114             	3.11030372e+02
115             	3.11075942e+02
116             	3.11121162e+02
117             	3.11166451e+02
118             	3.11210934e+02
119             	3.11255734e+02
120             	3.11300114e+02
121             	3.11344620e+02
122             	3.11393903e+02
123             	3.11445751e+02
124             	3.11498260e+02
125             	3.11549847e+02
126             	3.11600055e+02
127             	3.11647705e+02
128             	3.11696452e+02
129             	3.11745889e+02
130             	3.11794440e+02
131             	3.11844076e+02
132             	3.11894156e+02
133             	3.11944067e+02
134             	3.11995253e+02
135             	3.12046267e+02
136             	3.12097342e+02
137             	3.12147551e+02
138             	3.12197801e+02
139             	3.12248015e+02
140             	3.12296728e+02
141             	3.12345355e+02
142             	3.12393755e+02
143             	3.12441732e+02
144             	3.12489015e+02
145             	3.12536462e+02
146             	3.12583137e+02
147             	3.12630086e+02
148             	3.12676519e+02
149             	3.12722151e+02
150             	3.12766727e+02
151             	3.12809885e+02
152             	3.12851702e+02
153             	3.12891167e+02
154             	3.12927957e+02
155             	3.12961374e+02
156             	3.12991919e+02
157             	3.13020426e+02
158             	3.13048144e+02
159             	3.13075279e+02
160             	3.13102369e+02
161             	3.13129845e+02
162             	3.13156861e+02
163             	3.13183350e+02
164             	3.13210153e+02
165             	3.13235934e+02
166             	3.13261146e+02
167             	3.13285267e+02
168             	3.13309096e+02
169             	3.13332914e+02
170             	3.13356936e+02
171             	3.13380596e+02
172             	3.13403872e+02
173             	3.13426904e+02
174             	3.13450126e+02
175             	3.13473606e+02
176             	3.13497514e+02
177             	3.13521660e+02
178             	3.13545622e+02
179             	3.13569299e+02
180             	3.13592481e+02
181             	3.13614861e+02
182             	3.13637102e+02
183             	3.13659145e+02
184             	3.13680808e+02
185             	3.13702428e+02
186             	3.13723645e+02
187             	3.13744492e+02
188             	3.13764683e+02
189             	3.13784342e+02
190             	3.13803262e+02
191             	3.13821533e+02
192             	3.13838949e+02
193             	3.13855330e+02
194             	3.13871018e+02
195             	3.13886797e+02
196             	3.13902717e+02
197             	3.13918570e+02
198             	3.13934178e+02
199             	3.13949662e+02
200             	3.13965233e+02
201             	3.13980918e+02
202             	3.13996027e+02
203             	3.14010892e+02
204             	3.14024932e+02
205             	3.14038630e+02
206             	3.14052220e+02
207             	3.14065910e+02
208             	3.14079140e+02
209             	3.14092171e+02
210             	3.14104823e+02
211             	3.14117927e+02
212             	3.14130991e+02
213             	3.14143825e+02
214             	3.14156610e+02
215             	3.14169434e+02
216             	3.14182156e+02
217             	3.14194523e+02
218             	3.14206465e+02
219             	3.14217857e+02
220             	3.14228911e+02
221             	3.14240316e+02
222             	3.14251057e+02
223             	3.14261655e+02
224             	3.14272295e+02
225             	3.14283049e+02
226             	3.14293770e+02
227             	3.14304374e+02
228             	3.14314849e+02
229             	3.14324994e+02
230             	3.14334745e+02
231             	3.14344226e+02
232             	3.14353402e+02
233             	3.14362420e+02
234             	3.14371494e+02
235             	3.14380542e+02
236             	3.14389574e+02
237             	3.14398644e+02
238             	3.14407645e+02
239             	3.14416649e+02
240             	3.14425613e+02
241             	3.14434549e+02
242             	3.14443390e+02
243             	3.14451960e+02
244             	3.14460399e+02
245             	3.14468840e+02
246             	3.14477362e+02
247             	3.14485722e+02
248             	3.14493843e+02
249             	3.14501710e+02
250             	3.14509684e+02
251             	3.14517670e+02
252             	3.14525605e+02
253             	3.14533379e+02
254             	3.14541045e+02
255             	3.14548536e+02
256             	3.14555935e+02
257             	3.14563389e+02
258             	3.14570626e+02
259             	3.14577716e+02
260             	3.14584923e+02
261             	3.14592081e+02
262             	3.14599253e+02
263             	3.14606417e+02
264             	3.14613455e+02
265             	3.14620345e+02
266             	3.14627101e+02
267             	3.14633743e+02
268             	3.14640277e+02
269             	3.14646708e+02
270             	3.14652862e+02
271             	3.14658934e+02
272             	3.14664842e+02
273             	3.14670535e+02
274             	3.14676004e+02
275             	3.14681303e+02
276             	3.14686460e+02
277             	3.14691506e+02
278             	3.14696500e+02
279             	3.14701457e+02
280             	3.14706410e+02
281             	3.14711368e+02
282             	3.14716318e+02
283             	3.14721270e+02
284             	3.14726294e+02
285             	3.14731372e+02
286             	3.14736437e+02
287             	3.14741470e+02
288             	3.14746486e+02
289             	3.14751492e+02
290             	3.14756326e+02
291             	3.14761323e+02
292             	3.14766374e+02
293             	3.14771416e+02
294             	3.14776420e+02
295             	3.14781416e+02
296             	3.14786333e+02
297             	3.14791151e+02
298             	3.14795916e+02
299             	3.14800611e+02
300             	3.14805275e+02
301             	3.14809953e+02
302             	3.14814577e+02
303             	3.14819157e+02
304             	3.14823730e+02
305             	3.14828253e+02
306             	3.14832697e+02
307             	3.14837085e+02
308             	3.14841472e+02
309             	3.14845834e+02
310             	3.14850171e+02
311             	3.14854484e+02
312             	3.14858766e+02
313             	3.14862955e+02
314             	3.14867210e+02
315             	3.14871509e+02
316             	3.14875777e+02
317             	3.14880017e+02
318             	3.14884222e+02
319             	3.14888400e+02
320             	3.14892544e+02
321             	3.14896629e+02
322             	3.14900603e+02
323             	3.14904555e+02
324             	3.14908635e+02
325             	3.14912758e+02
326             	3.14916830e+02
327             	3.14920886e+02
328             	3.14924843e+02
329             	3.14928786e+02
330             	3.14932692e+02
331             	3.14936575e+02
332             	3.14940406e+02
333             	3.14944216e+02
334             	3.14947981e+02
335             	3.14951682e+02
336             	3.14955323e+02
337             	3.14958924e+02
338             	3.14962488e+02
339             	3.14965994e+02
340             	3.14969437e+02
341             	3.14972933e+02
342             	3.14976477e+02
343             	3.14980044e+02
344             	3.14983607e+02
345             	3.14987142e+02
346             	3.14990624e+02
347             	3.14994054e+02
348             	3.14997407e+02
349             	3.15000733e+02
350             	3.15004036e+02
351             	3.15007306e+02
352             	3.15010542e+02
353             	3.15013748e+02
354             	3.15016922e+02
355             	3.15020065e+02
356             	3.15023178e+02
357             	3.15026263e+02
358             	3.15029298e+02
359             	3.15032308e+02
360             	3.15035308e+02
361             	3.15038286e+02
362             	3.15041242e+02
363             	3.15044172e+02
364             	3.15047085e+02
365             	3.15049987e+02
366             	3.15052869e+02
367             	3.15055728e+02
368             	3.15058559e+02
369             	3.15061361e+02
370             	3.15064143e+02
371             	3.15066892e+02
372             	3.15069606e+02
373             	3.15072256e+02
374             	3.15074888e+02
375             	3.15077515e+02
376             	3.15080109e+02
377             	3.15082667e+02
378             	3.15085196e+02
379             	3.15087707e+02
380             	3.15090188e+02
381             	3.15092646e+02
382             	3.15095080e+02
383             	3.15097489e+02
384             	3.15099864e+02
385             	3.15102215e+02
386             	3.15104554e+02
387             	3.15106869e+02
388             	3.15109156e+02
389             	3.15111414e+02
390             	3.15113656e+02
391             	3.15115875e+02
392             	3.15118066e+02
393             	3.15120242e+02
394             	3.15122405e+02
395             	3.15124547e+02
396             	3.15126675e+02
397             	3.15128788e+02
398             	3.15130888e+02
399             	3.15132972e+02
400             	3.15135039e+02
401             	3.15137088e+02
402             	3.15139120e+02
403             	3.15141130e+02
404             	3.15143126e+02
405             	3.15145098e+02
406             	3.15147048e+02
407             	3.15148981e+02
408             	3.15150896e+02
409             	3.15152791e+02
410             	3.15154666e+02
411             	3.15156516e+02
412             	3.15158344e+02
413             	3.15160151e+02
414             	3.15161938e+02
415             	3.15163706e+02
416             	3.15165457e+02
417             	3.15167196e+02
418             	3.15168922e+02
419             	3.15170635e+02
420             	3.15172336e+02
421             	3.15174023e+02
422             	3.15175694e+02
423             	3.15177349e+02
424             	3.15178984e+02
425             	3.15180599e+02
426             	3.15182199e+02
427             	3.15183785e+02
428             	3.15185359e+02
429             	3.15186918e+02
430             	3.15188465e+02
431             	3.15190001e+02
432             	3.15191521e+02
433             	3.15193019e+02
434             	3.15194505e+02
435             	3.15195976e+02
436             	3.15197432e+02
437             	3.15198868e+02
438             	3.15200285e+02
439             	3.15201689e+02
440             	3.15203079e+02
441             	3.15204453e+02
442             	3.15205814e+02
443             	3.15207160e+02
444             	3.15208494e+02
445             	3.15209817e+02
446             	3.15211128e+02
447             	3.15212428e+02
448             	3.15213713e+02
449             	3.15214981e+02
450             	3.15216238e+02
451             	3.15217481e+02
452             	3.15218715e+02
453             	3.15219941e+02
454             	3.15221160e+02
455             	3.15222371e+02
456             	3.15223574e+02
457             	3.15224762e+02
458             	3.15225940e+02
459             	3.15227107e+02
460             	3.15228260e+02
461             	3.15229396e+02
462             	3.15230519e+02
463             	3.15231634e+02
464             	3.15232736e+02
465             	3.15233826e+02
466             	3.15234906e+02
467             	3.15235975e+02
468             	3.15237024e+02
469             	3.15238066e+02
470             	3.15239105e+02
471             	3.15240134e+02
472             	3.15241153e+02
473             	3.15242161e+02
474             	3.15243160e+02
475             	3.15244148e+02
476             	3.15245128e+02
477             	3.15246099e+02
478             	3.15247060e+02
479             	3.15248015e+02
480             	3.15248962e+02
481             	3.15249900e+02
482             	3.15250830e+02
483             	3.15251752e+02
484             	3.15252668e+02
485             	3.15253575e+02
486             	3.15254474e+02
487             	3.15255367e+02
488             	3.15256254e+02
489             	3.15257135e+02
490             	3.15258008e+02
491             	3.15258868e+02
492             	3.15259720e+02
493             	3.15260560e+02
494             	3.15261391e+02
495             	3.15262214e+02
496             	3.15263028e+02
497             	3.15263835e+02
498             	3.15264634e+02
499             	3.15265424e+02
500             	3.15266203e+02
501             	3.15266973e+02
502             	3.15267737e+02
503             	3.15268492e+02
504             	3.15269239e+02
505             	3.15269977e+02
506             	3.15270706e+02
507             	3.15271427e+02
508             	3.15272143e+02
509             	3.15272852e+02
510             	3.15273555e+02
511             	3.15274250e+02
512             	3.15274940e+02
513             	3.15275624e+02
514             	3.15276301e+02
515             	3.15276971e+02
516             	3.15277631e+02
517             	3.15278286e+02
518             	3.15278935e+02
519             	3.15279580e+02
520             	3.15280220e+02
521             	3.15280855e+02
522             	3.15281483e+02
523             	3.15282108e+02
524             	3.15282729e+02
525             	3.15283344e+02
526             	3.15283954e+02
527             	3.15284559e+02
528             	3.15285157e+02
529             	3.15285749e+02
530             	3.15286335e+02
531             	3.15286916e+02
532             	3.15287494e+02
533             	3.15288066e+02
534             	3.15288633e+02
535             	3.15289196e+02
536             	3.15289753e+02
537             	3.15290303e+02
538             	3.15290848e+02
539             	3.15291389e+02
540             	3.15291925e+02
541             	3.15292455e+02
542             	3.15292980e+02
543             	3.15293501e+02
544             	3.15294017e+02
545             	3.15294528e+02
546             	3.15295035e+02
547             	3.15295536e+02
548             	3.15296033e+02
549             	3.15296524e+02
550             	3.15297011e+02
551             	3.15297493e+02
552             	3.15297971e+02
553             	3.15298443e+02
554             	3.15298912e+02
555             	3.15299374e+02
556             	3.15299832e+02
557             	3.15300286e+02
558             	3.15300733e+02
559             	3.15301175e+02
560             	3.15301613e+02
561             	3.15302042e+02
562             	3.15302467e+02
563             	3.15302891e+02
564             	3.15303312e+02
565             	3.15303728e+02
566             	3.15304141e+02
567             	3.15304550e+02
568             	3.15304956e+02
569             	3.15305357e+02
570             	3.15305756e+02
571             	3.15306151e+02
572             	3.15306543e+02
573             	3.15306930e+02
574             	3.15307315e+02
575             	3.15307696e+02
576             	3.15308073e+02
577             	3.15308448e+02
578             	3.15308819e+02
579             	3.15309187e+02
580             	3.15309551e+02
581             	3.15309912e+02
582             	3.15310270e+02
583             	3.15310624e+02
584             	3.15310975e+02
585             	3.15311323e+02
586             	3.15311667e+02
587             	3.15312006e+02
588             	3.15312342e+02
589             	3.15312674e+02
590             	3.15313002e+02
591             	3.15313326e+02
592             	3.15313646e+02
593             	3.15313961e+02
594             	3.15314272e+02
595             	3.15314582e+02
596             	3.15314890e+02
597             	3.15315196e+02
598             	3.15315499e+02
599             	3.15315801e+02
600             	3.15316100e+02
601             	3.15316397e+02
602             	3.15316689e+02
603             	3.15316979e+02
604             	3.15317265e+02
605             	3.15317547e+02
606             	3.15317822e+02
607             	3.15318092e+02
608             	3.15318360e+02
609             	3.15318630e+02
610             	3.15318899e+02
611             	3.15319166e+02
612             	3.15319431e+02
613             	3.15319693e+02
614             	3.15319954e+02
615             	3.15320216e+02
616             	3.15320475e+02
617             	3.15320732e+02
618             	3.15320987e+02
619             	3.15321238e+02
620             	3.15321485e+02
621             	3.15321731e+02
