# Region        : cellZone component_3
# Cells         : 184
# Volume        : 1.55614845e-01
# Time          	volAverage(T)
1               	3.02659795e+02
2               	3.05270379e+02
3               	3.07579006e+02
4               	3.09665719e+02
5               	3.11635996e+02
6               	3.13526161e+02
7               	3.15343820e+02
8               	3.17094912e+02
9               	3.18794510e+02
10              	3.20457508e+02
11              	3.22082044e+02
12              	3.23663072e+02
13              	3.25183912e+02
14              	3.26669596e+02
15              	3.28105835e+02
16              	3.29500238e+02
17              	3.30843945e+02
18              	3.32143296e+02
19              	3.33427263e+02
20              	3.34678067e+02
21              	3.35901261e+02
22              	3.37095641e+02
23              	3.38266314e+02
24              	3.39405961e+02
25              	3.40502976e+02
26              	3.41555586e+02
27              	3.42549586e+02
28              	3.43518322e+02
29              	3.44465832e+02
30              	3.45412940e+02
31              	3.46371045e+02
32              	3.47359182e+02
33              	3.48369673e+02
34              	3.49363403e+02
35              	3.50326182e+02
36              	3.51236401e+02
37              	3.52072041e+02
38              	3.52836465e+02
39              	3.53538161e+02
40              	3.54193151e+02
41              	3.54831928e+02
42              	3.55465247e+02
43              	3.56111610e+02
44              	3.56767606e+02
45              	3.57438849e+02
46              	3.58115278e+02
47              	3.58798399e+02
48              	3.59465039e+02
49              	3.60108306e+02
50              	3.60726344e+02
51              	3.61316138e+02
52              	3.61888076e+02
53              	3.62457061e+02
54              	3.63038348e+02
55              	3.63640704e+02
56              	3.64254674e+02
57              	3.64871050e+02
58              	3.65478557e+02
59              	3.66052445e+02
60              	3.66578056e+02
61              	3.67055854e+02
62              	3.67503396e+02
63              	3.67935757e+02
64              	3.68338602e+02
65              	3.68729105e+02
66              	3.69124251e+02
67              	3.69548140e+02
68              	3.69998169e+02
69              	3.70476164e+02
70              	3.70963736e+02
71              	3.71443987e+02
72              	3.71901979e+02
73              	3.72320783e+02
74              	3.72701162e+02
75              	3.73035599e+02
76              	3.73334436e+02
77              	3.73606015e+02
78              	3.73858882e+02
79              	3.74103303e+02
80              	3.74349350e+02
81              	3.74606870e+02
82              	3.74879479e+02
83              	3.75166519e+02
84              	3.75461477e+02
85              	3.75755500e+02
86              	3.76048584e+02
87              	3.76338410e+02
88              	3.76622580e+02
89              	3.76899034e+02
90              	3.77173060e+02
91              	3.77456442e+02
92              	3.77747378e+02
93              	3.78038682e+02
94              	3.78332955e+02
95              	3.78622478e+02
96              	3.78898571e+02
97              	3.79150970e+02
98              	3.79382831e+02
99              	3.79576829e+02
100             	3.79762096e+02
101             	3.79941285e+02
102             	3.80128475e+02
103             	3.80339520e+02
104             	3.80571321e+02
105             	3.80831766e+02
106             	3.81120645e+02
107             	3.81424223e+02
108             	3.81728915e+02
109             	3.82021950e+02
110             	3.82288413e+02
111             	3.82522596e+02
112             	3.82712973e+02
113             	3.82860629e+02
114             	3.82988993e+02
115             	3.83100885e+02
116             	3.83208850e+02
117             	3.83333039e+02
118             	3.83468873e+02
119             	3.83622674e+02
120             	3.83793091e+02
121             	3.83970395e+02
122             	3.84143611e+02
123             	3.84309256e+02
124             	3.84466807e+02
125             	3.84613242e+02
126             	3.84746883e+02
127             	3.84873196e+02
128             	3.84997875e+02
129             	3.85122606e+02
130             	3.85252430e+02
131             	3.85387732e+02
132             	3.85530859e+02
133             	3.85680827e+02
134             	3.85836583e+02
135             	3.85994861e+02
136             	3.86150043e+02
137             	3.86299558e+02
138             	3.86442601e+02
139             	3.86578853e+02
140             	3.86707349e+02
141             	3.86827721e+02
142             	3.86940275e+02
143             	3.87045507e+02
144             	3.87148333e+02
145             	3.87253485e+02
146             	3.87362100e+02
147             	3.87470153e+02
148             	3.87579596e+02
149             	3.87693127e+02
150             	3.87800562e+02
151             	3.87906502e+02
152             	3.88011412e+02
153             	3.88112554e+02
154             	3.88207290e+02
155             	3.88296180e+02
156             	3.88384036e+02
157             	3.88473948e+02
158             	3.88564060e+02
159             	3.88655463e+02
160             	3.88747334e+02
161             	3.88837305e+02
162             	3.88921418e+02
163             	3.89002238e+02
164             	3.89078006e+02
165             	3.89147973e+02
166             	3.89211472e+02
167             	3.89269463e+02
168             	3.89323568e+02
169             	3.89377153e+02
170             	3.89434106e+02
171             	3.89492990e+02
172             	3.89555701e+02
173             	3.89621527e+02
174             	3.89690015e+02
175             	3.89759231e+02
176             	3.89826679e+02
177             	3.89894583e+02
178             	3.89959095e+02
179             	3.90018964e+02
180             	3.90074453e+02
181             	3.90126912e+02
182             	3.90178906e+02
183             	3.90231290e+02
184             	3.90283988e+02
185             	3.90339133e+02
186             	3.90398030e+02
187             	3.90458764e+02
188             	3.90517118e+02
189             	3.90574098e+02
190             	3.90628757e+02
191             	3.90679096e+02
192             	3.90723927e+02
193             	3.90764625e+02
194             	3.90802610e+02
195             	3.90840197e+02
196             	3.90878175e+02
197             	3.90916620e+02
198             	3.90957118e+02
199             	3.91000532e+02
200             	3.91046637e+02
201             	3.91092994e+02
202             	3.91139456e+02
203             	3.91185695e+02
204             	3.91229163e+02
205             	3.91269533e+02
206             	3.91308176e+02
207             	3.91346472e+02
208             	3.91384096e+02
209             	3.91421376e+02
210             	3.91459165e+02
211             	3.91497818e+02
212             	3.91537776e+02
213             	3.91578581e+02
214             	3.91617487e+02
215             	3.91654639e+02
216             	3.91690586e+02
217             	3.91724784e+02
218             	3.91756600e+02
219             	3.91786313e+02
220             	3.91815206e+02
221             	3.91843458e+02
222             	3.91871328e+02
223             	3.91900490e+02
224             	3.91931145e+02
225             	3.91963108e+02
226             	3.91994774e+02
227             	3.92025940e+02
228             	3.92056942e+02
229             	3.92087228e+02
230             	3.92116126e+02
231             	3.92143416e+02
232             	3.92170346e+02
233             	3.92197065e+02
234             	3.92223581e+02
235             	3.92251171e+02
236             	3.92280320e+02
237             	3.92311140e+02
238             	3.92342279e+02
239             	3.92371486e+02
240             	3.92398624e+02
241             	3.92424101e+02
242             	3.92447913e+02
243             	3.92469783e+02
244             	3.92490192e+02
245             	3.92510112e+02
246             	3.92529881e+02
247             	3.92549265e+02
248             	3.92569180e+02
249             	3.92590402e+02
250             	3.92612931e+02
251             	3.92635987e+02
252             	3.92658400e+02
253             	3.92680215e+02
254             	3.92701231e+02
255             	3.92721208e+02
256             	3.92740435e+02
257             	3.92759498e+02
258             	3.92778975e+02
259             	3.92798800e+02
260             	3.92819253e+02
261             	3.92840680e+02
262             	3.92863144e+02
263             	3.92885631e+02
264             	3.92906951e+02
265             	3.92926773e+02
266             	3.92944884e+02
267             	3.92961232e+02
268             	3.92975762e+02
269             	3.92989126e+02
270             	3.93002648e+02
271             	3.93016282e+02
272             	3.93029981e+02
273             	3.93044341e+02
274             	3.93059832e+02
275             	3.93076162e+02
276             	3.93092396e+02
277             	3.93108419e+02
278             	3.93123942e+02
279             	3.93138335e+02
280             	3.93151692e+02
281             	3.93164633e+02
282             	3.93177911e+02
283             	3.93191903e+02
284             	3.93206386e+02
285             	3.93221295e+02
286             	3.93236662e+02
287             	3.93252035e+02
288             	3.93266342e+02
289             	3.93279674e+02
290             	3.93292530e+02
291             	3.93304607e+02
292             	3.93315660e+02
293             	3.93325875e+02
294             	3.93335734e+02
295             	3.93345602e+02
296             	3.93355945e+02
297             	3.93366747e+02
298             	3.93378476e+02
299             	3.93390758e+02
300             	3.93402637e+02
301             	3.93414078e+02
302             	3.93425150e+02
303             	3.93435512e+02
304             	3.93445257e+02
305             	3.93454811e+02
306             	3.93464676e+02
307             	3.93475332e+02
308             	3.93486787e+02
309             	3.93498746e+02
310             	3.93510702e+02
311             	3.93521966e+02
312             	3.93532103e+02
313             	3.93541231e+02
314             	3.93549713e+02
315             	3.93557487e+02
316             	3.93564660e+02
317             	3.93571475e+02
318             	3.93578075e+02
319             	3.93584752e+02
320             	3.93591799e+02
321             	3.93599214e+02
322             	3.93607137e+02
323             	3.93615654e+02
324             	3.93624594e+02
325             	3.93633443e+02
326             	3.93641909e+02
327             	3.93649818e+02
328             	3.93657018e+02
329             	3.93663811e+02
330             	3.93670757e+02
331             	3.93678158e+02
332             	3.93686084e+02
333             	3.93694524e+02
334             	3.93703281e+02
335             	3.93711886e+02
336             	3.93719864e+02
337             	3.93727184e+02
338             	3.93733643e+02
339             	3.93739227e+02
340             	3.93744159e+02
341             	3.93748731e+02
342             	3.93753330e+02
343             	3.93758199e+02
344             	3.93763345e+02
345             	3.93768902e+02
346             	3.93774902e+02
347             	3.93781165e+02
348             	3.93787348e+02
349             	3.93793312e+02
350             	3.93798877e+02
351             	3.93804194e+02
352             	3.93809271e+02
353             	3.93814312e+02
354             	3.93819422e+02
355             	3.93824611e+02
356             	3.93829988e+02
357             	3.93835593e+02
358             	3.93841407e+02
359             	3.93847423e+02
360             	3.93853379e+02
361             	3.93858881e+02
362             	3.93863872e+02
363             	3.93868380e+02
364             	3.93872415e+02
365             	3.93876007e+02
366             	3.93879238e+02
367             	3.93882305e+02
368             	3.93885596e+02
369             	3.93889097e+02
370             	3.93892830e+02
371             	3.93896872e+02
372             	3.93901089e+02
373             	3.93905389e+02
374             	3.93909680e+02
375             	3.93913993e+02
376             	3.93918188e+02
377             	3.93922248e+02
378             	3.93926121e+02
379             	3.93929976e+02
380             	3.93933915e+02
381             	3.93937950e+02
382             	3.93942091e+02
383             	3.93946423e+02
384             	3.93950784e+02
385             	3.93954960e+02
386             	3.93958808e+02
387             	3.93962179e+02
388             	3.93965128e+02
389             	3.93967783e+02
390             	3.93970188e+02
391             	3.93972596e+02
392             	3.93975286e+02
393             	3.93978253e+02
394             	3.93981401e+02
395             	3.93984675e+02
396             	3.93988054e+02
397             	3.93991494e+02
398             	3.93994921e+02
399             	3.93998186e+02
400             	3.94001192e+02
401             	3.94003875e+02
402             	3.94006251e+02
403             	3.94008459e+02
404             	3.94010660e+02
405             	3.94013005e+02
406             	3.94015551e+02
407             	3.94018306e+02
408             	3.94021213e+02
409             	3.94024155e+02
410             	3.94027088e+02
411             	3.94029822e+02
412             	3.94032342e+02
413             	3.94034728e+02
414             	3.94036987e+02
415             	3.94039068e+02
416             	3.94040991e+02
417             	3.94042829e+02
418             	3.94044681e+02
419             	3.94046608e+02
420             	3.94048627e+02
421             	3.94050822e+02
422             	3.94053193e+02
423             	3.94055724e+02
424             	3.94058277e+02
425             	3.94060721e+02
426             	3.94063003e+02
427             	3.94065109e+02
428             	3.94067070e+02
429             	3.94068911e+02
430             	3.94070605e+02
431             	3.94072230e+02
432             	3.94073867e+02
433             	3.94075621e+02
434             	3.94077412e+02
435             	3.94079227e+02
436             	3.94081049e+02
437             	3.94082858e+02
438             	3.94084721e+02
439             	3.94086573e+02
440             	3.94088360e+02
441             	3.94090023e+02
442             	3.94091571e+02
443             	3.94093060e+02
444             	3.94094413e+02
445             	3.94095671e+02
446             	3.94096936e+02
447             	3.94098276e+02
448             	3.94099710e+02
449             	3.94101210e+02
450             	3.94102713e+02
451             	3.94104227e+02
452             	3.94105740e+02
453             	3.94107229e+02
454             	3.94108666e+02
455             	3.94110052e+02
456             	3.94111373e+02
457             	3.94112631e+02
458             	3.94113854e+02
459             	3.94115035e+02
460             	3.94116211e+02
461             	3.94117366e+02
462             	3.94118480e+02
463             	3.94119551e+02
464             	3.94120591e+02
465             	3.94121593e+02
466             	3.94122579e+02
467             	3.94123571e+02
468             	3.94124646e+02
469             	3.94125816e+02
470             	3.94127070e+02
471             	3.94128303e+02
472             	3.94129510e+02
473             	3.94130647e+02
474             	3.94131666e+02
475             	3.94132582e+02
476             	3.94133401e+02
477             	3.94134172e+02
478             	3.94134977e+02
479             	3.94135837e+02
480             	3.94136745e+02
481             	3.94137718e+02
482             	3.94138718e+02
483             	3.94139782e+02
484             	3.94140851e+02
485             	3.94141867e+02
486             	3.94142842e+02
487             	3.94143734e+02
488             	3.94144538e+02
489             	3.94145271e+02
490             	3.94145983e+02
491             	3.94146698e+02
492             	3.94147454e+02
493             	3.94148292e+02
494             	3.94149225e+02
495             	3.94150256e+02
496             	3.94151297e+02
497             	3.94152302e+02
498             	3.94153210e+02
499             	3.94154001e+02
500             	3.94154703e+02
501             	3.94155316e+02
502             	3.94155861e+02
503             	3.94156399e+02
504             	3.94156935e+02
505             	3.94157493e+02
506             	3.94158096e+02
507             	3.94158743e+02
508             	3.94159459e+02
509             	3.94160223e+02
510             	3.94160976e+02
511             	3.94161672e+02
512             	3.94162316e+02
513             	3.94162941e+02
514             	3.94163521e+02
515             	3.94164061e+02
516             	3.94164565e+02
517             	3.94165052e+02
518             	3.94165574e+02
519             	3.94166129e+02
520             	3.94166696e+02
521             	3.94167250e+02
522             	3.94167782e+02
523             	3.94168310e+02
524             	3.94168836e+02
525             	3.94169354e+02
526             	3.94169848e+02
527             	3.94170325e+02
528             	3.94170813e+02
529             	3.94171319e+02
530             	3.94171828e+02
531             	3.94172341e+02
532             	3.94172865e+02
533             	3.94173405e+02
534             	3.94173903e+02
535             	3.94174346e+02
536             	3.94174743e+02
537             	3.94175105e+02
538             	3.94175443e+02
539             	3.94175782e+02
540             	3.94176118e+02
541             	3.94176453e+02
542             	3.94176793e+02
543             	3.94177151e+02
544             	3.94177520e+02
545             	3.94177897e+02
546             	3.94178279e+02
547             	3.94178673e+02
548             	3.94179093e+02
549             	3.94179529e+02
550             	3.94179941e+02
551             	3.94180313e+02
552             	3.94180649e+02
553             	3.94180964e+02
554             	3.94181261e+02
555             	3.94181534e+02
556             	3.94181789e+02
557             	3.94182032e+02
558             	3.94182287e+02
559             	3.94182581e+02
560             	3.94182909e+02
561             	3.94183259e+02
562             	3.94183606e+02
563             	3.94183974e+02
564             	3.94184344e+02
565             	3.94184698e+02
566             	3.94185029e+02
567             	3.94185344e+02
568             	3.94185641e+02
569             	3.94185924e+02
570             	3.94186183e+02
571             	3.94186422e+02
572             	3.94186645e+02
573             	3.94186872e+02
574             	3.94187101e+02
575             	3.94187331e+02
576             	3.94187564e+02
577             	3.94187801e+02
578             	3.94188055e+02
579             	3.94188323e+02
580             	3.94188592e+02
581             	3.94188857e+02
582             	3.94189115e+02
583             	3.94189378e+02
584             	3.94189631e+02
585             	3.94189868e+02
586             	3.94190086e+02
587             	3.94190287e+02
588             	3.94190486e+02
589             	3.94190684e+02
590             	3.94190879e+02
591             	3.94191068e+02
592             	3.94191251e+02
593             	3.94191443e+02
594             	3.94191639e+02
595             	3.94191828e+02
596             	3.94192013e+02
597             	3.94192201e+02
598             	3.94192401e+02
599             	3.94192607e+02
600             	3.94192808e+02
601             	3.94193003e+02
602             	3.94193188e+02
603             	3.94193370e+02
604             	3.94193556e+02
605             	3.94193737e+02
606             	3.94193909e+02
607             	3.94194073e+02
608             	3.94194242e+02
609             	3.94194410e+02
610             	3.94194572e+02
611             	3.94194727e+02
612             	3.94194879e+02
613             	3.94195053e+02
614             	3.94195240e+02
615             	3.94195428e+02
616             	3.94195611e+02
617             	3.94195787e+02
618             	3.94195955e+02
619             	3.94196121e+02
620             	3.94196284e+02
621             	3.94196436e+02
