# Region        : cellZone component_3
# Cells         : 240
# Volume        : 4.64155869e-01
# Time          	volAverage(T)
1               	3.01483915e+02
2               	3.02952163e+02
3               	3.04288418e+02
4               	3.05532980e+02
5               	3.06733091e+02
6               	3.07900900e+02
7               	3.09045347e+02
8               	3.10172892e+02
9               	3.11293396e+02
10              	3.12388420e+02
11              	3.13441190e+02
12              	3.14468645e+02
13              	3.15481277e+02
14              	3.16477319e+02
15              	3.17442222e+02
16              	3.18374780e+02
17              	3.19261029e+02
18              	3.20111972e+02
19              	3.20985594e+02
20              	3.21876120e+02
21              	3.22732947e+02
22              	3.23529440e+02
23              	3.24301929e+02
24              	3.25056161e+02
25              	3.25808306e+02
26              	3.26573698e+02
27              	3.27297522e+02
28              	3.27923618e+02
29              	3.28429844e+02
30              	3.28926590e+02
31              	3.29409897e+02
32              	3.29913581e+02
33              	3.30400513e+02
34              	3.30924156e+02
35              	3.31439316e+02
36              	3.31982324e+02
37              	3.32508089e+02
38              	3.32983090e+02
39              	3.33481039e+02
40              	3.33954774e+02
41              	3.34440963e+02
42              	3.34902774e+02
43              	3.35249755e+02
44              	3.35548916e+02
45              	3.35772972e+02
46              	3.36033813e+02
47              	3.36339469e+02
48              	3.36668220e+02
49              	3.37012657e+02
50              	3.37338181e+02
51              	3.37740583e+02
52              	3.38110706e+02
53              	3.38453815e+02
54              	3.38780569e+02
55              	3.39093159e+02
56              	3.39383850e+02
57              	3.39677818e+02
58              	3.39995018e+02
59              	3.40163891e+02
60              	3.40306863e+02
61              	3.40443769e+02
62              	3.40569088e+02
63              	3.40701225e+02
64              	3.40958555e+02
65              	3.41241549e+02
66              	3.41517588e+02
67              	3.41783930e+02
68              	3.42045327e+02
69              	3.42317330e+02
70              	3.42602565e+02
71              	3.42921294e+02
72              	3.43082093e+02
73              	3.43110101e+02
74              	3.43130693e+02
75              	3.43174314e+02
76              	3.43298538e+02
77              	3.43532491e+02
78              	3.43813266e+02
79              	3.44085195e+02
80              	3.44313613e+02
81              	3.44529633e+02
82              	3.44788627e+02
83              	3.45040339e+02
84              	3.45227780e+02
85              	3.45387753e+02
86              	3.45497200e+02
87              	3.45603963e+02
88              	3.45704634e+02
89              	3.45816589e+02
90              	3.45931791e+02
91              	3.46075017e+02
92              	3.46288140e+02
93              	3.46446880e+02
94              	3.46584533e+02
95              	3.46741539e+02
96              	3.46873134e+02
97              	3.47035802e+02
98              	3.47281975e+02
99              	3.47502951e+02
100             	3.47629246e+02
101             	3.47657910e+02
102             	3.47659808e+02
103             	3.47650063e+02
104             	3.47733779e+02
105             	3.47902118e+02
106             	3.47978215e+02
107             	3.48039069e+02
108             	3.48124040e+02
109             	3.48261042e+02
110             	3.48411576e+02
111             	3.48611394e+02
112             	3.48816199e+02
113             	3.48871115e+02
114             	3.48853804e+02
115             	3.48801225e+02
116             	3.48774134e+02
117             	3.48774170e+02
118             	3.48915760e+02
119             	3.49038348e+02
120             	3.49131731e+02
121             	3.49208960e+02
122             	3.49289307e+02
123             	3.49411860e+02
124             	3.49533084e+02
125             	3.49642650e+02
126             	3.49735561e+02
127             	3.49817943e+02
128             	3.49876626e+02
129             	3.49917085e+02
130             	3.49944039e+02
131             	3.50043283e+02
132             	3.50226766e+02
133             	3.50343139e+02
134             	3.50389643e+02
135             	3.50417723e+02
136             	3.50461568e+02
137             	3.50575782e+02
138             	3.50703214e+02
139             	3.50809241e+02
140             	3.50867938e+02
141             	3.50880591e+02
142             	3.50873963e+02
143             	3.50826683e+02
144             	3.50897109e+02
145             	3.51076748e+02
146             	3.51211131e+02
147             	3.51282042e+02
148             	3.51347076e+02
149             	3.51445927e+02
150             	3.51530742e+02
151             	3.51663345e+02
152             	3.51815985e+02
153             	3.51960325e+02
154             	3.52054232e+02
155             	3.52044766e+02
156             	3.51953185e+02
157             	3.51892640e+02
158             	3.51917889e+02
159             	3.52084264e+02
160             	3.52237317e+02
161             	3.52314329e+02
162             	3.52377487e+02
163             	3.52465830e+02
164             	3.52558783e+02
165             	3.52644485e+02
166             	3.52780045e+02
167             	3.52958785e+02
168             	3.53071691e+02
169             	3.53116778e+02
170             	3.53129909e+02
171             	3.53148674e+02
172             	3.53129690e+02
173             	3.53181791e+02
174             	3.53339131e+02
175             	3.53443988e+02
176             	3.53506306e+02
177             	3.53559196e+02
178             	3.53599808e+02
179             	3.53702970e+02
180             	3.53826253e+02
181             	3.53952105e+02
182             	3.54064099e+02
183             	3.54174317e+02
184             	3.54219927e+02
185             	3.54192073e+02
186             	3.54242419e+02
187             	3.54388510e+02
188             	3.54548658e+02
189             	3.54678748e+02
190             	3.54783200e+02
191             	3.54870951e+02
192             	3.54955864e+02
193             	3.55084449e+02
194             	3.55223815e+02
195             	3.55340197e+02
196             	3.55494242e+02
197             	3.55600932e+02
198             	3.55667869e+02
199             	3.55668840e+02
200             	3.55760746e+02
201             	3.55938316e+02
202             	3.56133551e+02
203             	3.56308692e+02
204             	3.56473184e+02
205             	3.56629801e+02
206             	3.56781627e+02
207             	3.56954643e+02
208             	3.57116715e+02
209             	3.57295705e+02
210             	3.57491999e+02
211             	3.57694589e+02
212             	3.57904004e+02
213             	3.58120600e+02
214             	3.58344170e+02
215             	3.58569701e+02
216             	3.58787548e+02
217             	3.59000133e+02
218             	3.59208484e+02
219             	3.59409873e+02
220             	3.59601568e+02
221             	3.59804331e+02
222             	3.60015068e+02
223             	3.60225058e+02
224             	3.60435603e+02
225             	3.60652338e+02
226             	3.60862700e+02
227             	3.61079614e+02
228             	3.61295045e+02
229             	3.61502662e+02
230             	3.61681762e+02
231             	3.61852536e+02
232             	3.62018560e+02
233             	3.62172495e+02
234             	3.62316898e+02
235             	3.62456937e+02
236             	3.62596706e+02
237             	3.62736928e+02
238             	3.62876602e+02
239             	3.63017257e+02
240             	3.63160367e+02
241             	3.63306007e+02
242             	3.63455784e+02
243             	3.63602316e+02
244             	3.63756983e+02
245             	3.63905499e+02
246             	3.64046030e+02
247             	3.64193163e+02
248             	3.64339299e+02
249             	3.64495120e+02
250             	3.64668866e+02
251             	3.64853794e+02
252             	3.65041612e+02
253             	3.65218293e+02
254             	3.65385807e+02
255             	3.65554780e+02
256             	3.65734022e+02
257             	3.65907165e+02
258             	3.66076623e+02
259             	3.66229265e+02
260             	3.66382228e+02
261             	3.66516598e+02
262             	3.66648363e+02
263             	3.66789057e+02
264             	3.66917498e+02
265             	3.67040189e+02
266             	3.67156939e+02
267             	3.67278230e+02
268             	3.67395232e+02
269             	3.67517210e+02
270             	3.67636986e+02
271             	3.67762601e+02
272             	3.67901427e+02
273             	3.68051417e+02
274             	3.68192111e+02
275             	3.68330716e+02
276             	3.68466926e+02
277             	3.68601629e+02
278             	3.68736340e+02
279             	3.68854692e+02
280             	3.68972431e+02
281             	3.69088643e+02
282             	3.69198758e+02
283             	3.69314078e+02
284             	3.69438659e+02
285             	3.69574505e+02
286             	3.69709602e+02
287             	3.69848524e+02
288             	3.69962495e+02
289             	3.70057890e+02
290             	3.70151618e+02
291             	3.70248438e+02
292             	3.70326868e+02
293             	3.70389608e+02
294             	3.70448672e+02
295             	3.70515109e+02
296             	3.70586206e+02
297             	3.70645922e+02
298             	3.70717169e+02
299             	3.70783250e+02
300             	3.70836631e+02
301             	3.70896743e+02
302             	3.70977529e+02
303             	3.71079477e+02
304             	3.71166854e+02
305             	3.71245645e+02
306             	3.71320828e+02
307             	3.71385110e+02
308             	3.71445521e+02
309             	3.71491158e+02
310             	3.71521899e+02
311             	3.71538816e+02
312             	3.71557104e+02
313             	3.71583400e+02
314             	3.71611319e+02
315             	3.71646674e+02
316             	3.71689835e+02
317             	3.71732305e+02
318             	3.71777395e+02
319             	3.71814746e+02
320             	3.71860003e+02
321             	3.71896833e+02
322             	3.71939296e+02
323             	3.71978685e+02
324             	3.72010719e+02
325             	3.72048130e+02
326             	3.72096004e+02
327             	3.72154939e+02
328             	3.72214413e+02
329             	3.72256927e+02
330             	3.72294686e+02
331             	3.72336778e+02
332             	3.72383282e+02
333             	3.72421189e+02
334             	3.72450614e+02
335             	3.72479483e+02
336             	3.72511355e+02
337             	3.72539440e+02
338             	3.72572207e+02
339             	3.72614182e+02
340             	3.72657608e+02
341             	3.72709935e+02
342             	3.72773587e+02
343             	3.72845413e+02
344             	3.72894205e+02
345             	3.72942072e+02
346             	3.72982029e+02
347             	3.73023263e+02
348             	3.73057033e+02
349             	3.73087065e+02
350             	3.73105616e+02
351             	3.73131190e+02
352             	3.73155365e+02
353             	3.73181156e+02
354             	3.73217375e+02
355             	3.73252320e+02
356             	3.73290249e+02
357             	3.73334057e+02
358             	3.73377959e+02
359             	3.73421753e+02
360             	3.73469176e+02
361             	3.73503180e+02
362             	3.73545326e+02
363             	3.73578484e+02
364             	3.73606213e+02
365             	3.73637834e+02
366             	3.73669094e+02
367             	3.73698746e+02
368             	3.73726013e+02
369             	3.73760134e+02
370             	3.73802013e+02
371             	3.73846126e+02
372             	3.73888416e+02
373             	3.73946707e+02
374             	3.74010937e+02
375             	3.74077910e+02
376             	3.74141030e+02
377             	3.74209006e+02
378             	3.74257678e+02
379             	3.74294707e+02
380             	3.74337821e+02
381             	3.74376474e+02
382             	3.74397589e+02
383             	3.74409356e+02
384             	3.74417503e+02
385             	3.74424280e+02
386             	3.74422087e+02
387             	3.74423351e+02
388             	3.74425627e+02
389             	3.74426427e+02
390             	3.74425838e+02
391             	3.74424579e+02
392             	3.74426991e+02
393             	3.74429537e+02
394             	3.74432142e+02
395             	3.74438678e+02
396             	3.74447634e+02
397             	3.74456075e+02
398             	3.74466310e+02
399             	3.74472855e+02
400             	3.74481029e+02
401             	3.74492943e+02
402             	3.74509816e+02
403             	3.74532750e+02
404             	3.74556789e+02
405             	3.74581792e+02
406             	3.74608243e+02
407             	3.74637185e+02
408             	3.74654045e+02
409             	3.74675758e+02
410             	3.74692295e+02
411             	3.74699407e+02
412             	3.74712117e+02
413             	3.74721742e+02
414             	3.74725616e+02
415             	3.74729017e+02
416             	3.74730827e+02
417             	3.74730603e+02
418             	3.74732537e+02
419             	3.74738215e+02
420             	3.74746301e+02
421             	3.74758924e+02
422             	3.74775494e+02
423             	3.74794099e+02
424             	3.74812669e+02
425             	3.74830348e+02
426             	3.74849383e+02
427             	3.74873722e+02
428             	3.74893499e+02
429             	3.74915629e+02
430             	3.74941550e+02
431             	3.74971484e+02
432             	3.74999734e+02
433             	3.75027068e+02
434             	3.75046400e+02
435             	3.75059630e+02
436             	3.75073423e+02
437             	3.75087741e+02
438             	3.75100880e+02
439             	3.75110724e+02
440             	3.75119599e+02
441             	3.75125799e+02
442             	3.75124606e+02
443             	3.75130013e+02
444             	3.75138618e+02
445             	3.75147084e+02
446             	3.75157693e+02
447             	3.75168112e+02
448             	3.75181694e+02
449             	3.75198941e+02
450             	3.75218082e+02
451             	3.75233677e+02
452             	3.75259247e+02
453             	3.75290839e+02
454             	3.75321034e+02
455             	3.75352403e+02
456             	3.75385293e+02
457             	3.75410133e+02
458             	3.75435483e+02
459             	3.75464697e+02
460             	3.75499436e+02
461             	3.75529708e+02
462             	3.75554022e+02
463             	3.75572317e+02
464             	3.75581481e+02
465             	3.75585244e+02
466             	3.75583603e+02
467             	3.75585601e+02
468             	3.75583972e+02
469             	3.75579106e+02
470             	3.75571115e+02
471             	3.75558683e+02
472             	3.75547460e+02
473             	3.75539938e+02
474             	3.75535772e+02
475             	3.75533873e+02
476             	3.75534606e+02
477             	3.75538596e+02
478             	3.75542620e+02
479             	3.75553473e+02
480             	3.75568304e+02
481             	3.75584350e+02
482             	3.75600057e+02
483             	3.75617109e+02
484             	3.75633940e+02
485             	3.75656841e+02
486             	3.75669099e+02
487             	3.75679973e+02
488             	3.75690891e+02
489             	3.75696300e+02
490             	3.75697574e+02
491             	3.75701398e+02
492             	3.75700780e+02
493             	3.75699164e+02
494             	3.75694999e+02
495             	3.75685271e+02
496             	3.75678208e+02
497             	3.75668994e+02
498             	3.75654258e+02
499             	3.75640135e+02
500             	3.75630785e+02
501             	3.75623061e+02
502             	3.75619227e+02
503             	3.75615442e+02
504             	3.75615037e+02
505             	3.75617222e+02
506             	3.75624309e+02
507             	3.75639656e+02
508             	3.75654924e+02
509             	3.75661733e+02
510             	3.75669026e+02
511             	3.75680059e+02
512             	3.75697110e+02
513             	3.75713033e+02
514             	3.75727653e+02
515             	3.75742617e+02
516             	3.75756174e+02
517             	3.75768400e+02
518             	3.75769873e+02
519             	3.75779283e+02
520             	3.75783666e+02
521             	3.75785179e+02
522             	3.75784998e+02
523             	3.75782300e+02
524             	3.75774979e+02
525             	3.75764745e+02
526             	3.75758303e+02
527             	3.75754230e+02
528             	3.75747602e+02
529             	3.75733752e+02
530             	3.75724541e+02
531             	3.75721856e+02
532             	3.75719322e+02
533             	3.75715234e+02
534             	3.75712384e+02
535             	3.75714579e+02
536             	3.75715808e+02
537             	3.75722958e+02
538             	3.75732582e+02
539             	3.75739585e+02
540             	3.75747134e+02
541             	3.75758006e+02
542             	3.75770537e+02
543             	3.75776293e+02
544             	3.75782417e+02
545             	3.75792179e+02
546             	3.75803893e+02
547             	3.75813856e+02
548             	3.75826995e+02
549             	3.75832725e+02
550             	3.75839525e+02
551             	3.75847649e+02
552             	3.75855056e+02
553             	3.75859805e+02
554             	3.75861932e+02
555             	3.75861613e+02
556             	3.75852459e+02
557             	3.75845882e+02
558             	3.75841675e+02
559             	3.75836172e+02
560             	3.75827982e+02
561             	3.75816677e+02
562             	3.75805779e+02
563             	3.75794592e+02
564             	3.75782143e+02
565             	3.75771112e+02
566             	3.75767265e+02
567             	3.75767898e+02
568             	3.75763373e+02
569             	3.75757505e+02
570             	3.75761296e+02
571             	3.75766652e+02
572             	3.75766957e+02
573             	3.75764817e+02
574             	3.75767109e+02
575             	3.75775187e+02
576             	3.75781559e+02
577             	3.75781882e+02
578             	3.75782806e+02
579             	3.75783826e+02
580             	3.75790859e+02
581             	3.75799409e+02
582             	3.75799171e+02
583             	3.75807870e+02
584             	3.75818557e+02
585             	3.75842325e+02
586             	3.75870243e+02
587             	3.75889800e+02
588             	3.75902196e+02
589             	3.75900834e+02
590             	3.75898454e+02
591             	3.75896472e+02
592             	3.75888723e+02
593             	3.75875208e+02
594             	3.75860876e+02
595             	3.75851519e+02
596             	3.75845609e+02
597             	3.75840177e+02
598             	3.75838380e+02
599             	3.75830756e+02
600             	3.75830011e+02
601             	3.75835709e+02
602             	3.75843772e+02
603             	3.75856269e+02
604             	3.75868430e+02
605             	3.75879063e+02
606             	3.75883593e+02
607             	3.75881419e+02
608             	3.75874519e+02
609             	3.75867935e+02
610             	3.75861283e+02
611             	3.75853458e+02
612             	3.75840645e+02
613             	3.75825044e+02
614             	3.75811604e+02
615             	3.75806483e+02
616             	3.75805266e+02
617             	3.75803357e+02
618             	3.75799984e+02
619             	3.75792110e+02
620             	3.75785650e+02
621             	3.75779731e+02
