# Region        : cellZone pcb
# Cells         : 652
# Volume        : 1.30861927e+00
# Time          	volAverage(T)
1               	3.00009925e+02
2               	3.00029272e+02
3               	3.00055094e+02
4               	3.00086567e+02
5               	3.00117599e+02
6               	3.00150428e+02
7               	3.00186439e+02
8               	3.00225474e+02
9               	3.00268694e+02
10              	3.00317882e+02
11              	3.00369042e+02
12              	3.00421331e+02
13              	3.00478231e+02
14              	3.00538407e+02
15              	3.00601633e+02
16              	3.00661528e+02
17              	3.00719911e+02
18              	3.00782851e+02
19              	3.00846129e+02
20              	3.00912862e+02
21              	3.00983315e+02
22              	3.01056330e+02
23              	3.01130561e+02
24              	3.01202872e+02
25              	3.01272834e+02
26              	3.01344496e+02
27              	3.01416407e+02
28              	3.01490321e+02
29              	3.01564248e+02
30              	3.01639358e+02
31              	3.01716335e+02
32              	3.01793918e+02
33              	3.01872210e+02
34              	3.01951850e+02
35              	3.02034133e+02
36              	3.02116945e+02
37              	3.02201010e+02
38              	3.02286978e+02
39              	3.02377678e+02
40              	3.02465341e+02
41              	3.02557635e+02
42              	3.02652601e+02
43              	3.02746736e+02
44              	3.02841806e+02
45              	3.02938456e+02
46              	3.03034101e+02
47              	3.03129118e+02
48              	3.03221965e+02
49              	3.03312063e+02
50              	3.03400615e+02
51              	3.03486378e+02
52              	3.03566773e+02
53              	3.03646548e+02
54              	3.03722285e+02
55              	3.03799472e+02
56              	3.03873867e+02
57              	3.03947312e+02
58              	3.04018985e+02
59              	3.04091276e+02
60              	3.04165198e+02
61              	3.04243229e+02
62              	3.04325977e+02
63              	3.04405268e+02
64              	3.04482677e+02
65              	3.04557903e+02
66              	3.04633742e+02
67              	3.04709708e+02
68              	3.04783590e+02
69              	3.04856641e+02
70              	3.04928709e+02
71              	3.04999998e+02
72              	3.05070656e+02
73              	3.05143001e+02
74              	3.05214901e+02
75              	3.05281102e+02
76              	3.05340411e+02
77              	3.05398546e+02
78              	3.05459301e+02
79              	3.05519059e+02
80              	3.05578361e+02
81              	3.05638469e+02
82              	3.05699000e+02
83              	3.05759826e+02
84              	3.05819952e+02
85              	3.05879722e+02
86              	3.05940025e+02
87              	3.06001373e+02
88              	3.06062473e+02
89              	3.06123727e+02
90              	3.06185477e+02
91              	3.06247204e+02
92              	3.06309296e+02
93              	3.06371321e+02
94              	3.06436040e+02
95              	3.06502174e+02
96              	3.06568254e+02
97              	3.06634007e+02
98              	3.06699295e+02
99              	3.06764815e+02
100             	3.06830475e+02
101             	3.06895997e+02
102             	3.06960800e+02
103             	3.07025520e+02
104             	3.07088689e+02
105             	3.07151097e+02
106             	3.07212184e+02
107             	3.07272773e+02
108             	3.07332476e+02
109             	3.07390132e+02
110             	3.07446159e+02
111             	3.07502182e+02
112             	3.07559365e+02
113             	3.07612732e+02
114             	3.07664744e+02
115             	3.07714404e+02
116             	3.07765526e+02
117             	3.07814649e+02
118             	3.07864383e+02
119             	3.07914942e+02
120             	3.07966218e+02
121             	3.08017791e+02
122             	3.08070100e+02
123             	3.08122703e+02
124             	3.08175654e+02
125             	3.08227990e+02
126             	3.08281461e+02
127             	3.08332850e+02
128             	3.08382668e+02
129             	3.08431502e+02
130             	3.08478714e+02
131             	3.08524941e+02
132             	3.08568968e+02
133             	3.08612027e+02
134             	3.08654902e+02
135             	3.08697731e+02
136             	3.08741014e+02
137             	3.08784312e+02
138             	3.08825151e+02
139             	3.08864079e+02
140             	3.08903000e+02
141             	3.08941303e+02
142             	3.08978923e+02
143             	3.09015301e+02
144             	3.09050570e+02
145             	3.09085370e+02
146             	3.09118887e+02
147             	3.09151909e+02
148             	3.09184087e+02
149             	3.09215482e+02
150             	3.09246708e+02
151             	3.09277372e+02
152             	3.09308124e+02
153             	3.09338788e+02
154             	3.09369742e+02
155             	3.09401011e+02
156             	3.09432951e+02
157             	3.09465202e+02
158             	3.09497784e+02
159             	3.09530574e+02
160             	3.09563094e+02
161             	3.09595870e+02
162             	3.09628540e+02
163             	3.09661382e+02
164             	3.09695096e+02
165             	3.09729445e+02
166             	3.09763793e+02
167             	3.09797429e+02
168             	3.09830505e+02
169             	3.09862733e+02
170             	3.09894470e+02
171             	3.09925596e+02
172             	3.09956383e+02
173             	3.09987182e+02
174             	3.10017551e+02
175             	3.10047838e+02
176             	3.10077398e+02
177             	3.10105837e+02
178             	3.10133272e+02
179             	3.10160029e+02
180             	3.10186146e+02
181             	3.10211475e+02
182             	3.10236231e+02
183             	3.10260381e+02
184             	3.10284303e+02
185             	3.10306958e+02
186             	3.10328754e+02
187             	3.10350717e+02
188             	3.10372882e+02
189             	3.10395469e+02
190             	3.10416639e+02
191             	3.10437071e+02
192             	3.10457322e+02
193             	3.10477555e+02
194             	3.10497801e+02
195             	3.10517886e+02
196             	3.10537978e+02
197             	3.10557873e+02
198             	3.10577629e+02
199             	3.10597322e+02
200             	3.10616970e+02
201             	3.10636755e+02
202             	3.10656630e+02
203             	3.10676863e+02
204             	3.10697218e+02
205             	3.10717819e+02
206             	3.10738594e+02
207             	3.10759943e+02
208             	3.10781862e+02
209             	3.10803956e+02
210             	3.10826084e+02
211             	3.10848009e+02
212             	3.10870232e+02
213             	3.10892354e+02
214             	3.10914066e+02
215             	3.10935101e+02
216             	3.10955709e+02
217             	3.10975785e+02
218             	3.10995004e+02
219             	3.11013900e+02
220             	3.11032193e+02
221             	3.11049833e+02
222             	3.11067117e+02
223             	3.11083851e+02
224             	3.11099822e+02
225             	3.11115130e+02
226             	3.11130413e+02
227             	3.11145581e+02
228             	3.11160030e+02
229             	3.11174049e+02
230             	3.11188169e+02
231             	3.11202049e+02
232             	3.11215680e+02
233             	3.11229062e+02
234             	3.11242229e+02
235             	3.11255515e+02
236             	3.11269013e+02
237             	3.11282603e+02
238             	3.11296260e+02
239             	3.11309997e+02
240             	3.11323650e+02
241             	3.11337136e+02
242             	3.11350682e+02
243             	3.11363986e+02
244             	3.11377134e+02
245             	3.11390341e+02
246             	3.11403796e+02
247             	3.11417576e+02
248             	3.11431462e+02
249             	3.11445514e+02
250             	3.11459526e+02
251             	3.11473483e+02
252             	3.11487312e+02
253             	3.11501026e+02
254             	3.11514990e+02
255             	3.11528937e+02
256             	3.11542777e+02
257             	3.11556272e+02
258             	3.11569498e+02
259             	3.11582276e+02
260             	3.11594273e+02
261             	3.11605516e+02
262             	3.11616055e+02
263             	3.11626199e+02
264             	3.11636024e+02
265             	3.11645581e+02
266             	3.11654896e+02
267             	3.11664172e+02
268             	3.11673380e+02
269             	3.11681921e+02
270             	3.11690436e+02
271             	3.11698474e+02
272             	3.11706355e+02
273             	3.11713903e+02
274             	3.11721448e+02
275             	3.11729147e+02
276             	3.11736819e+02
277             	3.11744680e+02
278             	3.11752563e+02
279             	3.11760508e+02
280             	3.11768348e+02
281             	3.11776235e+02
282             	3.11784023e+02
283             	3.11791693e+02
284             	3.11799399e+02
285             	3.11807426e+02
286             	3.11815934e+02
287             	3.11824681e+02
288             	3.11833768e+02
289             	3.11843218e+02
290             	3.11852812e+02
291             	3.11862445e+02
292             	3.11871843e+02
293             	3.11881179e+02
294             	3.11890547e+02
295             	3.11899973e+02
296             	3.11909537e+02
297             	3.11918951e+02
298             	3.11928204e+02
299             	3.11937091e+02
300             	3.11945464e+02
301             	3.11953549e+02
302             	3.11961201e+02
303             	3.11968471e+02
304             	3.11975616e+02
305             	3.11982468e+02
306             	3.11988997e+02
307             	3.11995296e+02
308             	3.12001344e+02
309             	3.12007178e+02
310             	3.12012820e+02
311             	3.12017878e+02
312             	3.12022419e+02
313             	3.12026614e+02
314             	3.12030941e+02
315             	3.12035326e+02
316             	3.12039727e+02
317             	3.12043919e+02
318             	3.12048198e+02
319             	3.12052466e+02
320             	3.12056446e+02
321             	3.12060406e+02
322             	3.12064394e+02
323             	3.12068454e+02
324             	3.12072465e+02
325             	3.12076493e+02
326             	3.12080575e+02
327             	3.12084734e+02
328             	3.12089235e+02
329             	3.12094067e+02
330             	3.12099102e+02
331             	3.12104271e+02
332             	3.12109449e+02
333             	3.12114599e+02
334             	3.12119730e+02
335             	3.12124939e+02
336             	3.12130345e+02
337             	3.12135994e+02
338             	3.12141714e+02
339             	3.12147417e+02
340             	3.12152951e+02
341             	3.12158085e+02
342             	3.12162802e+02
343             	3.12167244e+02
344             	3.12171669e+02
345             	3.12175988e+02
346             	3.12180176e+02
347             	3.12184218e+02
348             	3.12188098e+02
349             	3.12191786e+02
350             	3.12194994e+02
351             	3.12197842e+02
352             	3.12200744e+02
353             	3.12203548e+02
354             	3.12206039e+02
355             	3.12208460e+02
356             	3.12211027e+02
357             	3.12213623e+02
358             	3.12216352e+02
359             	3.12219244e+02
360             	3.12222329e+02
361             	3.12225412e+02
362             	3.12228564e+02
363             	3.12231800e+02
364             	3.12235045e+02
365             	3.12238452e+02
366             	3.12242014e+02
367             	3.12245790e+02
368             	3.12249825e+02
369             	3.12254066e+02
370             	3.12258326e+02
371             	3.12262702e+02
372             	3.12267314e+02
373             	3.12271968e+02
374             	3.12276581e+02
375             	3.12280949e+02
376             	3.12284986e+02
377             	3.12288829e+02
378             	3.12292572e+02
379             	3.12296319e+02
380             	3.12300011e+02
381             	3.12303509e+02
382             	3.12306785e+02
383             	3.12309718e+02
384             	3.12312487e+02
385             	3.12315020e+02
386             	3.12317335e+02
387             	3.12319453e+02
388             	3.12321420e+02
389             	3.12323222e+02
390             	3.12324878e+02
391             	3.12326442e+02
392             	3.12327972e+02
393             	3.12329291e+02
394             	3.12330484e+02
395             	3.12331650e+02
396             	3.12332701e+02
397             	3.12333687e+02
398             	3.12334768e+02
399             	3.12335650e+02
400             	3.12336338e+02
401             	3.12337070e+02
402             	3.12338072e+02
403             	3.12339155e+02
404             	3.12340367e+02
405             	3.12341676e+02
406             	3.12343004e+02
407             	3.12344442e+02
408             	3.12345965e+02
409             	3.12347604e+02
410             	3.12349506e+02
411             	3.12351641e+02
412             	3.12353986e+02
413             	3.12356482e+02
414             	3.12359014e+02
415             	3.12361854e+02
416             	3.12364903e+02
417             	3.12367912e+02
418             	3.12370671e+02
419             	3.12373385e+02
420             	3.12376229e+02
421             	3.12379132e+02
422             	3.12381915e+02
423             	3.12384503e+02
424             	3.12387005e+02
425             	3.12389345e+02
426             	3.12391531e+02
427             	3.12393590e+02
428             	3.12395527e+02
429             	3.12397274e+02
430             	3.12398883e+02
431             	3.12400301e+02
432             	3.12401647e+02
433             	3.12402868e+02
434             	3.12403884e+02
435             	3.12404713e+02
436             	3.12405446e+02
437             	3.12406145e+02
438             	3.12406808e+02
439             	3.12407472e+02
440             	3.12407985e+02
441             	3.12408524e+02
442             	3.12409056e+02
443             	3.12409724e+02
444             	3.12410620e+02
445             	3.12411668e+02
446             	3.12412757e+02
447             	3.12413826e+02
448             	3.12414964e+02
449             	3.12416259e+02
450             	3.12417684e+02
451             	3.12419166e+02
452             	3.12420748e+02
453             	3.12422435e+02
454             	3.12424279e+02
455             	3.12426199e+02
456             	3.12428221e+02
457             	3.12430225e+02
458             	3.12432355e+02
459             	3.12434459e+02
460             	3.12436405e+02
461             	3.12438300e+02
462             	3.12440144e+02
463             	3.12442006e+02
464             	3.12443806e+02
465             	3.12445485e+02
466             	3.12447014e+02
467             	3.12448383e+02
468             	3.12449606e+02
469             	3.12450729e+02
470             	3.12451684e+02
471             	3.12452395e+02
472             	3.12452903e+02
473             	3.12453319e+02
474             	3.12453767e+02
475             	3.12454219e+02
476             	3.12454718e+02
477             	3.12455116e+02
478             	3.12455400e+02
479             	3.12455528e+02
480             	3.12455496e+02
481             	3.12455417e+02
482             	3.12455419e+02
483             	3.12455558e+02
484             	3.12455792e+02
485             	3.12456126e+02
486             	3.12456486e+02
487             	3.12456871e+02
488             	3.12457286e+02
489             	3.12457732e+02
490             	3.12458205e+02
491             	3.12458749e+02
492             	3.12459581e+02
493             	3.12460635e+02
494             	3.12461812e+02
495             	3.12462998e+02
496             	3.12464186e+02
497             	3.12465381e+02
498             	3.12466625e+02
499             	3.12467980e+02
500             	3.12469615e+02
501             	3.12471400e+02
502             	3.12473139e+02
503             	3.12474767e+02
504             	3.12476328e+02
505             	3.12477876e+02
506             	3.12479318e+02
507             	3.12480648e+02
508             	3.12481903e+02
509             	3.12483062e+02
510             	3.12484164e+02
511             	3.12485192e+02
512             	3.12486110e+02
513             	3.12486855e+02
514             	3.12487467e+02
515             	3.12487940e+02
516             	3.12488300e+02
517             	3.12488526e+02
518             	3.12488654e+02
519             	3.12488657e+02
520             	3.12488516e+02
521             	3.12488260e+02
522             	3.12488032e+02
523             	3.12487885e+02
524             	3.12487841e+02
525             	3.12487826e+02
526             	3.12487758e+02
527             	3.12487669e+02
528             	3.12487566e+02
529             	3.12487555e+02
530             	3.12487636e+02
531             	3.12487801e+02
532             	3.12488141e+02
533             	3.12488603e+02
534             	3.12489167e+02
535             	3.12489760e+02
536             	3.12490509e+02
537             	3.12491385e+02
538             	3.12492412e+02
539             	3.12493518e+02
540             	3.12494698e+02
541             	3.12495975e+02
542             	3.12497372e+02
543             	3.12498754e+02
544             	3.12500158e+02
545             	3.12501710e+02
546             	3.12503282e+02
547             	3.12504863e+02
548             	3.12506342e+02
549             	3.12507629e+02
550             	3.12508759e+02
551             	3.12509705e+02
552             	3.12510556e+02
553             	3.12511295e+02
554             	3.12511922e+02
555             	3.12512314e+02
556             	3.12512532e+02
557             	3.12512703e+02
558             	3.12512832e+02
559             	3.12512757e+02
560             	3.12512562e+02
561             	3.12512323e+02
562             	3.12512098e+02
563             	3.12511907e+02
564             	3.12511646e+02
565             	3.12511270e+02
566             	3.12510765e+02
567             	3.12510333e+02
568             	3.12509961e+02
569             	3.12509644e+02
570             	3.12509403e+02
571             	3.12509275e+02
572             	3.12509315e+02
573             	3.12509402e+02
574             	3.12509568e+02
575             	3.12509830e+02
576             	3.12510168e+02
577             	3.12510625e+02
578             	3.12511283e+02
579             	3.12512078e+02
580             	3.12512977e+02
581             	3.12514027e+02
582             	3.12515136e+02
583             	3.12516378e+02
584             	3.12517748e+02
585             	3.12519059e+02
586             	3.12520246e+02
587             	3.12521304e+02
588             	3.12522353e+02
589             	3.12523513e+02
590             	3.12524716e+02
591             	3.12525828e+02
592             	3.12526901e+02
593             	3.12527867e+02
594             	3.12528709e+02
595             	3.12529355e+02
596             	3.12529857e+02
597             	3.12530185e+02
598             	3.12530403e+02
599             	3.12530466e+02
600             	3.12530434e+02
601             	3.12530319e+02
602             	3.12530161e+02
603             	3.12529931e+02
604             	3.12529633e+02
605             	3.12529267e+02
606             	3.12528856e+02
607             	3.12528282e+02
608             	3.12527666e+02
609             	3.12527100e+02
610             	3.12526699e+02
611             	3.12526405e+02
612             	3.12526100e+02
613             	3.12525797e+02
614             	3.12525546e+02
615             	3.12525381e+02
616             	3.12525294e+02
617             	3.12525251e+02
618             	3.12525283e+02
619             	3.12525420e+02
620             	3.12525764e+02
621             	3.12526298e+02
