# Region        : cellZone pcb
# Cells         : 458
# Volume        : 9.57666446e-01
# Time          	volAverage(T)
1               	3.00018564e+02
2               	3.00054444e+02
3               	3.00104591e+02
4               	3.00167474e+02
5               	3.00240168e+02
6               	3.00322377e+02
7               	3.00412997e+02
8               	3.00511571e+02
9               	3.00617703e+02
10              	3.00730912e+02
11              	3.00847952e+02
12              	3.00969201e+02
13              	3.01096400e+02
14              	3.01228175e+02
15              	3.01363769e+02
16              	3.01502573e+02
17              	3.01644170e+02
18              	3.01787313e+02
19              	3.01934338e+02
20              	3.02083280e+02
21              	3.02234574e+02
22              	3.02388357e+02
23              	3.02545628e+02
24              	3.02702896e+02
25              	3.02865467e+02
26              	3.03024730e+02
27              	3.03185633e+02
28              	3.03344255e+02
29              	3.03503072e+02
30              	3.03662635e+02
31              	3.03822154e+02
32              	3.03980245e+02
33              	3.04138051e+02
34              	3.04296460e+02
35              	3.04456951e+02
36              	3.04615728e+02
37              	3.04774317e+02
38              	3.04931823e+02
39              	3.05088472e+02
40              	3.05244923e+02
41              	3.05399090e+02
42              	3.05553867e+02
43              	3.05708398e+02
44              	3.05862914e+02
45              	3.06017781e+02
46              	3.06171047e+02
47              	3.06322419e+02
48              	3.06473265e+02
49              	3.06623004e+02
50              	3.06772128e+02
51              	3.06918664e+02
52              	3.07062527e+02
53              	3.07202963e+02
54              	3.07341300e+02
55              	3.07478746e+02
56              	3.07615392e+02
57              	3.07750895e+02
58              	3.07885178e+02
59              	3.08017150e+02
60              	3.08149458e+02
61              	3.08279427e+02
62              	3.08409465e+02
63              	3.08534769e+02
64              	3.08662416e+02
65              	3.08789472e+02
66              	3.08917058e+02
67              	3.09045217e+02
68              	3.09166675e+02
69              	3.09285878e+02
70              	3.09406042e+02
71              	3.09525351e+02
72              	3.09640963e+02
73              	3.09756043e+02
74              	3.09870312e+02
75              	3.09981408e+02
76              	3.10090038e+02
77              	3.10198570e+02
78              	3.10305561e+02
79              	3.10412214e+02
80              	3.10517711e+02
81              	3.10622108e+02
82              	3.10726601e+02
83              	3.10831033e+02
84              	3.10934007e+02
85              	3.11034817e+02
86              	3.11133389e+02
87              	3.11230125e+02
88              	3.11322864e+02
89              	3.11416047e+02
90              	3.11507099e+02
91              	3.11596282e+02
92              	3.11683903e+02
93              	3.11770360e+02
94              	3.11855557e+02
95              	3.11939022e+02
96              	3.12021304e+02
97              	3.12102040e+02
98              	3.12182124e+02
99              	3.12260724e+02
100             	3.12337854e+02
101             	3.12414537e+02
102             	3.12490475e+02
103             	3.12566151e+02
104             	3.12640972e+02
105             	3.12714922e+02
106             	3.12788417e+02
107             	3.12861594e+02
108             	3.12934010e+02
109             	3.13005160e+02
110             	3.13074477e+02
111             	3.13142269e+02
112             	3.13209723e+02
113             	3.13276173e+02
114             	3.13341618e+02
115             	3.13405121e+02
116             	3.13467604e+02
117             	3.13529549e+02
118             	3.13590883e+02
119             	3.13651138e+02
120             	3.13710867e+02
121             	3.13769992e+02
122             	3.13828312e+02
123             	3.13885562e+02
124             	3.13941885e+02
125             	3.13997282e+02
126             	3.14052405e+02
127             	3.14106699e+02
128             	3.14159711e+02
129             	3.14211498e+02
130             	3.14262350e+02
131             	3.14314956e+02
132             	3.14364847e+02
133             	3.14413244e+02
134             	3.14461372e+02
135             	3.14509830e+02
136             	3.14557853e+02
137             	3.14605066e+02
138             	3.14652301e+02
139             	3.14698938e+02
140             	3.14744774e+02
141             	3.14790193e+02
142             	3.14834766e+02
143             	3.14878273e+02
144             	3.14920586e+02
145             	3.14961484e+02
146             	3.15001814e+02
147             	3.15041902e+02
148             	3.15081301e+02
149             	3.15120235e+02
150             	3.15159260e+02
151             	3.15198428e+02
152             	3.15237295e+02
153             	3.15275881e+02
154             	3.15314206e+02
155             	3.15351683e+02
156             	3.15388433e+02
157             	3.15424804e+02
158             	3.15460081e+02
159             	3.15494153e+02
160             	3.15527390e+02
161             	3.15560489e+02
162             	3.15593831e+02
163             	3.15626363e+02
164             	3.15658398e+02
165             	3.15690673e+02
166             	3.15722766e+02
167             	3.15754966e+02
168             	3.15786509e+02
169             	3.15817188e+02
170             	3.15847501e+02
171             	3.15877652e+02
172             	3.15906919e+02
173             	3.15935092e+02
174             	3.15962817e+02
175             	3.15990834e+02
176             	3.16018414e+02
177             	3.16045401e+02
178             	3.16072134e+02
179             	3.16098862e+02
180             	3.16125844e+02
181             	3.16152163e+02
182             	3.16177956e+02
183             	3.16203173e+02
184             	3.16228437e+02
185             	3.16252933e+02
186             	3.16276781e+02
187             	3.16300337e+02
188             	3.16325621e+02
189             	3.16349664e+02
190             	3.16372081e+02
191             	3.16394338e+02
192             	3.16417163e+02
193             	3.16439468e+02
194             	3.16461602e+02
195             	3.16482889e+02
196             	3.16504702e+02
197             	3.16525929e+02
198             	3.16547318e+02
199             	3.16567841e+02
200             	3.16587817e+02
201             	3.16609148e+02
202             	3.16629210e+02
203             	3.16647324e+02
204             	3.16665208e+02
205             	3.16683951e+02
206             	3.16702174e+02
207             	3.16720028e+02
208             	3.16737840e+02
209             	3.16756400e+02
210             	3.16774712e+02
211             	3.16792517e+02
212             	3.16809600e+02
213             	3.16826952e+02
214             	3.16845070e+02
215             	3.16860458e+02
216             	3.16875111e+02
217             	3.16890205e+02
218             	3.16906235e+02
219             	3.16921773e+02
220             	3.16937002e+02
221             	3.16951845e+02
222             	3.16967260e+02
223             	3.16982642e+02
224             	3.16997332e+02
225             	3.17011753e+02
226             	3.17026707e+02
227             	3.17042135e+02
228             	3.17054819e+02
229             	3.17066916e+02
230             	3.17079429e+02
231             	3.17092363e+02
232             	3.17105735e+02
233             	3.17118522e+02
234             	3.17131036e+02
235             	3.17144433e+02
236             	3.17157836e+02
237             	3.17170893e+02
238             	3.17183314e+02
239             	3.17196800e+02
240             	3.17209370e+02
241             	3.17220518e+02
242             	3.17231487e+02
243             	3.17242745e+02
244             	3.17254396e+02
245             	3.17266046e+02
246             	3.17277453e+02
247             	3.17288323e+02
248             	3.17299311e+02
249             	3.17309979e+02
250             	3.17319948e+02
251             	3.17329461e+02
252             	3.17339863e+02
253             	3.17349445e+02
254             	3.17358685e+02
255             	3.17367389e+02
256             	3.17376534e+02
257             	3.17386022e+02
258             	3.17395304e+02
259             	3.17404410e+02
260             	3.17413181e+02
261             	3.17422559e+02
262             	3.17431593e+02
263             	3.17440475e+02
264             	3.17448963e+02
265             	3.17458066e+02
266             	3.17467018e+02
267             	3.17475014e+02
268             	3.17482915e+02
269             	3.17490923e+02
270             	3.17499400e+02
271             	3.17507645e+02
272             	3.17515451e+02
273             	3.17523835e+02
274             	3.17532002e+02
275             	3.17539820e+02
276             	3.17547377e+02
277             	3.17554468e+02
278             	3.17561825e+02
279             	3.17568336e+02
280             	3.17574745e+02
281             	3.17581056e+02
282             	3.17587999e+02
283             	3.17595010e+02
284             	3.17601890e+02
285             	3.17608781e+02
286             	3.17615975e+02
287             	3.17623246e+02
288             	3.17630318e+02
289             	3.17636720e+02
290             	3.17642679e+02
291             	3.17648922e+02
292             	3.17654704e+02
293             	3.17660474e+02
294             	3.17666605e+02
295             	3.17672699e+02
296             	3.17679154e+02
297             	3.17685615e+02
298             	3.17691855e+02
299             	3.17697539e+02
300             	3.17703398e+02
301             	3.17708834e+02
302             	3.17714450e+02
303             	3.17720605e+02
304             	3.17726030e+02
305             	3.17731131e+02
306             	3.17736042e+02
307             	3.17740885e+02
308             	3.17746326e+02
309             	3.17752025e+02
310             	3.17757169e+02
311             	3.17763173e+02
312             	3.17768901e+02
313             	3.17774671e+02
314             	3.17779369e+02
315             	3.17783932e+02
316             	3.17787973e+02
317             	3.17792604e+02
318             	3.17796290e+02
319             	3.17799979e+02
320             	3.17803982e+02
321             	3.17807977e+02
322             	3.17812300e+02
323             	3.17816903e+02
324             	3.17821225e+02
325             	3.17825602e+02
326             	3.17829982e+02
327             	3.17834055e+02
328             	3.17838116e+02
329             	3.17842594e+02
330             	3.17846333e+02
331             	3.17850319e+02
332             	3.17854067e+02
333             	3.17857497e+02
334             	3.17861419e+02
335             	3.17865302e+02
336             	3.17869172e+02
337             	3.17873534e+02
338             	3.17877951e+02
339             	3.17881965e+02
340             	3.17885512e+02
341             	3.17888777e+02
342             	3.17891986e+02
343             	3.17895174e+02
344             	3.17898044e+02
345             	3.17900843e+02
346             	3.17903440e+02
347             	3.17906502e+02
348             	3.17909937e+02
349             	3.17913509e+02
350             	3.17917480e+02
351             	3.17921016e+02
352             	3.17924561e+02
353             	3.17928080e+02
354             	3.17931279e+02
355             	3.17934289e+02
356             	3.17937095e+02
357             	3.17939662e+02
358             	3.17941981e+02
359             	3.17944276e+02
360             	3.17947090e+02
361             	3.17949629e+02
362             	3.17952204e+02
363             	3.17955022e+02
364             	3.17957177e+02
365             	3.17959801e+02
366             	3.17962642e+02
367             	3.17965339e+02
368             	3.17968080e+02
369             	3.17971033e+02
370             	3.17973442e+02
371             	3.17976075e+02
372             	3.17978653e+02
373             	3.17981135e+02
374             	3.17983500e+02
375             	3.17985721e+02
376             	3.17987782e+02
377             	3.17989572e+02
378             	3.17991526e+02
379             	3.17993447e+02
380             	3.17995456e+02
381             	3.17997532e+02
382             	3.17999797e+02
383             	3.18001979e+02
384             	3.18004495e+02
385             	3.18006348e+02
386             	3.18008746e+02
387             	3.18010939e+02
388             	3.18013437e+02
389             	3.18015574e+02
390             	3.18017965e+02
391             	3.18020043e+02
392             	3.18022206e+02
393             	3.18024073e+02
394             	3.18026036e+02
395             	3.18027766e+02
396             	3.18029363e+02
397             	3.18030922e+02
398             	3.18032773e+02
399             	3.18034509e+02
400             	3.18036537e+02
401             	3.18038301e+02
402             	3.18040427e+02
403             	3.18041716e+02
404             	3.18043602e+02
405             	3.18045229e+02
406             	3.18046983e+02
407             	3.18048465e+02
408             	3.18050291e+02
409             	3.18051929e+02
410             	3.18053241e+02
411             	3.18054544e+02
412             	3.18056134e+02
413             	3.18057595e+02
414             	3.18058919e+02
415             	3.18060277e+02
416             	3.18061920e+02
417             	3.18063426e+02
418             	3.18065178e+02
419             	3.18066856e+02
420             	3.18067995e+02
421             	3.18069231e+02
422             	3.18070632e+02
423             	3.18071883e+02
424             	3.18073263e+02
425             	3.18074482e+02
426             	3.18076089e+02
427             	3.18076862e+02
428             	3.18078083e+02
429             	3.18079257e+02
430             	3.18080690e+02
431             	3.18082089e+02
432             	3.18083645e+02
433             	3.18084417e+02
434             	3.18085656e+02
435             	3.18086871e+02
436             	3.18088234e+02
437             	3.18089524e+02
438             	3.18090966e+02
439             	3.18091613e+02
440             	3.18092622e+02
441             	3.18093590e+02
442             	3.18094688e+02
443             	3.18095790e+02
444             	3.18096420e+02
445             	3.18097335e+02
446             	3.18098341e+02
447             	3.18099389e+02
448             	3.18100660e+02
449             	3.18101299e+02
450             	3.18102284e+02
451             	3.18103323e+02
452             	3.18104375e+02
453             	3.18105563e+02
454             	3.18106205e+02
455             	3.18107106e+02
456             	3.18108055e+02
457             	3.18109044e+02
458             	3.18110207e+02
459             	3.18110715e+02
460             	3.18111492e+02
461             	3.18112366e+02
462             	3.18113351e+02
463             	3.18113925e+02
464             	3.18114769e+02
465             	3.18115687e+02
466             	3.18116643e+02
467             	3.18117715e+02
468             	3.18118198e+02
469             	3.18118943e+02
470             	3.18119715e+02
471             	3.18120564e+02
472             	3.18121471e+02
473             	3.18121843e+02
474             	3.18122479e+02
475             	3.18123175e+02
476             	3.18123967e+02
477             	3.18124937e+02
478             	3.18125267e+02
479             	3.18125893e+02
480             	3.18126617e+02
481             	3.18127435e+02
482             	3.18128365e+02
483             	3.18128680e+02
484             	3.18129288e+02
485             	3.18129952e+02
486             	3.18130687e+02
487             	3.18131567e+02
488             	3.18131772e+02
489             	3.18132280e+02
490             	3.18132863e+02
491             	3.18133527e+02
492             	3.18134305e+02
493             	3.18134501e+02
494             	3.18134985e+02
495             	3.18135545e+02
496             	3.18136196e+02
497             	3.18136435e+02
498             	3.18136936e+02
499             	3.18137522e+02
500             	3.18138146e+02
501             	3.18138968e+02
502             	3.18139109e+02
503             	3.18139571e+02
504             	3.18140084e+02
505             	3.18140692e+02
506             	3.18141392e+02
507             	3.18141515e+02
508             	3.18141915e+02
509             	3.18142403e+02
510             	3.18142965e+02
511             	3.18143691e+02
512             	3.18143754e+02
513             	3.18144147e+02
514             	3.18144613e+02
515             	3.18145165e+02
516             	3.18145820e+02
517             	3.18145878e+02
518             	3.18146231e+02
519             	3.18146672e+02
520             	3.18147188e+02
521             	3.18147863e+02
522             	3.18147865e+02
523             	3.18148173e+02
524             	3.18148565e+02
525             	3.18149056e+02
526             	3.18149130e+02
527             	3.18149475e+02
528             	3.18149890e+02
529             	3.18150398e+02
530             	3.18150485e+02
531             	3.18150827e+02
532             	3.18151226e+02
533             	3.18151681e+02
534             	3.18152266e+02
535             	3.18152235e+02
536             	3.18152501e+02
537             	3.18152829e+02
538             	3.18153247e+02
539             	3.18153823e+02
540             	3.18153750e+02
541             	3.18153993e+02
542             	3.18154330e+02
543             	3.18154749e+02
544             	3.18154753e+02
545             	3.18155020e+02
546             	3.18155360e+02
547             	3.18155774e+02
548             	3.18155780e+02
549             	3.18156037e+02
550             	3.18156359e+02
551             	3.18156745e+02
552             	3.18157300e+02
553             	3.18157185e+02
554             	3.18157382e+02
555             	3.18157652e+02
556             	3.18158017e+02
557             	3.18157963e+02
558             	3.18158191e+02
559             	3.18158488e+02
560             	3.18158882e+02
561             	3.18158845e+02
562             	3.18159083e+02
563             	3.18159374e+02
564             	3.18159749e+02
565             	3.18160273e+02
566             	3.18160143e+02
567             	3.18160310e+02
568             	3.18160556e+02
569             	3.18160875e+02
570             	3.18161375e+02
571             	3.18161192e+02
572             	3.18161333e+02
573             	3.18161556e+02
574             	3.18161880e+02
575             	3.18161781e+02
576             	3.18161965e+02
577             	3.18162220e+02
578             	3.18162554e+02
579             	3.18162477e+02
580             	3.18162661e+02
581             	3.18162914e+02
582             	3.18163240e+02
583             	3.18163720e+02
584             	3.18163538e+02
585             	3.18163663e+02
586             	3.18163865e+02
587             	3.18164154e+02
588             	3.18164025e+02
589             	3.18164166e+02
590             	3.18164383e+02
591             	3.18164680e+02
592             	3.18164566e+02
593             	3.18164717e+02
594             	3.18164943e+02
595             	3.18165248e+02
596             	3.18165142e+02
597             	3.18165293e+02
598             	3.18165517e+02
599             	3.18165817e+02
600             	3.18165705e+02
601             	3.18165847e+02
602             	3.18166055e+02
603             	3.18166333e+02
604             	3.18166772e+02
605             	3.18166552e+02
606             	3.18166640e+02
607             	3.18166807e+02
608             	3.18167064e+02
609             	3.18166903e+02
610             	3.18167016e+02
611             	3.18167203e+02
612             	3.18167477e+02
613             	3.18167329e+02
614             	3.18167453e+02
615             	3.18167646e+02
616             	3.18167921e+02
617             	3.18167779e+02
618             	3.18167898e+02
619             	3.18168080e+02
620             	3.18168340e+02
621             	3.18168184e+02
