# Region        : cellZone component_0
# Cells         : 112
# Volume        : 1.95178019e-01
# Time          	volAverage(T)
1               	3.01802722e+02
2               	3.03580044e+02
3               	3.05002520e+02
4               	3.06217565e+02
5               	3.07434901e+02
6               	3.08678124e+02
7               	3.09926585e+02
8               	3.11144730e+02
9               	3.12310658e+02
10              	3.13481544e+02
11              	3.14423677e+02
12              	3.15202624e+02
13              	3.15932210e+02
14              	3.16746725e+02
15              	3.17622613e+02
16              	3.18537684e+02
17              	3.19484797e+02
18              	3.20406698e+02
19              	3.21295776e+02
20              	3.22180807e+02
21              	3.22890333e+02
22              	3.23465120e+02
23              	3.23957589e+02
24              	3.24520266e+02
25              	3.25096136e+02
26              	3.25684950e+02
27              	3.26299961e+02
28              	3.26861334e+02
29              	3.27380996e+02
30              	3.27918745e+02
31              	3.28423629e+02
32              	3.28871783e+02
33              	3.29303674e+02
34              	3.29718215e+02
35              	3.30147448e+02
36              	3.30560156e+02
37              	3.31007294e+02
38              	3.31416569e+02
39              	3.31903115e+02
40              	3.32397461e+02
41              	3.32816042e+02
42              	3.33167500e+02
43              	3.33503598e+02
44              	3.33864693e+02
45              	3.34241771e+02
46              	3.34612899e+02
47              	3.34952810e+02
48              	3.35256499e+02
49              	3.35561321e+02
50              	3.35874392e+02
51              	3.36190034e+02
52              	3.36512242e+02
53              	3.36836456e+02
54              	3.37174297e+02
55              	3.37574806e+02
56              	3.37988715e+02
57              	3.38382410e+02
58              	3.38794144e+02
59              	3.39161529e+02
60              	3.39574944e+02
61              	3.40000562e+02
62              	3.40392332e+02
63              	3.40745242e+02
64              	3.41050847e+02
65              	3.41344646e+02
66              	3.41656842e+02
67              	3.41914736e+02
68              	3.41983431e+02
69              	3.41850860e+02
70              	3.41754763e+02
71              	3.41762487e+02
72              	3.41865288e+02
73              	3.41969081e+02
74              	3.42031085e+02
75              	3.42071504e+02
76              	3.42118263e+02
77              	3.42178443e+02
78              	3.42241093e+02
79              	3.42300364e+02
80              	3.42355399e+02
81              	3.42417802e+02
82              	3.42481764e+02
83              	3.42545451e+02
84              	3.42605524e+02
85              	3.42662029e+02
86              	3.42767827e+02
87              	3.42868856e+02
88              	3.42965175e+02
89              	3.43038282e+02
90              	3.43120416e+02
91              	3.43175702e+02
92              	3.43295209e+02
93              	3.43516731e+02
94              	3.43791009e+02
95              	3.44068982e+02
96              	3.44343667e+02
97              	3.44621700e+02
98              	3.44905316e+02
99              	3.45185072e+02
100             	3.45449448e+02
101             	3.45728941e+02
102             	3.46059788e+02
103             	3.46339400e+02
104             	3.46530975e+02
105             	3.46699054e+02
106             	3.46906836e+02
107             	3.47127583e+02
108             	3.47371288e+02
109             	3.47603153e+02
110             	3.47832155e+02
111             	3.48054739e+02
112             	3.48266563e+02
113             	3.48471989e+02
114             	3.48680730e+02
115             	3.48883123e+02
116             	3.49068508e+02
117             	3.49252205e+02
118             	3.49440069e+02
119             	3.49630150e+02
120             	3.49810391e+02
121             	3.49980955e+02
122             	3.50115103e+02
123             	3.50260159e+02
124             	3.50406674e+02
125             	3.50540777e+02
126             	3.50668416e+02
127             	3.50793371e+02
128             	3.50919715e+02
129             	3.51046514e+02
130             	3.51169050e+02
131             	3.51291737e+02
132             	3.51406098e+02
133             	3.51517348e+02
134             	3.51642287e+02
135             	3.51775616e+02
136             	3.51908830e+02
137             	3.52033560e+02
138             	3.52152899e+02
139             	3.52263046e+02
140             	3.52370496e+02
141             	3.52478140e+02
142             	3.52592185e+02
143             	3.52715981e+02
144             	3.52806796e+02
145             	3.52922491e+02
146             	3.53046137e+02
147             	3.53151279e+02
148             	3.53247109e+02
149             	3.53345360e+02
150             	3.53450929e+02
151             	3.53565681e+02
152             	3.53676154e+02
153             	3.53787172e+02
154             	3.53896630e+02
155             	3.54004798e+02
156             	3.54112060e+02
157             	3.54214561e+02
158             	3.54310154e+02
159             	3.54401874e+02
160             	3.54494267e+02
161             	3.54587130e+02
162             	3.54684595e+02
163             	3.54773988e+02
164             	3.54858562e+02
165             	3.54939317e+02
166             	3.55019580e+02
167             	3.55099826e+02
168             	3.55154279e+02
169             	3.55219606e+02
170             	3.55294153e+02
171             	3.55354495e+02
172             	3.55405203e+02
173             	3.55454444e+02
174             	3.55510563e+02
175             	3.55563523e+02
176             	3.55613195e+02
177             	3.55652038e+02
178             	3.55689176e+02
179             	3.55733946e+02
180             	3.55787088e+02
181             	3.55835481e+02
182             	3.55876375e+02
183             	3.55922146e+02
184             	3.55970294e+02
185             	3.56009339e+02
186             	3.56043798e+02
187             	3.56076696e+02
188             	3.56107933e+02
189             	3.56138750e+02
190             	3.56167630e+02
191             	3.56196656e+02
192             	3.56229391e+02
193             	3.56263730e+02
194             	3.56297695e+02
195             	3.56333659e+02
196             	3.56370945e+02
197             	3.56408938e+02
198             	3.56446541e+02
199             	3.56481359e+02
200             	3.56515552e+02
201             	3.56544549e+02
202             	3.56571450e+02
203             	3.56596460e+02
204             	3.56620078e+02
205             	3.56641542e+02
206             	3.56660360e+02
207             	3.56677282e+02
208             	3.56693014e+02
209             	3.56706520e+02
210             	3.56720129e+02
211             	3.56736340e+02
212             	3.56754933e+02
213             	3.56774038e+02
214             	3.56792992e+02
215             	3.56809669e+02
216             	3.56825846e+02
217             	3.56841331e+02
218             	3.56858481e+02
219             	3.56875516e+02
220             	3.56893382e+02
221             	3.56910612e+02
222             	3.56930925e+02
223             	3.56954497e+02
224             	3.56980813e+02
225             	3.57002679e+02
226             	3.57023643e+02
227             	3.57042296e+02
228             	3.57056540e+02
229             	3.57069358e+02
230             	3.57082429e+02
231             	3.57095744e+02
232             	3.57110331e+02
233             	3.57126920e+02
234             	3.57144480e+02
235             	3.57162372e+02
236             	3.57178328e+02
237             	3.57192929e+02
238             	3.57207633e+02
239             	3.57219854e+02
240             	3.57229328e+02
241             	3.57236638e+02
242             	3.57241698e+02
243             	3.57243557e+02
244             	3.57244637e+02
245             	3.57246889e+02
246             	3.57249602e+02
247             	3.57253501e+02
248             	3.57258729e+02
249             	3.57263168e+02
250             	3.57268067e+02
251             	3.57274454e+02
252             	3.57280489e+02
253             	3.57285628e+02
254             	3.57291080e+02
255             	3.57297397e+02
256             	3.57303013e+02
257             	3.57308870e+02
258             	3.57316257e+02
259             	3.57324965e+02
260             	3.57335779e+02
261             	3.57348507e+02
262             	3.57358699e+02
263             	3.57366248e+02
264             	3.57373372e+02
265             	3.57380130e+02
266             	3.57384901e+02
267             	3.57388937e+02
268             	3.57394189e+02
269             	3.57400470e+02
270             	3.57406821e+02
271             	3.57412917e+02
272             	3.57418846e+02
273             	3.57424890e+02
274             	3.57431153e+02
275             	3.57437923e+02
276             	3.57444841e+02
277             	3.57451713e+02
278             	3.57458390e+02
279             	3.57464551e+02
280             	3.57469709e+02
281             	3.57474496e+02
282             	3.57478645e+02
283             	3.57481788e+02
284             	3.57484217e+02
285             	3.57486215e+02
286             	3.57487914e+02
287             	3.57490213e+02
288             	3.57492824e+02
289             	3.57495279e+02
290             	3.57497590e+02
291             	3.57499797e+02
292             	3.57502088e+02
293             	3.57504476e+02
294             	3.57506921e+02
295             	3.57509412e+02
296             	3.57511978e+02
297             	3.57514608e+02
298             	3.57517330e+02
299             	3.57519985e+02
300             	3.57522324e+02
301             	3.57524028e+02
302             	3.57525423e+02
303             	3.57526904e+02
304             	3.57528572e+02
305             	3.57529866e+02
306             	3.57531104e+02
307             	3.57532698e+02
308             	3.57534579e+02
309             	3.57536569e+02
310             	3.57538572e+02
311             	3.57540089e+02
312             	3.57540794e+02
313             	3.57540976e+02
314             	3.57540329e+02
315             	3.57539062e+02
316             	3.57539513e+02
317             	3.57541262e+02
318             	3.57543496e+02
319             	3.57545657e+02
320             	3.57547049e+02
321             	3.57548157e+02
322             	3.57549462e+02
323             	3.57550698e+02
324             	3.57551805e+02
325             	3.57553173e+02
326             	3.57554715e+02
327             	3.57556328e+02
328             	3.57557202e+02
329             	3.57557523e+02
330             	3.57557541e+02
331             	3.57557720e+02
332             	3.57558835e+02
333             	3.57560161e+02
334             	3.57561571e+02
335             	3.57563124e+02
336             	3.57564769e+02
337             	3.57566513e+02
338             	3.57568347e+02
339             	3.57570055e+02
340             	3.57571716e+02
341             	3.57573181e+02
342             	3.57574483e+02
343             	3.57575641e+02
344             	3.57576357e+02
345             	3.57576877e+02
346             	3.57577056e+02
347             	3.57576920e+02
348             	3.57576520e+02
349             	3.57576398e+02
350             	3.57576464e+02
351             	3.57576391e+02
352             	3.57576412e+02
353             	3.57576573e+02
354             	3.57576898e+02
355             	3.57577387e+02
356             	3.57578004e+02
357             	3.57578570e+02
358             	3.57579033e+02
359             	3.57579257e+02
360             	3.57579221e+02
361             	3.57579203e+02
362             	3.57579358e+02
363             	3.57579711e+02
364             	3.57580235e+02
365             	3.57581000e+02
366             	3.57581994e+02
367             	3.57583082e+02
368             	3.57583867e+02
369             	3.57584380e+02
370             	3.57584819e+02
371             	3.57585290e+02
372             	3.57585809e+02
373             	3.57586313e+02
374             	3.57586722e+02
375             	3.57587130e+02
376             	3.57587457e+02
377             	3.57587630e+02
378             	3.57587747e+02
379             	3.57587962e+02
380             	3.57588276e+02
381             	3.57588596e+02
382             	3.57588878e+02
383             	3.57589183e+02
384             	3.57589576e+02
385             	3.57590002e+02
386             	3.57590487e+02
387             	3.57590914e+02
388             	3.57591203e+02
389             	3.57591418e+02
390             	3.57591717e+02
391             	3.57592128e+02
392             	3.57592605e+02
393             	3.57593027e+02
394             	3.57593413e+02
395             	3.57593749e+02
396             	3.57594309e+02
397             	3.57594933e+02
398             	3.57595602e+02
399             	3.57596163e+02
400             	3.57596628e+02
401             	3.57597057e+02
402             	3.57597429e+02
403             	3.57597717e+02
404             	3.57597921e+02
405             	3.57598076e+02
406             	3.57598168e+02
407             	3.57598119e+02
408             	3.57597840e+02
409             	3.57597566e+02
410             	3.57597343e+02
411             	3.57597132e+02
412             	3.57596917e+02
413             	3.57596713e+02
414             	3.57596534e+02
415             	3.57596390e+02
416             	3.57596285e+02
417             	3.57596228e+02
418             	3.57596239e+02
419             	3.57596291e+02
420             	3.57596354e+02
421             	3.57596493e+02
422             	3.57596785e+02
423             	3.57597238e+02
424             	3.57597847e+02
425             	3.57598483e+02
426             	3.57598928e+02
427             	3.57599210e+02
428             	3.57599431e+02
429             	3.57599621e+02
430             	3.57599774e+02
431             	3.57599845e+02
432             	3.57599901e+02
433             	3.57600115e+02
434             	3.57600402e+02
435             	3.57600676e+02
436             	3.57600920e+02
437             	3.57601104e+02
438             	3.57601216e+02
439             	3.57601324e+02
440             	3.57601510e+02
441             	3.57601749e+02
442             	3.57602015e+02
443             	3.57602290e+02
444             	3.57602615e+02
445             	3.57602985e+02
446             	3.57603281e+02
447             	3.57603520e+02
448             	3.57603756e+02
449             	3.57603992e+02
450             	3.57604306e+02
451             	3.57604609e+02
452             	3.57604771e+02
453             	3.57604835e+02
454             	3.57604834e+02
455             	3.57604839e+02
456             	3.57604868e+02
457             	3.57604817e+02
458             	3.57604523e+02
459             	3.57604103e+02
460             	3.57603992e+02
461             	3.57604263e+02
462             	3.57604782e+02
463             	3.57605134e+02
464             	3.57605113e+02
465             	3.57604957e+02
466             	3.57604762e+02
467             	3.57604466e+02
468             	3.57604214e+02
469             	3.57604261e+02
470             	3.57604629e+02
471             	3.57605187e+02
472             	3.57605861e+02
473             	3.57606644e+02
474             	3.57607317e+02
475             	3.57607619e+02
476             	3.57607706e+02
477             	3.57607846e+02
478             	3.57608111e+02
479             	3.57608425e+02
480             	3.57608692e+02
481             	3.57608921e+02
482             	3.57609082e+02
483             	3.57609120e+02
484             	3.57609080e+02
485             	3.57609077e+02
486             	3.57609020e+02
487             	3.57608832e+02
488             	3.57608573e+02
489             	3.57608307e+02
490             	3.57608026e+02
491             	3.57607819e+02
492             	3.57607703e+02
493             	3.57607582e+02
494             	3.57607481e+02
495             	3.57607409e+02
496             	3.57607347e+02
497             	3.57607279e+02
498             	3.57607231e+02
499             	3.57607150e+02
500             	3.57607063e+02
501             	3.57607008e+02
502             	3.57606988e+02
503             	3.57606980e+02
504             	3.57606976e+02
505             	3.57606983e+02
506             	3.57606935e+02
507             	3.57606871e+02
508             	3.57606887e+02
509             	3.57606961e+02
510             	3.57607107e+02
511             	3.57607311e+02
512             	3.57607478e+02
513             	3.57607596e+02
514             	3.57607722e+02
515             	3.57607892e+02
516             	3.57608090e+02
517             	3.57608272e+02
518             	3.57608434e+02
519             	3.57608591e+02
520             	3.57608721e+02
521             	3.57608826e+02
522             	3.57608923e+02
523             	3.57609010e+02
524             	3.57609077e+02
525             	3.57609121e+02
526             	3.57609146e+02
527             	3.57609137e+02
528             	3.57609088e+02
529             	3.57609085e+02
530             	3.57609115e+02
531             	3.57609151e+02
532             	3.57609176e+02
533             	3.57609190e+02
534             	3.57609203e+02
535             	3.57609220e+02
536             	3.57609246e+02
537             	3.57609276e+02
538             	3.57609320e+02
539             	3.57609377e+02
540             	3.57609435e+02
541             	3.57609519e+02
542             	3.57609613e+02
543             	3.57609681e+02
544             	3.57609734e+02
545             	3.57609798e+02
546             	3.57609859e+02
547             	3.57609928e+02
548             	3.57610043e+02
549             	3.57610193e+02
550             	3.57610350e+02
551             	3.57610486e+02
552             	3.57610593e+02
553             	3.57610662e+02
554             	3.57610701e+02
555             	3.57610697e+02
556             	3.57610666e+02
557             	3.57610603e+02
558             	3.57610498e+02
559             	3.57610332e+02
560             	3.57610177e+02
561             	3.57610080e+02
562             	3.57610008e+02
563             	3.57609942e+02
564             	3.57609877e+02
565             	3.57609800e+02
566             	3.57609722e+02
567             	3.57609642e+02
568             	3.57609559e+02
569             	3.57609469e+02
570             	3.57609361e+02
571             	3.57609237e+02
572             	3.57609110e+02
573             	3.57608994e+02
574             	3.57608895e+02
575             	3.57608809e+02
576             	3.57608736e+02
577             	3.57608683e+02
578             	3.57608644e+02
579             	3.57608623e+02
580             	3.57608617e+02
581             	3.57608630e+02
582             	3.57608661e+02
583             	3.57608702e+02
584             	3.57608753e+02
585             	3.57608817e+02
586             	3.57608885e+02
587             	3.57608951e+02
588             	3.57608998e+02
589             	3.57609038e+02
590             	3.57609096e+02
591             	3.57609174e+02
592             	3.57609255e+02
593             	3.57609342e+02
594             	3.57609432e+02
595             	3.57609531e+02
596             	3.57609638e+02
597             	3.57609741e+02
598             	3.57609831e+02
599             	3.57609897e+02
600             	3.57609939e+02
601             	3.57609947e+02
602             	3.57609966e+02
603             	3.57609994e+02
604             	3.57610027e+02
605             	3.57610076e+02
606             	3.57610143e+02
607             	3.57610217e+02
608             	3.57610392e+02
609             	3.57610681e+02
610             	3.57610868e+02
611             	3.57610960e+02
612             	3.57611037e+02
613             	3.57611122e+02
614             	3.57611197e+02
615             	3.57611245e+02
616             	3.57611238e+02
617             	3.57611126e+02
618             	3.57610905e+02
619             	3.57610793e+02
620             	3.57610783e+02
621             	3.57610767e+02
