# Region        : cellZone component_4
# Cells         : 223
# Volume        : 4.30895790e-01
# Time          	volAverage(T)
1               	3.00206029e+02
2               	3.00410591e+02
3               	3.00603426e+02
4               	3.00787955e+02
5               	3.00967652e+02
6               	3.01143942e+02
7               	3.01317057e+02
8               	3.01487130e+02
9               	3.01654436e+02
10              	3.01819891e+02
11              	3.01982794e+02
12              	3.02143781e+02
13              	3.02304204e+02
14              	3.02454804e+02
15              	3.02601860e+02
16              	3.02745001e+02
17              	3.02885286e+02
18              	3.03025485e+02
19              	3.03166424e+02
20              	3.03305510e+02
21              	3.03443428e+02
22              	3.03581703e+02
23              	3.03714150e+02
24              	3.03842545e+02
25              	3.03964236e+02
26              	3.04083400e+02
27              	3.04200987e+02
28              	3.04308258e+02
29              	3.04410782e+02
30              	3.04517666e+02
31              	3.04619248e+02
32              	3.04716320e+02
33              	3.04810167e+02
34              	3.04900555e+02
35              	3.04986900e+02
36              	3.05074273e+02
37              	3.05160995e+02
38              	3.05243122e+02
39              	3.05321950e+02
40              	3.05399052e+02
41              	3.05474242e+02
42              	3.05548723e+02
43              	3.05623610e+02
44              	3.05697285e+02
45              	3.05764678e+02
46              	3.05829690e+02
47              	3.05889742e+02
48              	3.05947680e+02
49              	3.06006623e+02
50              	3.06065334e+02
51              	3.06131222e+02
52              	3.06195797e+02
53              	3.06259303e+02
54              	3.06320693e+02
55              	3.06382360e+02
56              	3.06443029e+02
57              	3.06502377e+02
58              	3.06558965e+02
59              	3.06616552e+02
60              	3.06674833e+02
61              	3.06734178e+02
62              	3.06791273e+02
63              	3.06847420e+02
64              	3.06902294e+02
65              	3.06956408e+02
66              	3.07008033e+02
67              	3.07060666e+02
68              	3.07110485e+02
69              	3.07160585e+02
70              	3.07209403e+02
71              	3.07257450e+02
72              	3.07302812e+02
73              	3.07349643e+02
74              	3.07394016e+02
75              	3.07437236e+02
76              	3.07480974e+02
77              	3.07523619e+02
78              	3.07567637e+02
79              	3.07611833e+02
80              	3.07654152e+02
81              	3.07695663e+02
82              	3.07736658e+02
83              	3.07777742e+02
84              	3.07816910e+02
85              	3.07855819e+02
86              	3.07892573e+02
87              	3.07929692e+02
88              	3.07965542e+02
89              	3.08001172e+02
90              	3.08036176e+02
91              	3.08069949e+02
92              	3.08102776e+02
93              	3.08135721e+02
94              	3.08168847e+02
95              	3.08201736e+02
96              	3.08234682e+02
97              	3.08268340e+02
98              	3.08301048e+02
99              	3.08333490e+02
100             	3.08365571e+02
101             	3.08408803e+02
102             	3.08453431e+02
103             	3.08496713e+02
104             	3.08537223e+02
105             	3.08575025e+02
106             	3.08610997e+02
107             	3.08645949e+02
108             	3.08679511e+02
109             	3.08713655e+02
110             	3.08750610e+02
111             	3.08786355e+02
112             	3.08826354e+02
113             	3.08867402e+02
114             	3.08912608e+02
115             	3.08959992e+02
116             	3.09009523e+02
117             	3.09060168e+02
118             	3.09110018e+02
119             	3.09157513e+02
120             	3.09201971e+02
121             	3.09245671e+02
122             	3.09288029e+02
123             	3.09329368e+02
124             	3.09368971e+02
125             	3.09407720e+02
126             	3.09445229e+02
127             	3.09481730e+02
128             	3.09517759e+02
129             	3.09552980e+02
130             	3.09586833e+02
131             	3.09620108e+02
132             	3.09653657e+02
133             	3.09687277e+02
134             	3.09720299e+02
135             	3.09753112e+02
136             	3.09785597e+02
137             	3.09817608e+02
138             	3.09849565e+02
139             	3.09881177e+02
140             	3.09911272e+02
141             	3.09940424e+02
142             	3.09969314e+02
143             	3.09998038e+02
144             	3.10025575e+02
145             	3.10052315e+02
146             	3.10078760e+02
147             	3.10104650e+02
148             	3.10130444e+02
149             	3.10155834e+02
150             	3.10180597e+02
151             	3.10204932e+02
152             	3.10228401e+02
153             	3.10251951e+02
154             	3.10275035e+02
155             	3.10298578e+02
156             	3.10321151e+02
157             	3.10343677e+02
158             	3.10365883e+02
159             	3.10387945e+02
160             	3.10409728e+02
161             	3.10430934e+02
162             	3.10452659e+02
163             	3.10473393e+02
164             	3.10493762e+02
165             	3.10513655e+02
166             	3.10533005e+02
167             	3.10552278e+02
168             	3.10571333e+02
169             	3.10590179e+02
170             	3.10608949e+02
171             	3.10627693e+02
172             	3.10646037e+02
173             	3.10664354e+02
174             	3.10681948e+02
175             	3.10699688e+02
176             	3.10717009e+02
177             	3.10734414e+02
178             	3.10751724e+02
179             	3.10769288e+02
180             	3.10786503e+02
181             	3.10803435e+02
182             	3.10820693e+02
183             	3.10837352e+02
184             	3.10853871e+02
185             	3.10869588e+02
186             	3.10884820e+02
187             	3.10899375e+02
188             	3.10913838e+02
189             	3.10928141e+02
190             	3.10942056e+02
191             	3.10956310e+02
192             	3.10970264e+02
193             	3.10984168e+02
194             	3.10997756e+02
195             	3.11011203e+02
196             	3.11024567e+02
197             	3.11037413e+02
198             	3.11050634e+02
199             	3.11063057e+02
200             	3.11075276e+02
201             	3.11087249e+02
202             	3.11098980e+02
203             	3.11110698e+02
204             	3.11122130e+02
205             	3.11133266e+02
206             	3.11144224e+02
207             	3.11155020e+02
208             	3.11165817e+02
209             	3.11176457e+02
210             	3.11187107e+02
211             	3.11197733e+02
212             	3.11208358e+02
213             	3.11218712e+02
214             	3.11229088e+02
215             	3.11239398e+02
216             	3.11249249e+02
217             	3.11258834e+02
218             	3.11268445e+02
219             	3.11277860e+02
220             	3.11287576e+02
221             	3.11297558e+02
222             	3.11307131e+02
223             	3.11316499e+02
224             	3.11325677e+02
225             	3.11334830e+02
226             	3.11344035e+02
227             	3.11353139e+02
228             	3.11362278e+02
229             	3.11371379e+02
230             	3.11380327e+02
231             	3.11389204e+02
232             	3.11397994e+02
233             	3.11406418e+02
234             	3.11414876e+02
235             	3.11423285e+02
236             	3.11431731e+02
237             	3.11440174e+02
238             	3.11448198e+02
239             	3.11456013e+02
240             	3.11463674e+02
241             	3.11471423e+02
242             	3.11479456e+02
243             	3.11487512e+02
244             	3.11495315e+02
245             	3.11503170e+02
246             	3.11510864e+02
247             	3.11518337e+02
248             	3.11525352e+02
249             	3.11532125e+02
250             	3.11538563e+02
251             	3.11545208e+02
252             	3.11551792e+02
253             	3.11558143e+02
254             	3.11564726e+02
255             	3.11571673e+02
256             	3.11578905e+02
257             	3.11586298e+02
258             	3.11593422e+02
259             	3.11600185e+02
260             	3.11606854e+02
261             	3.11613437e+02
262             	3.11619637e+02
263             	3.11625371e+02
264             	3.11631414e+02
265             	3.11638003e+02
266             	3.11644577e+02
267             	3.11650940e+02
268             	3.11657228e+02
269             	3.11663899e+02
270             	3.11670778e+02
271             	3.11677305e+02
272             	3.11683170e+02
273             	3.11688843e+02
274             	3.11694212e+02
275             	3.11699523e+02
276             	3.11704596e+02
277             	3.11709161e+02
278             	3.11713430e+02
279             	3.11718087e+02
280             	3.11722849e+02
281             	3.11727398e+02
282             	3.11731509e+02
283             	3.11735670e+02
284             	3.11740318e+02
285             	3.11744723e+02
286             	3.11748660e+02
287             	3.11752343e+02
288             	3.11756033e+02
289             	3.11759808e+02
290             	3.11763553e+02
291             	3.11767137e+02
292             	3.11770101e+02
293             	3.11772916e+02
294             	3.11776108e+02
295             	3.11779465e+02
296             	3.11782570e+02
297             	3.11785494e+02
298             	3.11788338e+02
299             	3.11791326e+02
300             	3.11794348e+02
301             	3.11797436e+02
302             	3.11800790e+02
303             	3.11804171e+02
304             	3.11807417e+02
305             	3.11810641e+02
306             	3.11813906e+02
307             	3.11816988e+02
308             	3.11819843e+02
309             	3.11822443e+02
310             	3.11825418e+02
311             	3.11828761e+02
312             	3.11832272e+02
313             	3.11835645e+02
314             	3.11838781e+02
315             	3.11841903e+02
316             	3.11845258e+02
317             	3.11848912e+02
318             	3.11852453e+02
319             	3.11855995e+02
320             	3.11859433e+02
321             	3.11862779e+02
322             	3.11866021e+02
323             	3.11868818e+02
324             	3.11871615e+02
325             	3.11874301e+02
326             	3.11877461e+02
327             	3.11880725e+02
328             	3.11884148e+02
329             	3.11887629e+02
330             	3.11891627e+02
331             	3.11895981e+02
332             	3.11900229e+02
333             	3.11904071e+02
334             	3.11907775e+02
335             	3.11911335e+02
336             	3.11914459e+02
337             	3.11916802e+02
338             	3.11919068e+02
339             	3.11921557e+02
340             	3.11924247e+02
341             	3.11926969e+02
342             	3.11929471e+02
343             	3.11932144e+02
344             	3.11935120e+02
345             	3.11938417e+02
346             	3.11941463e+02
347             	3.11944339e+02
348             	3.11947278e+02
349             	3.11950186e+02
350             	3.11953052e+02
351             	3.11955717e+02
352             	3.11957754e+02
353             	3.11959458e+02
354             	3.11961466e+02
355             	3.11963540e+02
356             	3.11965589e+02
357             	3.11967650e+02
358             	3.11969616e+02
359             	3.11971715e+02
360             	3.11974032e+02
361             	3.11976693e+02
362             	3.11978827e+02
363             	3.11980594e+02
364             	3.11982272e+02
365             	3.11984024e+02
366             	3.11985878e+02
367             	3.11987617e+02
368             	3.11989134e+02
369             	3.11990556e+02
370             	3.11992489e+02
371             	3.11994725e+02
372             	3.11997043e+02
373             	3.11999073e+02
374             	3.12001047e+02
375             	3.12002889e+02
376             	3.12004779e+02
377             	3.12006634e+02
378             	3.12008512e+02
379             	3.12010654e+02
380             	3.12012792e+02
381             	3.12014810e+02
382             	3.12016498e+02
383             	3.12018004e+02
384             	3.12019512e+02
385             	3.12021349e+02
386             	3.12023181e+02
387             	3.12025024e+02
388             	3.12026968e+02
389             	3.12028975e+02
390             	3.12030847e+02
391             	3.12032769e+02
392             	3.12034515e+02
393             	3.12035980e+02
394             	3.12037276e+02
395             	3.12038399e+02
396             	3.12039310e+02
397             	3.12040092e+02
398             	3.12040937e+02
399             	3.12041745e+02
400             	3.12042550e+02
401             	3.12043334e+02
402             	3.12044029e+02
403             	3.12044673e+02
404             	3.12045324e+02
405             	3.12046090e+02
406             	3.12046985e+02
407             	3.12048116e+02
408             	3.12049361e+02
409             	3.12050522e+02
410             	3.12051836e+02
411             	3.12053014e+02
412             	3.12054433e+02
413             	3.12056008e+02
414             	3.12057755e+02
415             	3.12059613e+02
416             	3.12061427e+02
417             	3.12063220e+02
418             	3.12064987e+02
419             	3.12066690e+02
420             	3.12068236e+02
421             	3.12069693e+02
422             	3.12071081e+02
423             	3.12072405e+02
424             	3.12074024e+02
425             	3.12075616e+02
426             	3.12077216e+02
427             	3.12078778e+02
428             	3.12080347e+02
429             	3.12081948e+02
430             	3.12083595e+02
431             	3.12085257e+02
432             	3.12086831e+02
433             	3.12088354e+02
434             	3.12089852e+02
435             	3.12091091e+02
436             	3.12092108e+02
437             	3.12093104e+02
438             	3.12094089e+02
439             	3.12094901e+02
440             	3.12095584e+02
441             	3.12096208e+02
442             	3.12096940e+02
443             	3.12097841e+02
444             	3.12098672e+02
445             	3.12099548e+02
446             	3.12100383e+02
447             	3.12101330e+02
448             	3.12102288e+02
449             	3.12102992e+02
450             	3.12103385e+02
451             	3.12103738e+02
452             	3.12104448e+02
453             	3.12105292e+02
454             	3.12106008e+02
455             	3.12106815e+02
456             	3.12107915e+02
457             	3.12109262e+02
458             	3.12110365e+02
459             	3.12111376e+02
460             	3.12112319e+02
461             	3.12113262e+02
462             	3.12114045e+02
463             	3.12114530e+02
464             	3.12114822e+02
465             	3.12115146e+02
466             	3.12115826e+02
467             	3.12116260e+02
468             	3.12116538e+02
469             	3.12116737e+02
470             	3.12117316e+02
471             	3.12118245e+02
472             	3.12118851e+02
473             	3.12119295e+02
474             	3.12119610e+02
475             	3.12119857e+02
476             	3.12120146e+02
477             	3.12119808e+02
478             	3.12119526e+02
479             	3.12119121e+02
480             	3.12119053e+02
481             	3.12118990e+02
482             	3.12118832e+02
483             	3.12118681e+02
484             	3.12118750e+02
485             	3.12119445e+02
486             	3.12120559e+02
487             	3.12121142e+02
488             	3.12121565e+02
489             	3.12121981e+02
490             	3.12122491e+02
491             	3.12122975e+02
492             	3.12123136e+02
493             	3.12122864e+02
494             	3.12122796e+02
495             	3.12123146e+02
496             	3.12123929e+02
497             	3.12124575e+02
498             	3.12125187e+02
499             	3.12125624e+02
500             	3.12127028e+02
501             	3.12128910e+02
502             	3.12130648e+02
503             	3.12132382e+02
504             	3.12134332e+02
505             	3.12135401e+02
506             	3.12136486e+02
507             	3.12136854e+02
508             	3.12137513e+02
509             	3.12138844e+02
510             	3.12139574e+02
511             	3.12140084e+02
512             	3.12141258e+02
513             	3.12143045e+02
514             	3.12144938e+02
515             	3.12146353e+02
516             	3.12147536e+02
517             	3.12148428e+02
518             	3.12149240e+02
519             	3.12150211e+02
520             	3.12150445e+02
521             	3.12150129e+02
522             	3.12150476e+02
523             	3.12151442e+02
524             	3.12152155e+02
525             	3.12152594e+02
526             	3.12152768e+02
527             	3.12153073e+02
528             	3.12153598e+02
529             	3.12154438e+02
530             	3.12155586e+02
531             	3.12156739e+02
532             	3.12157561e+02
533             	3.12158256e+02
534             	3.12158870e+02
535             	3.12159172e+02
536             	3.12159029e+02
537             	3.12158943e+02
538             	3.12159207e+02
539             	3.12159608e+02
540             	3.12159929e+02
541             	3.12160241e+02
542             	3.12160363e+02
543             	3.12160643e+02
544             	3.12161126e+02
545             	3.12161709e+02
546             	3.12161982e+02
547             	3.12162284e+02
548             	3.12162627e+02
549             	3.12162822e+02
550             	3.12162511e+02
551             	3.12162081e+02
552             	3.12161639e+02
553             	3.12161780e+02
554             	3.12162271e+02
555             	3.12162973e+02
556             	3.12163769e+02
557             	3.12164886e+02
558             	3.12166821e+02
559             	3.12168665e+02
560             	3.12170308e+02
561             	3.12171418e+02
562             	3.12172249e+02
563             	3.12173286e+02
564             	3.12173962e+02
565             	3.12174456e+02
566             	3.12174624e+02
567             	3.12175708e+02
568             	3.12177405e+02
569             	3.12178813e+02
570             	3.12180707e+02
571             	3.12183502e+02
572             	3.12186590e+02
573             	3.12189858e+02
574             	3.12193345e+02
575             	3.12197300e+02
576             	3.12201021e+02
577             	3.12204281e+02
578             	3.12206289e+02
579             	3.12207560e+02
580             	3.12209499e+02
581             	3.12211710e+02
582             	3.12213845e+02
583             	3.12215913e+02
584             	3.12217854e+02
585             	3.12219844e+02
586             	3.12221859e+02
587             	3.12223870e+02
588             	3.12225446e+02
589             	3.12226250e+02
590             	3.12226377e+02
591             	3.12226049e+02
592             	3.12225574e+02
593             	3.12225156e+02
594             	3.12224778e+02
595             	3.12224258e+02
596             	3.12223256e+02
597             	3.12222194e+02
598             	3.12221555e+02
599             	3.12221217e+02
600             	3.12220927e+02
601             	3.12220706e+02
602             	3.12220173e+02
603             	3.12219834e+02
604             	3.12219972e+02
605             	3.12220476e+02
606             	3.12220611e+02
607             	3.12220927e+02
608             	3.12221310e+02
609             	3.12221441e+02
610             	3.12221095e+02
611             	3.12220179e+02
612             	3.12219363e+02
613             	3.12219054e+02
614             	3.12218836e+02
615             	3.12218757e+02
616             	3.12219240e+02
617             	3.12220662e+02
618             	3.12222469e+02
619             	3.12224660e+02
620             	3.12226290e+02
621             	3.12227723e+02
