# Region        : cellZone component_1
# Cells         : 215
# Volume        : 4.19380976e-01
# Time          	volAverage(T)
1               	3.00234693e+02
2               	3.00467288e+02
3               	3.00690545e+02
4               	3.00908603e+02
5               	3.01124488e+02
6               	3.01338586e+02
7               	3.01551463e+02
8               	3.01763735e+02
9               	3.01975852e+02
10              	3.02187691e+02
11              	3.02398539e+02
12              	3.02608079e+02
13              	3.02816226e+02
14              	3.03022778e+02
15              	3.03228822e+02
16              	3.03433634e+02
17              	3.03637180e+02
18              	3.03840787e+02
19              	3.04043420e+02
20              	3.04244571e+02
21              	3.04445019e+02
22              	3.04645731e+02
23              	3.04845419e+02
24              	3.05043578e+02
25              	3.05240281e+02
26              	3.05434578e+02
27              	3.05626543e+02
28              	3.05816683e+02
29              	3.06005189e+02
30              	3.06189767e+02
31              	3.06371202e+02
32              	3.06550760e+02
33              	3.06728709e+02
34              	3.06901386e+02
35              	3.07071013e+02
36              	3.07242708e+02
37              	3.07415008e+02
38              	3.07585133e+02
39              	3.07755286e+02
40              	3.07923288e+02
41              	3.08092387e+02
42              	3.08260238e+02
43              	3.08426327e+02
44              	3.08592808e+02
45              	3.08757065e+02
46              	3.08920496e+02
47              	3.09083724e+02
48              	3.09244675e+02
49              	3.09404662e+02
50              	3.09564446e+02
51              	3.09727933e+02
52              	3.09886287e+02
53              	3.10047213e+02
54              	3.10209143e+02
55              	3.10368638e+02
56              	3.10525622e+02
57              	3.10680342e+02
58              	3.10832801e+02
59              	3.10980999e+02
60              	3.11129404e+02
61              	3.11276083e+02
62              	3.11421301e+02
63              	3.11566222e+02
64              	3.11710375e+02
65              	3.11852909e+02
66              	3.11991544e+02
67              	3.12129389e+02
68              	3.12264830e+02
69              	3.12399052e+02
70              	3.12530383e+02
71              	3.12660553e+02
72              	3.12788374e+02
73              	3.12914514e+02
74              	3.13039299e+02
75              	3.13163546e+02
76              	3.13287853e+02
77              	3.13412552e+02
78              	3.13537100e+02
79              	3.13661288e+02
80              	3.13786789e+02
81              	3.13911765e+02
82              	3.14034312e+02
83              	3.14156535e+02
84              	3.14277563e+02
85              	3.14396747e+02
86              	3.14515921e+02
87              	3.14632788e+02
88              	3.14748007e+02
89              	3.14862666e+02
90              	3.14975311e+02
91              	3.15086225e+02
92              	3.15195607e+02
93              	3.15303426e+02
94              	3.15410874e+02
95              	3.15518546e+02
96              	3.15627439e+02
97              	3.15735499e+02
98              	3.15843944e+02
99              	3.15951662e+02
100             	3.16058844e+02
101             	3.16165141e+02
102             	3.16270415e+02
103             	3.16373853e+02
104             	3.16477104e+02
105             	3.16579901e+02
106             	3.16682260e+02
107             	3.16782989e+02
108             	3.16883299e+02
109             	3.16982374e+02
110             	3.17080078e+02
111             	3.17176593e+02
112             	3.17272166e+02
113             	3.17367018e+02
114             	3.17461186e+02
115             	3.17555338e+02
116             	3.17649447e+02
117             	3.17743636e+02
118             	3.17838127e+02
119             	3.17932313e+02
120             	3.18025345e+02
121             	3.18117334e+02
122             	3.18208633e+02
123             	3.18298705e+02
124             	3.18387680e+02
125             	3.18475640e+02
126             	3.18562502e+02
127             	3.18648431e+02
128             	3.18733134e+02
129             	3.18817051e+02
130             	3.18900414e+02
131             	3.18983318e+02
132             	3.19065618e+02
133             	3.19147503e+02
134             	3.19229255e+02
135             	3.19310347e+02
136             	3.19391028e+02
137             	3.19471236e+02
138             	3.19550812e+02
139             	3.19629708e+02
140             	3.19707707e+02
141             	3.19785028e+02
142             	3.19861694e+02
143             	3.19937668e+02
144             	3.20012934e+02
145             	3.20087571e+02
146             	3.20161574e+02
147             	3.20234831e+02
148             	3.20307442e+02
149             	3.20379333e+02
150             	3.20450220e+02
151             	3.20520556e+02
152             	3.20590121e+02
153             	3.20658858e+02
154             	3.20726752e+02
155             	3.20793978e+02
156             	3.20860898e+02
157             	3.20927428e+02
158             	3.20993744e+02
159             	3.21059817e+02
160             	3.21125616e+02
161             	3.21190970e+02
162             	3.21255708e+02
163             	3.21319749e+02
164             	3.21383102e+02
165             	3.21445958e+02
166             	3.21508185e+02
167             	3.21569814e+02
168             	3.21630906e+02
169             	3.21691591e+02
170             	3.21751867e+02
171             	3.21811696e+02
172             	3.21870957e+02
173             	3.21929612e+02
174             	3.21987884e+02
175             	3.22045620e+02
176             	3.22102782e+02
177             	3.22159315e+02
178             	3.22215293e+02
179             	3.22270764e+02
180             	3.22325776e+02
181             	3.22380319e+02
182             	3.22434326e+02
183             	3.22487797e+02
184             	3.22540773e+02
185             	3.22593361e+02
186             	3.22645617e+02
187             	3.22697417e+02
188             	3.22748872e+02
189             	3.22800000e+02
190             	3.22850734e+02
191             	3.22901011e+02
192             	3.22950885e+02
193             	3.23000277e+02
194             	3.23049153e+02
195             	3.23097487e+02
196             	3.23145281e+02
197             	3.23192602e+02
198             	3.23239515e+02
199             	3.23286012e+02
200             	3.23332130e+02
201             	3.23377946e+02
202             	3.23423369e+02
203             	3.23468404e+02
204             	3.23513099e+02
205             	3.23557359e+02
206             	3.23601140e+02
207             	3.23644477e+02
208             	3.23687397e+02
209             	3.23729790e+02
210             	3.23771886e+02
211             	3.23813627e+02
212             	3.23855013e+02
213             	3.23896102e+02
214             	3.23936883e+02
215             	3.23977318e+02
216             	3.24017405e+02
217             	3.24057184e+02
218             	3.24096570e+02
219             	3.24135562e+02
220             	3.24174179e+02
221             	3.24212432e+02
222             	3.24250298e+02
223             	3.24287879e+02
224             	3.24325149e+02
225             	3.24362137e+02
226             	3.24398853e+02
227             	3.24435249e+02
228             	3.24471385e+02
229             	3.24507136e+02
230             	3.24542633e+02
231             	3.24577791e+02
232             	3.24612600e+02
233             	3.24647040e+02
234             	3.24681178e+02
235             	3.24714978e+02
236             	3.24748487e+02
237             	3.24781749e+02
238             	3.24814780e+02
239             	3.24847550e+02
240             	3.24880067e+02
241             	3.24912328e+02
242             	3.24944299e+02
243             	3.24976002e+02
244             	3.25007450e+02
245             	3.25038647e+02
246             	3.25069518e+02
247             	3.25100130e+02
248             	3.25130496e+02
249             	3.25160653e+02
250             	3.25190594e+02
251             	3.25220295e+02
252             	3.25249779e+02
253             	3.25279053e+02
254             	3.25308059e+02
255             	3.25336867e+02
256             	3.25365452e+02
257             	3.25393804e+02
258             	3.25421925e+02
259             	3.25449822e+02
260             	3.25477462e+02
261             	3.25504891e+02
262             	3.25532109e+02
263             	3.25559099e+02
264             	3.25585889e+02
265             	3.25612501e+02
266             	3.25638882e+02
267             	3.25665063e+02
268             	3.25691069e+02
269             	3.25716844e+02
270             	3.25742443e+02
271             	3.25767867e+02
272             	3.25793072e+02
273             	3.25818113e+02
274             	3.25842947e+02
275             	3.25867585e+02
276             	3.25892058e+02
277             	3.25916377e+02
278             	3.25940506e+02
279             	3.25964465e+02
280             	3.25988252e+02
281             	3.26011848e+02
282             	3.26035282e+02
283             	3.26058544e+02
284             	3.26081621e+02
285             	3.26104517e+02
286             	3.26127250e+02
287             	3.26149768e+02
288             	3.26172120e+02
289             	3.26194327e+02
290             	3.26216351e+02
291             	3.26238233e+02
292             	3.26259974e+02
293             	3.26281542e+02
294             	3.26302969e+02
295             	3.26324253e+02
296             	3.26345371e+02
297             	3.26366348e+02
298             	3.26387192e+02
299             	3.26407864e+02
300             	3.26428386e+02
301             	3.26448777e+02
302             	3.26468998e+02
303             	3.26489077e+02
304             	3.26509030e+02
305             	3.26528823e+02
306             	3.26548484e+02
307             	3.26568020e+02
308             	3.26587401e+02
309             	3.26606636e+02
310             	3.26625771e+02
311             	3.26644748e+02
312             	3.26663588e+02
313             	3.26682307e+02
314             	3.26700870e+02
315             	3.26719303e+02
316             	3.26737622e+02
317             	3.26755789e+02
318             	3.26773832e+02
319             	3.26791763e+02
320             	3.26809547e+02
321             	3.26827213e+02
322             	3.26844770e+02
323             	3.26862183e+02
324             	3.26879486e+02
325             	3.26896691e+02
326             	3.26913758e+02
327             	3.26930715e+02
328             	3.26947573e+02
329             	3.26964291e+02
330             	3.26980892e+02
331             	3.26997391e+02
332             	3.27013750e+02
333             	3.27029997e+02
334             	3.27046147e+02
335             	3.27062160e+02
336             	3.27078067e+02
337             	3.27093881e+02
338             	3.27109572e+02
339             	3.27125158e+02
340             	3.27140652e+02
341             	3.27156015e+02
342             	3.27171276e+02
343             	3.27186446e+02
344             	3.27201491e+02
345             	3.27216434e+02
346             	3.27231286e+02
347             	3.27246014e+02
348             	3.27260642e+02
349             	3.27275186e+02
350             	3.27289608e+02
351             	3.27303934e+02
352             	3.27318176e+02
353             	3.27332310e+02
354             	3.27346333e+02
355             	3.27360280e+02
356             	3.27374118e+02
357             	3.27387868e+02
358             	3.27401542e+02
359             	3.27415098e+02
360             	3.27428574e+02
361             	3.27441976e+02
362             	3.27455262e+02
363             	3.27468458e+02
364             	3.27481578e+02
365             	3.27494582e+02
366             	3.27507499e+02
367             	3.27520340e+02
368             	3.27533066e+02
369             	3.27545702e+02
370             	3.27558265e+02
371             	3.27570718e+02
372             	3.27583086e+02
373             	3.27595385e+02
374             	3.27607578e+02
375             	3.27619698e+02
376             	3.27631751e+02
377             	3.27643696e+02
378             	3.27655568e+02
379             	3.27667379e+02
380             	3.27679094e+02
381             	3.27690738e+02
382             	3.27702322e+02
383             	3.27713805e+02
384             	3.27725215e+02
385             	3.27736559e+02
386             	3.27747807e+02
387             	3.27758981e+02
388             	3.27770093e+02
389             	3.27781105e+02
390             	3.27792043e+02
391             	3.27802923e+02
392             	3.27813704e+02
393             	3.27824418e+02
394             	3.27835072e+02
395             	3.27845631e+02
396             	3.27856123e+02
397             	3.27866562e+02
398             	3.27876912e+02
399             	3.27887195e+02
400             	3.27897428e+02
401             	3.27907567e+02
402             	3.27917638e+02
403             	3.27927660e+02
404             	3.27937589e+02
405             	3.27947448e+02
406             	3.27957253e+02
407             	3.27966965e+02
408             	3.27976613e+02
409             	3.27986210e+02
410             	3.27995716e+02
411             	3.28005164e+02
412             	3.28014569e+02
413             	3.28023893e+02
414             	3.28033161e+02
415             	3.28042384e+02
416             	3.28051525e+02
417             	3.28060609e+02
418             	3.28069649e+02
419             	3.28078604e+02
420             	3.28087500e+02
421             	3.28096350e+02
422             	3.28105115e+02
423             	3.28113824e+02
424             	3.28122486e+02
425             	3.28131069e+02
426             	3.28139595e+02
427             	3.28148083e+02
428             	3.28156492e+02
429             	3.28164851e+02
430             	3.28173171e+02
431             	3.28181414e+02
432             	3.28189609e+02
433             	3.28197766e+02
434             	3.28205847e+02
435             	3.28213877e+02
436             	3.28221870e+02
437             	3.28229788e+02
438             	3.28237657e+02
439             	3.28245488e+02
440             	3.28253242e+02
441             	3.28260944e+02
442             	3.28268608e+02
443             	3.28276197e+02
444             	3.28283737e+02
445             	3.28291241e+02
446             	3.28298672e+02
447             	3.28306057e+02
448             	3.28313411e+02
449             	3.28320694e+02
450             	3.28327934e+02
451             	3.28335144e+02
452             	3.28342285e+02
453             	3.28349384e+02
454             	3.28356452e+02
455             	3.28363450e+02
456             	3.28370403e+02
457             	3.28377327e+02
458             	3.28384181e+02
459             	3.28390991e+02
460             	3.28397770e+02
461             	3.28404481e+02
462             	3.28411149e+02
463             	3.28417789e+02
464             	3.28424362e+02
465             	3.28430894e+02
466             	3.28437400e+02
467             	3.28443838e+02
468             	3.28450237e+02
469             	3.28456609e+02
470             	3.28462916e+02
471             	3.28469183e+02
472             	3.28475424e+02
473             	3.28481599e+02
474             	3.28487737e+02
475             	3.28493849e+02
476             	3.28499898e+02
477             	3.28505909e+02
478             	3.28511898e+02
479             	3.28517825e+02
480             	3.28523717e+02
481             	3.28529586e+02
482             	3.28535395e+02
483             	3.28541168e+02
484             	3.28546920e+02
485             	3.28552612e+02
486             	3.28558268e+02
487             	3.28563903e+02
488             	3.28569479e+02
489             	3.28575022e+02
490             	3.28580544e+02
491             	3.28586008e+02
492             	3.28591440e+02
493             	3.28596854e+02
494             	3.28602210e+02
495             	3.28607536e+02
496             	3.28612843e+02
497             	3.28618094e+02
498             	3.28623314e+02
499             	3.28628517e+02
500             	3.28633663e+02
501             	3.28638778e+02
502             	3.28643876e+02
503             	3.28648916e+02
504             	3.28653926e+02
505             	3.28658919e+02
506             	3.28663856e+02
507             	3.28668762e+02
508             	3.28673653e+02
509             	3.28678487e+02
510             	3.28683293e+02
511             	3.28688082e+02
512             	3.28692817e+02
513             	3.28697523e+02
514             	3.28702214e+02
515             	3.28706851e+02
516             	3.28711460e+02
517             	3.28716055e+02
518             	3.28720597e+02
519             	3.28725113e+02
520             	3.28729615e+02
521             	3.28734066e+02
522             	3.28738490e+02
523             	3.28742902e+02
524             	3.28747262e+02
525             	3.28751597e+02
526             	3.28755920e+02
527             	3.28760193e+02
528             	3.28764440e+02
529             	3.28768676e+02
530             	3.28772863e+02
531             	3.28777027e+02
532             	3.28781180e+02
533             	3.28785283e+02
534             	3.28789364e+02
535             	3.28793434e+02
536             	3.28797456e+02
537             	3.28801455e+02
538             	3.28805444e+02
539             	3.28809384e+02
540             	3.28813303e+02
541             	3.28817211e+02
542             	3.28821072e+02
543             	3.28824911e+02
544             	3.28828742e+02
545             	3.28832526e+02
546             	3.28836288e+02
547             	3.28840044e+02
548             	3.28843753e+02
549             	3.28847441e+02
550             	3.28851122e+02
551             	3.28854757e+02
552             	3.28858372e+02
553             	3.28861979e+02
554             	3.28865540e+02
555             	3.28869082e+02
556             	3.28872617e+02
557             	3.28876106e+02
558             	3.28879575e+02
559             	3.28883039e+02
560             	3.28886457e+02
561             	3.28889857e+02
562             	3.28893251e+02
563             	3.28896600e+02
564             	3.28899931e+02
565             	3.28903258e+02
566             	3.28906540e+02
567             	3.28909805e+02
568             	3.28913064e+02
569             	3.28916280e+02
570             	3.28919478e+02
571             	3.28922671e+02
572             	3.28925821e+02
573             	3.28928955e+02
574             	3.28932084e+02
575             	3.28935170e+02
576             	3.28938240e+02
577             	3.28941306e+02
578             	3.28944330e+02
579             	3.28947337e+02
580             	3.28950342e+02
581             	3.28953304e+02
582             	3.28956251e+02
583             	3.28959195e+02
584             	3.28962098e+02
585             	3.28964986e+02
586             	3.28967871e+02
587             	3.28970715e+02
588             	3.28973544e+02
589             	3.28976371e+02
590             	3.28979157e+02
591             	3.28981929e+02
592             	3.28984699e+02
593             	3.28987429e+02
594             	3.28990145e+02
595             	3.28992861e+02
596             	3.28995536e+02
597             	3.28998199e+02
598             	3.29000861e+02
599             	3.29003484e+02
600             	3.29006094e+02
601             	3.29008704e+02
602             	3.29011275e+02
603             	3.29013834e+02
604             	3.29016393e+02
605             	3.29018914e+02
606             	3.29021422e+02
607             	3.29023931e+02
608             	3.29026401e+02
609             	3.29028859e+02
610             	3.29031318e+02
611             	3.29033739e+02
612             	3.29036149e+02
613             	3.29038560e+02
614             	3.29040934e+02
615             	3.29043297e+02
616             	3.29045661e+02
617             	3.29047988e+02
618             	3.29050304e+02
619             	3.29052623e+02
620             	3.29054905e+02
621             	3.29057176e+02
