# Region        : cellZone component_1
# Cells         : 217
# Volume        : 4.61281683e-01
# Time          	volAverage(T)
1               	3.00253369e+02
2               	3.00503356e+02
3               	3.00729694e+02
4               	3.00939861e+02
5               	3.01143327e+02
6               	3.01342939e+02
7               	3.01539810e+02
8               	3.01734711e+02
9               	3.01928111e+02
10              	3.02120391e+02
11              	3.02308785e+02
12              	3.02488276e+02
13              	3.02662767e+02
14              	3.02831633e+02
15              	3.03005758e+02
16              	3.03176187e+02
17              	3.03341653e+02
18              	3.03501973e+02
19              	3.03659344e+02
20              	3.03814521e+02
21              	3.03968455e+02
22              	3.04118698e+02
23              	3.04265472e+02
24              	3.04405559e+02
25              	3.04540337e+02
26              	3.04671309e+02
27              	3.04799561e+02
28              	3.04926461e+02
29              	3.05050660e+02
30              	3.05175435e+02
31              	3.05297211e+02
32              	3.05414177e+02
33              	3.05521966e+02
34              	3.05612249e+02
35              	3.05695828e+02
36              	3.05784184e+02
37              	3.05875321e+02
38              	3.05969889e+02
39              	3.06067465e+02
40              	3.06170567e+02
41              	3.06275273e+02
42              	3.06374355e+02
43              	3.06477513e+02
44              	3.06583829e+02
45              	3.06682407e+02
46              	3.06776238e+02
47              	3.06863751e+02
48              	3.06937831e+02
49              	3.07002492e+02
50              	3.07072324e+02
51              	3.07148096e+02
52              	3.07226799e+02
53              	3.07308160e+02
54              	3.07390390e+02
55              	3.07468453e+02
56              	3.07553931e+02
57              	3.07636826e+02
58              	3.07716062e+02
59              	3.07788203e+02
60              	3.07859804e+02
61              	3.07918720e+02
62              	3.07969827e+02
63              	3.08022677e+02
64              	3.08076242e+02
65              	3.08135794e+02
66              	3.08201334e+02
67              	3.08262999e+02
68              	3.08336792e+02
69              	3.08404504e+02
70              	3.08465550e+02
71              	3.08523609e+02
72              	3.08574673e+02
73              	3.08615895e+02
74              	3.08650741e+02
75              	3.08684200e+02
76              	3.08723987e+02
77              	3.08767144e+02
78              	3.08814716e+02
79              	3.08864539e+02
80              	3.08919697e+02
81              	3.08977852e+02
82              	3.09032959e+02
83              	3.09096700e+02
84              	3.09156533e+02
85              	3.09209696e+02
86              	3.09261183e+02
87              	3.09307554e+02
88              	3.09352154e+02
89              	3.09392708e+02
90              	3.09429655e+02
91              	3.09462292e+02
92              	3.09490148e+02
93              	3.09518538e+02
94              	3.09547860e+02
95              	3.09576904e+02
96              	3.09607205e+02
97              	3.09639288e+02
98              	3.09673507e+02
99              	3.09710025e+02
100             	3.09748046e+02
101             	3.09793067e+02
102             	3.09840047e+02
103             	3.09880401e+02
104             	3.09928706e+02
105             	3.09976664e+02
106             	3.10020692e+02
107             	3.10060494e+02
108             	3.10099174e+02
109             	3.10134584e+02
110             	3.10161156e+02
111             	3.10182754e+02
112             	3.10202597e+02
113             	3.10224693e+02
114             	3.10249501e+02
115             	3.10276405e+02
116             	3.10311622e+02
117             	3.10343778e+02
118             	3.10379188e+02
119             	3.10416451e+02
120             	3.10451050e+02
121             	3.10484413e+02
122             	3.10515121e+02
123             	3.10543212e+02
124             	3.10568867e+02
125             	3.10588927e+02
126             	3.10604992e+02
127             	3.10617709e+02
128             	3.10628792e+02
129             	3.10638716e+02
130             	3.10645288e+02
131             	3.10657383e+02
132             	3.10673985e+02
133             	3.10694973e+02
134             	3.10720329e+02
135             	3.10749846e+02
136             	3.10782588e+02
137             	3.10814664e+02
138             	3.10846123e+02
139             	3.10879258e+02
140             	3.10909729e+02
141             	3.10938657e+02
142             	3.10963243e+02
143             	3.10987201e+02
144             	3.11010239e+02
145             	3.11027629e+02
146             	3.11035402e+02
147             	3.11038866e+02
148             	3.11038576e+02
149             	3.11045906e+02
150             	3.11058419e+02
151             	3.11074660e+02
152             	3.11094373e+02
153             	3.11115026e+02
154             	3.11132373e+02
155             	3.11154301e+02
156             	3.11176597e+02
157             	3.11196975e+02
158             	3.11216021e+02
159             	3.11233322e+02
160             	3.11248399e+02
161             	3.11261744e+02
162             	3.11274266e+02
163             	3.11285912e+02
164             	3.11296763e+02
165             	3.11306062e+02
166             	3.11312630e+02
167             	3.11320314e+02
168             	3.11328238e+02
169             	3.11338992e+02
170             	3.11352598e+02
171             	3.11367601e+02
172             	3.11383595e+02
173             	3.11400463e+02
174             	3.11416580e+02
175             	3.11433699e+02
176             	3.11450797e+02
177             	3.11465901e+02
178             	3.11478739e+02
179             	3.11489049e+02
180             	3.11497944e+02
181             	3.11506397e+02
182             	3.11514328e+02
183             	3.11527333e+02
184             	3.11540843e+02
185             	3.11554232e+02
186             	3.11566384e+02
187             	3.11581542e+02
188             	3.11591436e+02
189             	3.11603248e+02
190             	3.11614219e+02
191             	3.11622137e+02
192             	3.11628313e+02
193             	3.11634086e+02
194             	3.11639355e+02
195             	3.11647837e+02
196             	3.11656009e+02
197             	3.11664919e+02
198             	3.11674952e+02
199             	3.11686200e+02
200             	3.11692992e+02
201             	3.11702038e+02
202             	3.11708582e+02
203             	3.11711083e+02
204             	3.11710166e+02
205             	3.11704620e+02
206             	3.11702686e+02
207             	3.11704334e+02
208             	3.11708283e+02
209             	3.11714052e+02
210             	3.11723920e+02
211             	3.11735357e+02
212             	3.11747859e+02
213             	3.11759210e+02
214             	3.11772674e+02
215             	3.11782408e+02
216             	3.11788873e+02
217             	3.11791014e+02
218             	3.11792315e+02
219             	3.11792547e+02
220             	3.11793037e+02
221             	3.11795721e+02
222             	3.11801413e+02
223             	3.11810447e+02
224             	3.11821189e+02
225             	3.11829614e+02
226             	3.11843465e+02
227             	3.11856203e+02
228             	3.11865700e+02
229             	3.11872269e+02
230             	3.11876549e+02
231             	3.11878266e+02
232             	3.11879976e+02
233             	3.11882398e+02
234             	3.11885660e+02
235             	3.11889098e+02
236             	3.11895561e+02
237             	3.11901812e+02
238             	3.11908541e+02
239             	3.11915264e+02
240             	3.11920291e+02
241             	3.11926596e+02
242             	3.11932629e+02
243             	3.11936854e+02
244             	3.11939370e+02
245             	3.11939713e+02
246             	3.11940593e+02
247             	3.11942675e+02
248             	3.11944869e+02
249             	3.11947503e+02
250             	3.11951138e+02
251             	3.11955746e+02
252             	3.11960363e+02
253             	3.11965679e+02
254             	3.11969679e+02
255             	3.11972972e+02
256             	3.11975038e+02
257             	3.11975244e+02
258             	3.11973231e+02
259             	3.11970163e+02
260             	3.11967715e+02
261             	3.11967313e+02
262             	3.11968245e+02
263             	3.11970292e+02
264             	3.11972752e+02
265             	3.11977515e+02
266             	3.11984361e+02
267             	3.11992905e+02
268             	3.12001370e+02
269             	3.12009978e+02
270             	3.12015336e+02
271             	3.12023444e+02
272             	3.12030483e+02
273             	3.12035492e+02
274             	3.12037602e+02
275             	3.12037977e+02
276             	3.12037075e+02
277             	3.12035602e+02
278             	3.12033511e+02
279             	3.12030225e+02
280             	3.12028329e+02
281             	3.12027742e+02
282             	3.12028040e+02
283             	3.12029191e+02
284             	3.12031355e+02
285             	3.12034520e+02
286             	3.12038743e+02
287             	3.12044009e+02
288             	3.12049785e+02
289             	3.12056258e+02
290             	3.12063211e+02
291             	3.12069835e+02
292             	3.12076535e+02
293             	3.12082733e+02
294             	3.12088353e+02
295             	3.12093273e+02
296             	3.12097317e+02
297             	3.12100229e+02
298             	3.12101868e+02
299             	3.12102533e+02
300             	3.12101758e+02
301             	3.12102433e+02
302             	3.12104475e+02
303             	3.12106665e+02
304             	3.12108894e+02
305             	3.12111245e+02
306             	3.12113226e+02
307             	3.12115148e+02
308             	3.12117018e+02
309             	3.12117391e+02
310             	3.12117418e+02
311             	3.12116538e+02
312             	3.12115191e+02
313             	3.12113865e+02
314             	3.12112145e+02
315             	3.12111847e+02
316             	3.12113629e+02
317             	3.12115191e+02
318             	3.12118811e+02
319             	3.12122876e+02
320             	3.12126127e+02
321             	3.12130146e+02
322             	3.12133569e+02
323             	3.12135378e+02
324             	3.12136128e+02
325             	3.12135959e+02
326             	3.12134886e+02
327             	3.12133552e+02
328             	3.12133998e+02
329             	3.12135241e+02
330             	3.12136655e+02
331             	3.12138499e+02
332             	3.12140911e+02
333             	3.12139668e+02
334             	3.12139917e+02
335             	3.12138853e+02
336             	3.12136159e+02
337             	3.12132835e+02
338             	3.12130734e+02
339             	3.12129391e+02
340             	3.12128532e+02
341             	3.12128677e+02
342             	3.12130099e+02
343             	3.12132502e+02
344             	3.12135795e+02
345             	3.12139867e+02
346             	3.12144215e+02
347             	3.12147928e+02
348             	3.12150888e+02
349             	3.12152652e+02
350             	3.12153700e+02
351             	3.12153962e+02
352             	3.12153127e+02
353             	3.12150564e+02
354             	3.12148373e+02
355             	3.12146922e+02
356             	3.12146026e+02
357             	3.12145821e+02
358             	3.12146471e+02
359             	3.12147970e+02
360             	3.12150862e+02
361             	3.12154222e+02
362             	3.12155911e+02
363             	3.12158120e+02
364             	3.12159714e+02
365             	3.12160375e+02
366             	3.12159741e+02
367             	3.12157931e+02
368             	3.12156098e+02
369             	3.12155763e+02
370             	3.12156629e+02
371             	3.12158292e+02
372             	3.12159249e+02
373             	3.12160552e+02
374             	3.12161675e+02
375             	3.12163090e+02
376             	3.12164774e+02
377             	3.12164149e+02
378             	3.12164712e+02
379             	3.12164696e+02
380             	3.12164260e+02
381             	3.12163105e+02
382             	3.12161308e+02
383             	3.12159198e+02
384             	3.12156749e+02
385             	3.12155224e+02
386             	3.12154391e+02
387             	3.12153582e+02
388             	3.12152700e+02
389             	3.12152050e+02
390             	3.12151959e+02
391             	3.12152343e+02
392             	3.12153729e+02
393             	3.12155377e+02
394             	3.12155689e+02
395             	3.12155510e+02
396             	3.12154265e+02
397             	3.12151367e+02
398             	3.12147198e+02
399             	3.12142632e+02
400             	3.12140873e+02
401             	3.12140349e+02
402             	3.12141729e+02
403             	3.12144126e+02
404             	3.12147747e+02
405             	3.12152586e+02
406             	3.12156985e+02
407             	3.12160822e+02
408             	3.12161591e+02
409             	3.12163671e+02
410             	3.12164472e+02
411             	3.12162932e+02
412             	3.12160347e+02
413             	3.12158533e+02
414             	3.12157312e+02
415             	3.12156477e+02
416             	3.12156076e+02
417             	3.12156142e+02
418             	3.12155935e+02
419             	3.12157785e+02
420             	3.12160384e+02
421             	3.12164930e+02
422             	3.12168642e+02
423             	3.12173192e+02
424             	3.12176274e+02
425             	3.12179225e+02
426             	3.12181726e+02
427             	3.12183336e+02
428             	3.12183627e+02
429             	3.12183370e+02
430             	3.12181493e+02
431             	3.12177346e+02
432             	3.12172529e+02
433             	3.12167854e+02
434             	3.12166409e+02
435             	3.12165776e+02
436             	3.12166498e+02
437             	3.12168567e+02
438             	3.12171689e+02
439             	3.12174612e+02
440             	3.12177493e+02
441             	3.12179527e+02
442             	3.12180859e+02
443             	3.12181205e+02
444             	3.12181907e+02
445             	3.12182618e+02
446             	3.12182925e+02
447             	3.12182979e+02
448             	3.12182909e+02
449             	3.12182592e+02
450             	3.12182148e+02
451             	3.12182252e+02
452             	3.12182195e+02
453             	3.12183106e+02
454             	3.12184406e+02
455             	3.12186347e+02
456             	3.12189122e+02
457             	3.12191887e+02
458             	3.12194508e+02
459             	3.12196682e+02
460             	3.12196100e+02
461             	3.12196534e+02
462             	3.12195392e+02
463             	3.12192008e+02
464             	3.12187370e+02
465             	3.12182672e+02
466             	3.12178109e+02
467             	3.12172133e+02
468             	3.12169950e+02
469             	3.12170578e+02
470             	3.12172461e+02
471             	3.12175662e+02
472             	3.12179209e+02
473             	3.12180101e+02
474             	3.12183362e+02
475             	3.12185271e+02
476             	3.12186009e+02
477             	3.12185356e+02
478             	3.12183823e+02
479             	3.12181560e+02
480             	3.12179765e+02
481             	3.12179876e+02
482             	3.12180739e+02
483             	3.12182021e+02
484             	3.12183607e+02
485             	3.12185320e+02
486             	3.12187564e+02
487             	3.12189491e+02
488             	3.12189448e+02
489             	3.12190132e+02
490             	3.12189844e+02
491             	3.12186685e+02
492             	3.12182503e+02
493             	3.12177078e+02
494             	3.12171215e+02
495             	3.12169423e+02
496             	3.12170346e+02
497             	3.12173450e+02
498             	3.12177983e+02
499             	3.12183211e+02
500             	3.12188763e+02
501             	3.12191195e+02
502             	3.12193406e+02
503             	3.12194540e+02
504             	3.12194063e+02
505             	3.12192679e+02
506             	3.12191426e+02
507             	3.12189929e+02
508             	3.12188002e+02
509             	3.12186047e+02
510             	3.12184778e+02
511             	3.12183977e+02
512             	3.12183529e+02
513             	3.12183804e+02
514             	3.12184771e+02
515             	3.12186083e+02
516             	3.12187677e+02
517             	3.12189363e+02
518             	3.12190460e+02
519             	3.12191651e+02
520             	3.12192644e+02
521             	3.12193636e+02
522             	3.12194302e+02
523             	3.12194949e+02
524             	3.12195136e+02
525             	3.12195046e+02
526             	3.12194494e+02
527             	3.12193218e+02
528             	3.12191388e+02
529             	3.12188902e+02
530             	3.12186582e+02
531             	3.12184026e+02
532             	3.12182363e+02
533             	3.12181449e+02
534             	3.12181031e+02
535             	3.12181127e+02
536             	3.12181638e+02
537             	3.12182308e+02
538             	3.12183170e+02
539             	3.12184257e+02
540             	3.12185471e+02
541             	3.12186730e+02
542             	3.12187773e+02
543             	3.12188470e+02
544             	3.12188717e+02
545             	3.12188551e+02
546             	3.12188818e+02
547             	3.12189349e+02
548             	3.12190030e+02
549             	3.12191101e+02
550             	3.12192249e+02
551             	3.12193654e+02
552             	3.12195030e+02
553             	3.12196179e+02
554             	3.12196910e+02
555             	3.12197423e+02
556             	3.12197634e+02
557             	3.12197374e+02
558             	3.12196699e+02
559             	3.12195399e+02
560             	3.12194052e+02
561             	3.12193015e+02
562             	3.12192581e+02
563             	3.12192521e+02
564             	3.12192692e+02
565             	3.12192810e+02
566             	3.12192442e+02
567             	3.12191822e+02
568             	3.12191013e+02
569             	3.12190106e+02
570             	3.12188912e+02
571             	3.12187570e+02
572             	3.12186067e+02
573             	3.12184672e+02
574             	3.12183446e+02
575             	3.12182601e+02
576             	3.12182250e+02
577             	3.12182717e+02
578             	3.12183697e+02
579             	3.12185176e+02
580             	3.12186895e+02
581             	3.12188858e+02
582             	3.12191125e+02
583             	3.12193569e+02
584             	3.12196063e+02
585             	3.12198447e+02
586             	3.12200629e+02
587             	3.12202494e+02
588             	3.12204079e+02
589             	3.12205154e+02
590             	3.12205889e+02
591             	3.12205979e+02
592             	3.12205656e+02
593             	3.12205039e+02
594             	3.12204002e+02
595             	3.12202581e+02
596             	3.12201050e+02
597             	3.12199532e+02
598             	3.12198551e+02
599             	3.12198211e+02
600             	3.12198348e+02
601             	3.12198749e+02
602             	3.12199629e+02
603             	3.12200882e+02
604             	3.12202208e+02
605             	3.12203910e+02
606             	3.12205402e+02
607             	3.12206979e+02
608             	3.12208012e+02
609             	3.12208782e+02
610             	3.12208876e+02
611             	3.12209003e+02
612             	3.12208635e+02
613             	3.12207840e+02
614             	3.12206239e+02
615             	3.12204869e+02
616             	3.12203640e+02
617             	3.12202483e+02
618             	3.12201356e+02
619             	3.12201128e+02
620             	3.12201673e+02
621             	3.12202623e+02
