# Region        : cellZone component_4
# Cells         : 172
# Volume        : 3.42780708e-01
# Time          	volAverage(T)
1               	3.01899752e+02
2               	3.03763552e+02
3               	3.05379515e+02
4               	3.06818828e+02
5               	3.08178585e+02
6               	3.09493320e+02
7               	3.10765809e+02
8               	3.11999943e+02
9               	3.13196678e+02
10              	3.14364777e+02
11              	3.15520450e+02
12              	3.16631158e+02
13              	3.17708243e+02
14              	3.18747321e+02
15              	3.19757188e+02
16              	3.20756663e+02
17              	3.21731500e+02
18              	3.22687914e+02
19              	3.23628743e+02
20              	3.24562467e+02
21              	3.25481457e+02
22              	3.26330179e+02
23              	3.27141017e+02
24              	3.27850153e+02
25              	3.28521800e+02
26              	3.29245504e+02
27              	3.29989470e+02
28              	3.30716490e+02
29              	3.31414842e+02
30              	3.32090506e+02
31              	3.32744772e+02
32              	3.33378682e+02
33              	3.33992335e+02
34              	3.34589271e+02
35              	3.35185509e+02
36              	3.35785281e+02
37              	3.36401722e+02
38              	3.36984273e+02
39              	3.37546390e+02
40              	3.38035244e+02
41              	3.38466371e+02
42              	3.38853809e+02
43              	3.39168925e+02
44              	3.39489174e+02
45              	3.39862377e+02
46              	3.40223238e+02
47              	3.40555891e+02
48              	3.40864032e+02
49              	3.41159785e+02
50              	3.41444801e+02
51              	3.41724129e+02
52              	3.42003506e+02
53              	3.42283518e+02
54              	3.42567423e+02
55              	3.42857493e+02
56              	3.43165137e+02
57              	3.43472616e+02
58              	3.43754167e+02
59              	3.44002788e+02
60              	3.44230641e+02
61              	3.44383586e+02
62              	3.44453476e+02
63              	3.44536391e+02
64              	3.44622150e+02
65              	3.44684526e+02
66              	3.44724251e+02
67              	3.44747038e+02
68              	3.44782882e+02
69              	3.44816699e+02
70              	3.44855737e+02
71              	3.44917926e+02
72              	3.45007896e+02
73              	3.45130031e+02
74              	3.45249841e+02
75              	3.45359675e+02
76              	3.45426006e+02
77              	3.45474052e+02
78              	3.45493584e+02
79              	3.45503301e+02
80              	3.45504830e+02
81              	3.45493445e+02
82              	3.45479595e+02
83              	3.45467470e+02
84              	3.45455883e+02
85              	3.45445085e+02
86              	3.45441522e+02
87              	3.45458711e+02
88              	3.45489227e+02
89              	3.45537617e+02
90              	3.45594499e+02
91              	3.45621108e+02
92              	3.45647381e+02
93              	3.45631283e+02
94              	3.45637344e+02
95              	3.45645042e+02
96              	3.45637987e+02
97              	3.45618108e+02
98              	3.45589747e+02
99              	3.45561544e+02
100             	3.45540354e+02
101             	3.45531270e+02
102             	3.45536760e+02
103             	3.45555509e+02
104             	3.45587489e+02
105             	3.45637466e+02
106             	3.45711911e+02
107             	3.45789178e+02
108             	3.45834863e+02
109             	3.45872842e+02
110             	3.45898354e+02
111             	3.45880555e+02
112             	3.45874601e+02
113             	3.45857975e+02
114             	3.45812318e+02
115             	3.45748053e+02
116             	3.45680251e+02
117             	3.45635343e+02
118             	3.45624195e+02
119             	3.45639858e+02
120             	3.45685201e+02
121             	3.45742678e+02
122             	3.45800179e+02
123             	3.45831289e+02
124             	3.45850828e+02
125             	3.45855422e+02
126             	3.45840034e+02
127             	3.45803921e+02
128             	3.45760949e+02
129             	3.45715736e+02
130             	3.45673725e+02
131             	3.45636686e+02
132             	3.45607506e+02
133             	3.45598628e+02
134             	3.45605923e+02
135             	3.45639242e+02
136             	3.45692006e+02
137             	3.45763758e+02
138             	3.45837768e+02
139             	3.45903966e+02
140             	3.45962499e+02
141             	3.46010688e+02
142             	3.46051212e+02
143             	3.46082869e+02
144             	3.46109598e+02
145             	3.46134844e+02
146             	3.46167934e+02
147             	3.46206422e+02
148             	3.46242324e+02
149             	3.46280047e+02
150             	3.46320297e+02
151             	3.46363215e+02
152             	3.46405615e+02
153             	3.46441768e+02
154             	3.46467346e+02
155             	3.46486555e+02
156             	3.46496914e+02
157             	3.46507927e+02
158             	3.46530315e+02
159             	3.46565364e+02
160             	3.46609190e+02
161             	3.46657688e+02
162             	3.46703607e+02
163             	3.46741005e+02
164             	3.46768366e+02
165             	3.46783023e+02
166             	3.46786413e+02
167             	3.46775869e+02
168             	3.46759055e+02
169             	3.46740131e+02
170             	3.46723801e+02
171             	3.46712485e+02
172             	3.46706677e+02
173             	3.46705626e+02
174             	3.46707184e+02
175             	3.46713310e+02
176             	3.46723117e+02
177             	3.46737986e+02
178             	3.46754588e+02
179             	3.46778690e+02
180             	3.46806186e+02
181             	3.46832382e+02
182             	3.46859292e+02
183             	3.46885559e+02
184             	3.46912632e+02
185             	3.46939435e+02
186             	3.46960919e+02
187             	3.46972290e+02
188             	3.46968040e+02
189             	3.46950467e+02
190             	3.46925760e+02
191             	3.46898275e+02
192             	3.46872184e+02
193             	3.46849736e+02
194             	3.46841227e+02
195             	3.46849407e+02
196             	3.46873293e+02
197             	3.46909437e+02
198             	3.46953434e+02
199             	3.46998383e+02
200             	3.47041048e+02
201             	3.47074059e+02
202             	3.47103550e+02
203             	3.47126110e+02
204             	3.47142634e+02
205             	3.47151036e+02
206             	3.47147212e+02
207             	3.47135009e+02
208             	3.47116715e+02
209             	3.47098484e+02
210             	3.47082041e+02
211             	3.47070853e+02
212             	3.47065494e+02
213             	3.47064016e+02
214             	3.47066614e+02
215             	3.47071291e+02
216             	3.47082668e+02
217             	3.47094332e+02
218             	3.47111598e+02
219             	3.47124353e+02
220             	3.47137601e+02
221             	3.47153178e+02
222             	3.47170775e+02
223             	3.47186494e+02
224             	3.47193164e+02
225             	3.47188381e+02
226             	3.47170546e+02
227             	3.47142653e+02
228             	3.47110815e+02
229             	3.47079082e+02
230             	3.47053367e+02
231             	3.47039501e+02
232             	3.47038188e+02
233             	3.47047629e+02
234             	3.47063913e+02
235             	3.47086158e+02
236             	3.47110136e+02
237             	3.47134372e+02
238             	3.47157937e+02
239             	3.47182437e+02
240             	3.47208183e+02
241             	3.47235138e+02
242             	3.47260757e+02
243             	3.47284954e+02
244             	3.47306038e+02
245             	3.47325541e+02
246             	3.47339565e+02
247             	3.47348577e+02
248             	3.47353496e+02
249             	3.47352882e+02
250             	3.47349212e+02
251             	3.47346152e+02
252             	3.47347455e+02
253             	3.47353299e+02
254             	3.47362217e+02
255             	3.47371957e+02
256             	3.47383288e+02
257             	3.47396536e+02
258             	3.47410035e+02
259             	3.47422994e+02
260             	3.47438302e+02
261             	3.47454257e+02
262             	3.47467422e+02
263             	3.47480616e+02
264             	3.47493196e+02
265             	3.47503127e+02
266             	3.47509746e+02
267             	3.47514335e+02
268             	3.47518720e+02
269             	3.47523320e+02
270             	3.47528636e+02
271             	3.47535257e+02
272             	3.47542789e+02
273             	3.47549110e+02
274             	3.47553605e+02
275             	3.47557231e+02
276             	3.47561681e+02
277             	3.47562172e+02
278             	3.47563324e+02
279             	3.47565615e+02
280             	3.47569429e+02
281             	3.47574521e+02
282             	3.47581536e+02
283             	3.47590998e+02
284             	3.47601555e+02
285             	3.47612536e+02
286             	3.47622995e+02
287             	3.47638839e+02
288             	3.47658140e+02
289             	3.47679381e+02
290             	3.47700308e+02
291             	3.47719461e+02
292             	3.47735413e+02
293             	3.47746765e+02
294             	3.47753094e+02
295             	3.47755184e+02
296             	3.47755680e+02
297             	3.47753733e+02
298             	3.47748831e+02
299             	3.47740853e+02
300             	3.47729966e+02
301             	3.47717757e+02
302             	3.47705370e+02
303             	3.47695665e+02
304             	3.47693226e+02
305             	3.47697708e+02
306             	3.47708494e+02
307             	3.47724554e+02
308             	3.47740371e+02
309             	3.47754820e+02
310             	3.47762343e+02
311             	3.47765879e+02
312             	3.47761663e+02
313             	3.47749343e+02
314             	3.47731258e+02
315             	3.47710407e+02
316             	3.47688905e+02
317             	3.47669810e+02
318             	3.47654719e+02
319             	3.47643169e+02
320             	3.47640415e+02
321             	3.47645281e+02
322             	3.47653835e+02
323             	3.47662251e+02
324             	3.47672395e+02
325             	3.47681598e+02
326             	3.47683701e+02
327             	3.47682792e+02
328             	3.47678020e+02
329             	3.47670392e+02
330             	3.47661773e+02
331             	3.47653789e+02
332             	3.47642793e+02
333             	3.47632867e+02
334             	3.47623822e+02
335             	3.47615352e+02
336             	3.47608228e+02
337             	3.47606956e+02
338             	3.47611987e+02
339             	3.47622368e+02
340             	3.47636020e+02
341             	3.47650189e+02
342             	3.47661915e+02
343             	3.47669534e+02
344             	3.47673177e+02
345             	3.47673572e+02
346             	3.47672824e+02
347             	3.47671584e+02
348             	3.47669762e+02
349             	3.47667022e+02
350             	3.47664300e+02
351             	3.47661589e+02
352             	3.47658758e+02
353             	3.47655269e+02
354             	3.47650748e+02
355             	3.47645520e+02
356             	3.47640287e+02
357             	3.47635754e+02
358             	3.47633478e+02
359             	3.47632928e+02
360             	3.47633647e+02
361             	3.47634576e+02
362             	3.47634742e+02
363             	3.47635233e+02
364             	3.47636854e+02
365             	3.47638442e+02
366             	3.47640441e+02
367             	3.47642777e+02
368             	3.47643128e+02
369             	3.47640210e+02
370             	3.47634711e+02
371             	3.47627184e+02
372             	3.47617229e+02
373             	3.47606734e+02
374             	3.47597631e+02
375             	3.47591330e+02
376             	3.47587403e+02
377             	3.47584925e+02
378             	3.47583260e+02
379             	3.47582220e+02
380             	3.47580252e+02
381             	3.47577342e+02
382             	3.47573665e+02
383             	3.47569469e+02
384             	3.47565670e+02
385             	3.47562718e+02
386             	3.47561569e+02
387             	3.47561545e+02
388             	3.47561929e+02
389             	3.47562472e+02
390             	3.47562688e+02
391             	3.47562257e+02
392             	3.47560868e+02
393             	3.47558469e+02
394             	3.47555161e+02
395             	3.47551201e+02
396             	3.47547602e+02
397             	3.47544395e+02
398             	3.47541674e+02
399             	3.47538387e+02
400             	3.47534178e+02
401             	3.47530113e+02
402             	3.47526325e+02
403             	3.47522522e+02
404             	3.47518908e+02
405             	3.47515450e+02
406             	3.47512081e+02
407             	3.47508972e+02
408             	3.47506332e+02
409             	3.47504778e+02
410             	3.47503848e+02
411             	3.47504176e+02
412             	3.47505230e+02
413             	3.47506172e+02
414             	3.47507885e+02
415             	3.47509465e+02
416             	3.47510843e+02
417             	3.47511809e+02
418             	3.47512154e+02
419             	3.47511963e+02
420             	3.47511384e+02
421             	3.47510605e+02
422             	3.47509737e+02
423             	3.47508987e+02
424             	3.47507996e+02
425             	3.47507038e+02
426             	3.47506051e+02
427             	3.47504938e+02
428             	3.47504004e+02
429             	3.47503416e+02
430             	3.47503340e+02
431             	3.47503928e+02
432             	3.47505002e+02
433             	3.47505982e+02
434             	3.47507033e+02
435             	3.47507836e+02
436             	3.47508577e+02
437             	3.47509409e+02
438             	3.47510517e+02
439             	3.47511993e+02
440             	3.47513656e+02
441             	3.47515498e+02
442             	3.47517288e+02
443             	3.47518915e+02
444             	3.47520385e+02
445             	3.47521256e+02
446             	3.47521767e+02
447             	3.47522266e+02
448             	3.47522969e+02
449             	3.47523826e+02
450             	3.47524944e+02
451             	3.47526195e+02
452             	3.47527587e+02
453             	3.47528529e+02
454             	3.47528938e+02
455             	3.47528869e+02
456             	3.47528328e+02
457             	3.47527552e+02
458             	3.47526751e+02
459             	3.47526101e+02
460             	3.47526094e+02
461             	3.47526708e+02
462             	3.47528053e+02
463             	3.47530054e+02
464             	3.47532736e+02
465             	3.47535376e+02
466             	3.47537330e+02
467             	3.47538839e+02
468             	3.47539761e+02
469             	3.47539988e+02
470             	3.47539972e+02
471             	3.47539967e+02
472             	3.47540151e+02
473             	3.47540645e+02
474             	3.47541276e+02
475             	3.47541984e+02
476             	3.47542482e+02
477             	3.47542748e+02
478             	3.47542584e+02
479             	3.47541904e+02
480             	3.47540659e+02
481             	3.47538922e+02
482             	3.47536893e+02
483             	3.47534704e+02
484             	3.47532490e+02
485             	3.47530312e+02
486             	3.47528234e+02
487             	3.47526254e+02
488             	3.47524342e+02
489             	3.47522505e+02
490             	3.47520741e+02
491             	3.47519096e+02
492             	3.47517606e+02
493             	3.47516372e+02
494             	3.47515321e+02
495             	3.47514450e+02
496             	3.47513598e+02
497             	3.47512964e+02
498             	3.47512492e+02
499             	3.47512260e+02
500             	3.47512239e+02
501             	3.47512102e+02
502             	3.47511972e+02
503             	3.47511680e+02
504             	3.47510866e+02
505             	3.47509812e+02
506             	3.47508532e+02
507             	3.47507382e+02
508             	3.47506515e+02
509             	3.47505987e+02
510             	3.47505839e+02
511             	3.47506048e+02
512             	3.47506385e+02
513             	3.47506731e+02
514             	3.47506899e+02
515             	3.47506772e+02
516             	3.47506323e+02
517             	3.47505694e+02
518             	3.47505090e+02
519             	3.47504488e+02
520             	3.47503995e+02
521             	3.47503539e+02
522             	3.47503109e+02
523             	3.47502584e+02
524             	3.47501993e+02
525             	3.47501387e+02
526             	3.47500762e+02
527             	3.47499999e+02
528             	3.47499290e+02
529             	3.47498583e+02
530             	3.47497929e+02
531             	3.47497351e+02
532             	3.47496874e+02
533             	3.47496448e+02
534             	3.47496176e+02
535             	3.47496036e+02
536             	3.47496033e+02
537             	3.47496251e+02
538             	3.47496618e+02
539             	3.47497163e+02
540             	3.47497763e+02
541             	3.47498351e+02
542             	3.47498863e+02
543             	3.47499245e+02
544             	3.47499467e+02
545             	3.47499535e+02
546             	3.47499467e+02
547             	3.47499390e+02
548             	3.47499284e+02
549             	3.47499201e+02
550             	3.47499150e+02
551             	3.47499097e+02
552             	3.47499038e+02
553             	3.47499035e+02
554             	3.47499067e+02
555             	3.47499127e+02
556             	3.47499159e+02
557             	3.47499173e+02
558             	3.47499171e+02
559             	3.47499172e+02
560             	3.47499133e+02
561             	3.47499123e+02
562             	3.47499171e+02
563             	3.47499268e+02
564             	3.47499420e+02
565             	3.47499618e+02
566             	3.47499871e+02
567             	3.47500051e+02
568             	3.47500145e+02
569             	3.47500134e+02
570             	3.47500000e+02
571             	3.47499881e+02
572             	3.47499750e+02
573             	3.47499726e+02
574             	3.47499730e+02
575             	3.47499754e+02
576             	3.47499743e+02
577             	3.47499670e+02
578             	3.47499515e+02
579             	3.47499295e+02
580             	3.47499019e+02
581             	3.47498694e+02
582             	3.47498388e+02
583             	3.47498145e+02
584             	3.47497989e+02
585             	3.47497787e+02
586             	3.47497611e+02
587             	3.47497406e+02
588             	3.47497200e+02
589             	3.47497006e+02
590             	3.47496849e+02
591             	3.47496735e+02
592             	3.47496663e+02
593             	3.47496642e+02
594             	3.47496689e+02
595             	3.47496754e+02
596             	3.47496845e+02
597             	3.47497030e+02
598             	3.47497237e+02
599             	3.47497482e+02
600             	3.47497722e+02
601             	3.47497932e+02
602             	3.47498135e+02
603             	3.47498313e+02
604             	3.47498432e+02
605             	3.47498467e+02
606             	3.47498346e+02
607             	3.47498121e+02
608             	3.47497804e+02
609             	3.47497433e+02
610             	3.47497067e+02
611             	3.47496754e+02
612             	3.47496529e+02
613             	3.47496409e+02
614             	3.47496385e+02
615             	3.47496458e+02
616             	3.47496561e+02
617             	3.47496655e+02
618             	3.47496710e+02
619             	3.47496687e+02
620             	3.47496623e+02
621             	3.47496520e+02
