# Region        : cellZone component_1
# Cells         : 144
# Volume        : 2.85843371e-01
# Time          	volAverage(T)
1               	3.01567250e+02
2               	3.03089574e+02
3               	3.04239545e+02
4               	3.05129734e+02
5               	3.06018271e+02
6               	3.06982353e+02
7               	3.07939239e+02
8               	3.08800069e+02
9               	3.09593658e+02
10              	3.10385500e+02
11              	3.11153372e+02
12              	3.11874942e+02
13              	3.12539138e+02
14              	3.13184684e+02
15              	3.13817658e+02
16              	3.14402969e+02
17              	3.14907959e+02
18              	3.15385273e+02
19              	3.15857948e+02
20              	3.16247797e+02
21              	3.16631973e+02
22              	3.17152604e+02
23              	3.17611198e+02
24              	3.17949881e+02
25              	3.18210487e+02
26              	3.18489264e+02
27              	3.18792375e+02
28              	3.19097471e+02
29              	3.19389660e+02
30              	3.19659445e+02
31              	3.19904083e+02
32              	3.20149190e+02
33              	3.20396041e+02
34              	3.20654183e+02
35              	3.20937996e+02
36              	3.21248447e+02
37              	3.21494093e+02
38              	3.21612529e+02
39              	3.21706827e+02
40              	3.21881035e+02
41              	3.22091165e+02
42              	3.22201755e+02
43              	3.22292542e+02
44              	3.22400841e+02
45              	3.22550943e+02
46              	3.22740460e+02
47              	3.22926920e+02
48              	3.23083408e+02
49              	3.23224614e+02
50              	3.23380864e+02
51              	3.23556638e+02
52              	3.23715884e+02
53              	3.23847001e+02
54              	3.23980620e+02
55              	3.24095520e+02
56              	3.24211976e+02
57              	3.24324848e+02
58              	3.24429618e+02
59              	3.24530681e+02
60              	3.24630273e+02
61              	3.24737880e+02
62              	3.24845912e+02
63              	3.24947634e+02
64              	3.25047131e+02
65              	3.25158854e+02
66              	3.25270430e+02
67              	3.25382993e+02
68              	3.25485450e+02
69              	3.25567305e+02
70              	3.25655349e+02
71              	3.25748113e+02
72              	3.25833586e+02
73              	3.25920063e+02
74              	3.26006953e+02
75              	3.26092331e+02
76              	3.26171765e+02
77              	3.26239061e+02
78              	3.26296048e+02
79              	3.26345191e+02
80              	3.26389820e+02
81              	3.26435645e+02
82              	3.26477016e+02
83              	3.26559683e+02
84              	3.26674026e+02
85              	3.26804893e+02
86              	3.26945937e+02
87              	3.27101109e+02
88              	3.27263462e+02
89              	3.27433469e+02
90              	3.27597206e+02
91              	3.27724406e+02
92              	3.27824666e+02
93              	3.27888663e+02
94              	3.27922037e+02
95              	3.27961261e+02
96              	3.27960182e+02
97              	3.27905621e+02
98              	3.27863880e+02
99              	3.27820489e+02
100             	3.27754208e+02
101             	3.27648073e+02
102             	3.27524615e+02
103             	3.27420560e+02
104             	3.27324430e+02
105             	3.27224942e+02
106             	3.27098158e+02
107             	3.26970257e+02
108             	3.26867593e+02
109             	3.26799190e+02
110             	3.26737198e+02
111             	3.26663928e+02
112             	3.26585982e+02
113             	3.26531613e+02
114             	3.26499900e+02
115             	3.26448746e+02
116             	3.26347741e+02
117             	3.26266282e+02
118             	3.26249626e+02
119             	3.26254289e+02
120             	3.26214653e+02
121             	3.26135937e+02
122             	3.26096243e+02
123             	3.26122480e+02
124             	3.26139844e+02
125             	3.26074709e+02
126             	3.25978883e+02
127             	3.25964229e+02
128             	3.26026744e+02
129             	3.26039283e+02
130             	3.25948016e+02
131             	3.25867121e+02
132             	3.25920939e+02
133             	3.26037994e+02
134             	3.26043673e+02
135             	3.25936076e+02
136             	3.25897637e+02
137             	3.26017840e+02
138             	3.26137487e+02
139             	3.26080519e+02
140             	3.25936468e+02
141             	3.25942390e+02
142             	3.26122331e+02
143             	3.26229921e+02
144             	3.26121047e+02
145             	3.25991198e+02
146             	3.26087016e+02
147             	3.26317872e+02
148             	3.26388934e+02
149             	3.26237401e+02
150             	3.26152136e+02
151             	3.26339457e+02
152             	3.26584392e+02
153             	3.26582955e+02
154             	3.26400018e+02
155             	3.26385307e+02
156             	3.26621866e+02
157             	3.26815958e+02
158             	3.26726431e+02
159             	3.26541459e+02
160             	3.26583477e+02
161             	3.26825341e+02
162             	3.26924047e+02
163             	3.26732874e+02
164             	3.26551064e+02
165             	3.26668792e+02
166             	3.26927830e+02
167             	3.26929924e+02
168             	3.26680552e+02
169             	3.26573163e+02
170             	3.26807041e+02
171             	3.27066905e+02
172             	3.26963405e+02
173             	3.26669334e+02
174             	3.26649588e+02
175             	3.26970889e+02
176             	3.27165341e+02
177             	3.26935467e+02
178             	3.26634510e+02
179             	3.26738661e+02
180             	3.27122378e+02
181             	3.27211492e+02
182             	3.26876794e+02
183             	3.26642048e+02
184             	3.26898144e+02
185             	3.27297008e+02
186             	3.27235196e+02
187             	3.26801413e+02
188             	3.26660754e+02
189             	3.27060438e+02
190             	3.27418197e+02
191             	3.27169677e+02
192             	3.26704617e+02
193             	3.26738816e+02
194             	3.27268341e+02
195             	3.27507172e+02
196             	3.27107938e+02
197             	3.26706020e+02
198             	3.26940941e+02
199             	3.27497871e+02
200             	3.27538424e+02
201             	3.27004369e+02
202             	3.26699874e+02
203             	3.27109132e+02
204             	3.27630887e+02
205             	3.27448279e+02
206             	3.26832582e+02
207             	3.26716867e+02
208             	3.27320572e+02
209             	3.27743633e+02
210             	3.27306448e+02
211             	3.26665210e+02
212             	3.26803237e+02
213             	3.27567263e+02
214             	3.27789558e+02
215             	3.27092320e+02
216             	3.26542853e+02
217             	3.27020186e+02
218             	3.27873628e+02
219             	3.27783807e+02
220             	3.26902212e+02
221             	3.26582147e+02
222             	3.27376194e+02
223             	3.28129220e+02
224             	3.27650691e+02
225             	3.26692134e+02
226             	3.26696785e+02
227             	3.27736104e+02
228             	3.28241110e+02
229             	3.27410038e+02
230             	3.26553562e+02
231             	3.26953022e+02
232             	3.28064130e+02
233             	3.28158864e+02
234             	3.27083237e+02
235             	3.26474171e+02
236             	3.27316133e+02
237             	3.28420023e+02
238             	3.28035980e+02
239             	3.26828822e+02
240             	3.26572437e+02
241             	3.27699067e+02
242             	3.28546038e+02
243             	3.27789328e+02
244             	3.26705938e+02
245             	3.26866270e+02
246             	3.28024373e+02
247             	3.28428664e+02
248             	3.27478228e+02
249             	3.26664967e+02
250             	3.27206032e+02
251             	3.28314381e+02
252             	3.28239820e+02
253             	3.27089266e+02
254             	3.26593769e+02
255             	3.27549218e+02
256             	3.28562075e+02
257             	3.28026081e+02
258             	3.26886528e+02
259             	3.26799541e+02
260             	3.27925011e+02
261             	3.28602189e+02
262             	3.27773394e+02
263             	3.26786696e+02
264             	3.27077620e+02
265             	3.28200029e+02
266             	3.28404117e+02
267             	3.27354547e+02
268             	3.26665728e+02
269             	3.27412534e+02
270             	3.28539977e+02
271             	3.28259099e+02
272             	3.27052486e+02
273             	3.26704075e+02
274             	3.27786012e+02
275             	3.28684205e+02
276             	3.27959364e+02
277             	3.26832772e+02
278             	3.26913577e+02
279             	3.28084587e+02
280             	3.28583406e+02
281             	3.27647763e+02
282             	3.26781641e+02
283             	3.27276881e+02
284             	3.28412143e+02
285             	3.28403096e+02
286             	3.27255092e+02
287             	3.26703978e+02
288             	3.27641405e+02
289             	3.28702321e+02
290             	3.28194693e+02
291             	3.27015985e+02
292             	3.26883609e+02
293             	3.28030411e+02
294             	3.28760846e+02
295             	3.27983810e+02
296             	3.26998276e+02
297             	3.27238563e+02
298             	3.28361725e+02
299             	3.28643505e+02
300             	3.27669944e+02
301             	3.26936054e+02
302             	3.27550855e+02
303             	3.28644518e+02
304             	3.28490486e+02
305             	3.27330694e+02
306             	3.26910263e+02
307             	3.27920224e+02
308             	3.28868983e+02
309             	3.28232137e+02
310             	3.27081561e+02
311             	3.27067001e+02
312             	3.28203151e+02
313             	3.28773468e+02
314             	3.27883250e+02
315             	3.26948862e+02
316             	3.27327655e+02
317             	3.28458835e+02
318             	3.28564186e+02
319             	3.27459787e+02
320             	3.26822013e+02
321             	3.27669508e+02
322             	3.28778950e+02
323             	3.28367832e+02
324             	3.27132593e+02
325             	3.26856413e+02
326             	3.27964634e+02
327             	3.28800017e+02
328             	3.28044201e+02
329             	3.26961408e+02
330             	3.27102704e+02
331             	3.28246969e+02
332             	3.28659580e+02
333             	3.27731127e+02
334             	3.26933789e+02
335             	3.27475327e+02
336             	3.28589683e+02
337             	3.28543840e+02
338             	3.27424272e+02
339             	3.26915318e+02
340             	3.27840794e+02
341             	3.28831932e+02
342             	3.28303624e+02
343             	3.27143093e+02
344             	3.27024855e+02
345             	3.28127394e+02
346             	3.28787246e+02
347             	3.27975481e+02
348             	3.27009607e+02
349             	3.27292088e+02
350             	3.28409973e+02
351             	3.28635431e+02
352             	3.27612191e+02
353             	3.26900741e+02
354             	3.27592560e+02
355             	3.28697475e+02
356             	3.28452004e+02
357             	3.27243795e+02
358             	3.26859089e+02
359             	3.27933485e+02
360             	3.28872240e+02
361             	3.28161707e+02
362             	3.27004492e+02
363             	3.27045277e+02
364             	3.28205528e+02
365             	3.28725212e+02
366             	3.27804620e+02
367             	3.26916643e+02
368             	3.27364555e+02
369             	3.28490095e+02
370             	3.28531925e+02
371             	3.27426014e+02
372             	3.26850816e+02
373             	3.27720698e+02
374             	3.28772833e+02
375             	3.28332751e+02
376             	3.27152535e+02
377             	3.26953334e+02
378             	3.28059976e+02
379             	3.28826167e+02
380             	3.28055289e+02
381             	3.27023357e+02
382             	3.27220063e+02
383             	3.28351796e+02
384             	3.28680215e+02
385             	3.27692580e+02
386             	3.26919385e+02
387             	3.27527082e+02
388             	3.28639356e+02
389             	3.28485991e+02
390             	3.27289391e+02
391             	3.26844243e+02
392             	3.27896845e+02
393             	3.28894206e+02
394             	3.28212898e+02
395             	3.27012835e+02
396             	3.26991717e+02
397             	3.28158653e+02
398             	3.28756797e+02
399             	3.27875429e+02
400             	3.26950033e+02
401             	3.27341252e+02
402             	3.28481594e+02
403             	3.28609198e+02
404             	3.27543975e+02
405             	3.26918882e+02
406             	3.27721018e+02
407             	3.28798125e+02
408             	3.28444235e+02
409             	3.27263141e+02
410             	3.26995386e+02
411             	3.28082646e+02
412             	3.28911828e+02
413             	3.28180966e+02
414             	3.27114496e+02
415             	3.27249433e+02
416             	3.28384072e+02
417             	3.28789067e+02
418             	3.27843063e+02
419             	3.27031962e+02
420             	3.27573401e+02
421             	3.28693431e+02
422             	3.28628103e+02
423             	3.27467211e+02
424             	3.26965319e+02
425             	3.27949401e+02
426             	3.28983636e+02
427             	3.28402586e+02
428             	3.27203367e+02
429             	3.27103172e+02
430             	3.28249583e+02
431             	3.28927554e+02
432             	3.28093955e+02
433             	3.27119997e+02
434             	3.27422222e+02
435             	3.28552090e+02
436             	3.28770942e+02
437             	3.27754062e+02
438             	3.27061001e+02
439             	3.27761722e+02
440             	3.28855745e+02
441             	3.28614810e+02
442             	3.27432309e+02
443             	3.27070916e+02
444             	3.28128417e+02
445             	3.29036987e+02
446             	3.28345867e+02
447             	3.27218993e+02
448             	3.27261723e+02
449             	3.28389817e+02
450             	3.28886256e+02
451             	3.27978797e+02
452             	3.27102135e+02
453             	3.27546278e+02
454             	3.28665810e+02
455             	3.28702102e+02
456             	3.27585965e+02
457             	3.27003369e+02
458             	3.27886956e+02
459             	3.28956060e+02
460             	3.28491152e+02
461             	3.27282846e+02
462             	3.27077934e+02
463             	3.28198220e+02
464             	3.28970874e+02
465             	3.28180829e+02
466             	3.27137301e+02
467             	3.27340040e+02
468             	3.28480286e+02
469             	3.28808648e+02
470             	3.27820600e+02
471             	3.27052972e+02
472             	3.27667554e+02
473             	3.28781277e+02
474             	3.28632846e+02
475             	3.27445669e+02
476             	3.27007587e+02
477             	3.28050774e+02
478             	3.29037921e+02
479             	3.28373639e+02
480             	3.27190884e+02
481             	3.27169087e+02
482             	3.28321702e+02
483             	3.28907408e+02
484             	3.28027593e+02
485             	3.27104470e+02
486             	3.27488410e+02
487             	3.28616924e+02
488             	3.28740846e+02
489             	3.27678909e+02
490             	3.27050139e+02
491             	3.27842487e+02
492             	3.28912865e+02
493             	3.28559768e+02
494             	3.27372896e+02
495             	3.27095878e+02
496             	3.28184412e+02
497             	3.29021539e+02
498             	3.28282114e+02
499             	3.27202097e+02
500             	3.27333010e+02
501             	3.28476904e+02
502             	3.28886531e+02
503             	3.27930236e+02
504             	3.27110846e+02
505             	3.27652908e+02
506             	3.28774037e+02
507             	3.28707227e+02
508             	3.27546922e+02
509             	3.27045153e+02
510             	3.28023727e+02
511             	3.29049004e+02
512             	3.28466424e+02
513             	3.27268375e+02
514             	3.27166655e+02
515             	3.28307607e+02
516             	3.28976240e+02
517             	3.28132701e+02
518             	3.27155983e+02
519             	3.27463133e+02
520             	3.28599813e+02
521             	3.28810800e+02
522             	3.27776110e+02
523             	3.27083477e+02
524             	3.27805421e+02
525             	3.28907898e+02
526             	3.28639027e+02
527             	3.27441940e+02
528             	3.27090912e+02
529             	3.28163011e+02
530             	3.29070517e+02
531             	3.28368263e+02
532             	3.27242538e+02
533             	3.27300204e+02
534             	3.28441283e+02
535             	3.28932060e+02
536             	3.28018674e+02
537             	3.27151811e+02
538             	3.27611838e+02
539             	3.28732955e+02
540             	3.28760446e+02
541             	3.27648274e+02
542             	3.27080860e+02
543             	3.27965903e+02
544             	3.29017563e+02
545             	3.28546312e+02
546             	3.27346526e+02
547             	3.27150944e+02
548             	3.28265814e+02
549             	3.29022523e+02
550             	3.28227890e+02
551             	3.27191302e+02
552             	3.27404058e+02
553             	3.28542624e+02
554             	3.28855020e+02
555             	3.27861482e+02
556             	3.27103930e+02
557             	3.27730435e+02
558             	3.28840941e+02
559             	3.28681553e+02
560             	3.27499687e+02
561             	3.27078728e+02
562             	3.28125676e+02
563             	3.29098183e+02
564             	3.28436265e+02
565             	3.27271517e+02
566             	3.27262360e+02
567             	3.28405953e+02
568             	3.28974303e+02
569             	3.28094814e+02
570             	3.27181602e+02
571             	3.27573707e+02
572             	3.28699290e+02
573             	3.28806494e+02
574             	3.27728089e+02
575             	3.27101257e+02
576             	3.27912443e+02
577             	3.28990727e+02
578             	3.28608924e+02
579             	3.27403147e+02
580             	3.27130250e+02
581             	3.28227012e+02
582             	3.29058932e+02
583             	3.28307623e+02
584             	3.27226252e+02
585             	3.27363341e+02
586             	3.28504062e+02
587             	3.28904333e+02
588             	3.27949228e+02
589             	3.27137589e+02
590             	3.27683251e+02
591             	3.28799967e+02
592             	3.28730846e+02
593             	3.27581278e+02
594             	3.27089209e+02
595             	3.28058389e+02
596             	3.29069006e+02
597             	3.28498204e+02
598             	3.27316875e+02
599             	3.27218869e+02
600             	3.28349580e+02
601             	3.29008481e+02
602             	3.28173478e+02
603             	3.27205452e+02
604             	3.27511746e+02
605             	3.28641500e+02
606             	3.28850824e+02
607             	3.27821116e+02
608             	3.27128801e+02
609             	3.27845905e+02
610             	3.28947281e+02
611             	3.28680706e+02
612             	3.27480559e+02
613             	3.27122878e+02
614             	3.28195611e+02
615             	3.29108870e+02
616             	3.28401979e+02
617             	3.27267181e+02
618             	3.27320513e+02
619             	3.28465008e+02
620             	3.28959926e+02
621             	3.28044289e+02
