# Region        : cellZone pcb
# Cells         : 550
# Volume        : 2.75762795e-01
# Time          	volAverage(T)
1               	3.00015756e+02
2               	3.00045503e+02
3               	3.00086423e+02
4               	3.00138015e+02
5               	3.00199113e+02
6               	3.00269620e+02
7               	3.00349048e+02
8               	3.00437123e+02
9               	3.00532664e+02
10              	3.00635994e+02
11              	3.00746475e+02
12              	3.00863286e+02
13              	3.00985450e+02
14              	3.01114205e+02
15              	3.01249311e+02
16              	3.01389108e+02
17              	3.01533304e+02
18              	3.01682989e+02
19              	3.01838075e+02
20              	3.01998327e+02
21              	3.02162773e+02
22              	3.02332509e+02
23              	3.02507511e+02
24              	3.02687423e+02
25              	3.02869300e+02
26              	3.03052808e+02
27              	3.03237551e+02
28              	3.03425099e+02
29              	3.03616070e+02
30              	3.03809336e+02
31              	3.04005167e+02
32              	3.04203797e+02
33              	3.04405137e+02
34              	3.04609050e+02
35              	3.04815507e+02
36              	3.05023631e+02
37              	3.05233859e+02
38              	3.05446124e+02
39              	3.05659884e+02
40              	3.05876842e+02
41              	3.06096261e+02
42              	3.06317022e+02
43              	3.06539103e+02
44              	3.06762331e+02
45              	3.06986834e+02
46              	3.07212520e+02
47              	3.07439709e+02
48              	3.07666312e+02
49              	3.07892957e+02
50              	3.08119614e+02
51              	3.08346957e+02
52              	3.08574643e+02
53              	3.08804036e+02
54              	3.09035313e+02
55              	3.09268195e+02
56              	3.09501472e+02
57              	3.09735829e+02
58              	3.09970614e+02
59              	3.10206716e+02
60              	3.10443937e+02
61              	3.10683517e+02
62              	3.10922058e+02
63              	3.11161124e+02
64              	3.11399856e+02
65              	3.11640570e+02
66              	3.11881785e+02
67              	3.12121157e+02
68              	3.12359820e+02
69              	3.12600015e+02
70              	3.12840945e+02
71              	3.13080228e+02
72              	3.13318392e+02
73              	3.13556393e+02
74              	3.13794045e+02
75              	3.14030164e+02
76              	3.14267952e+02
77              	3.14506178e+02
78              	3.14747383e+02
79              	3.14987102e+02
80              	3.15227546e+02
81              	3.15464850e+02
82              	3.15699660e+02
83              	3.15934870e+02
84              	3.16170711e+02
85              	3.16406128e+02
86              	3.16641559e+02
87              	3.16878949e+02
88              	3.17117347e+02
89              	3.17351803e+02
90              	3.17586939e+02
91              	3.17819239e+02
92              	3.18050655e+02
93              	3.18281707e+02
94              	3.18510860e+02
95              	3.18738754e+02
96              	3.18968780e+02
97              	3.19198234e+02
98              	3.19426676e+02
99              	3.19655020e+02
100             	3.19883452e+02
101             	3.20110968e+02
102             	3.20340474e+02
103             	3.20565375e+02
104             	3.20783565e+02
105             	3.21002451e+02
106             	3.21218190e+02
107             	3.21435459e+02
108             	3.21654219e+02
109             	3.21871893e+02
110             	3.22088048e+02
111             	3.22306788e+02
112             	3.22525597e+02
113             	3.22741538e+02
114             	3.22955414e+02
115             	3.23168875e+02
116             	3.23382634e+02
117             	3.23591820e+02
118             	3.23795186e+02
119             	3.23996575e+02
120             	3.24197538e+02
121             	3.24399001e+02
122             	3.24601705e+02
123             	3.24806885e+02
124             	3.25010981e+02
125             	3.25217049e+02
126             	3.25423047e+02
127             	3.25627278e+02
128             	3.25829393e+02
129             	3.26030270e+02
130             	3.26231082e+02
131             	3.26431036e+02
132             	3.26630817e+02
133             	3.26829504e+02
134             	3.27026551e+02
135             	3.27223218e+02
136             	3.27419281e+02
137             	3.27611948e+02
138             	3.27801394e+02
139             	3.27989910e+02
140             	3.28178255e+02
141             	3.28366144e+02
142             	3.28554336e+02
143             	3.28742986e+02
144             	3.28932045e+02
145             	3.29119292e+02
146             	3.29306831e+02
147             	3.29494716e+02
148             	3.29681878e+02
149             	3.29867732e+02
150             	3.30051791e+02
151             	3.30233738e+02
152             	3.30416086e+02
153             	3.30597778e+02
154             	3.30775534e+02
155             	3.30951173e+02
156             	3.31126567e+02
157             	3.31301817e+02
158             	3.31477409e+02
159             	3.31653300e+02
160             	3.31829411e+02
161             	3.32002383e+02
162             	3.32174679e+02
163             	3.32346785e+02
164             	3.32518568e+02
165             	3.32688381e+02
166             	3.32857916e+02
167             	3.33028709e+02
168             	3.33197281e+02
169             	3.33361762e+02
170             	3.33525142e+02
171             	3.33687634e+02
172             	3.33850157e+02
173             	3.34012623e+02
174             	3.34174954e+02
175             	3.34336892e+02
176             	3.34497191e+02
177             	3.34657571e+02
178             	3.34817570e+02
179             	3.34977370e+02
180             	3.35135493e+02
181             	3.35291630e+02
182             	3.35446277e+02
183             	3.35601754e+02
184             	3.35755162e+02
185             	3.35905796e+02
186             	3.36054744e+02
187             	3.36202286e+02
188             	3.36349474e+02
189             	3.36496474e+02
190             	3.36644232e+02
191             	3.36792316e+02
192             	3.36940506e+02
193             	3.37087463e+02
194             	3.37232907e+02
195             	3.37377991e+02
196             	3.37522603e+02
197             	3.37666679e+02
198             	3.37810392e+02
199             	3.37953312e+02
200             	3.38095129e+02
201             	3.38236103e+02
202             	3.38375086e+02
203             	3.38513298e+02
204             	3.38649681e+02
205             	3.38785026e+02
206             	3.38919842e+02
207             	3.39054483e+02
208             	3.39188976e+02
209             	3.39323425e+02
210             	3.39457927e+02
211             	3.39591603e+02
212             	3.39725234e+02
213             	3.39858429e+02
214             	3.39991106e+02
215             	3.40122819e+02
216             	3.40253454e+02
217             	3.40383611e+02
218             	3.40512290e+02
219             	3.40639695e+02
220             	3.40765729e+02
221             	3.40890797e+02
222             	3.41015011e+02
223             	3.41138264e+02
224             	3.41260902e+02
225             	3.41382746e+02
226             	3.41504094e+02
227             	3.41626265e+02
228             	3.41747567e+02
229             	3.41866773e+02
230             	3.41985701e+02
231             	3.42104524e+02
232             	3.42223517e+02
233             	3.42342657e+02
234             	3.42461381e+02
235             	3.42579205e+02
236             	3.42695682e+02
237             	3.42812396e+02
238             	3.42928778e+02
239             	3.43044458e+02
240             	3.43159427e+02
241             	3.43272752e+02
242             	3.43384622e+02
243             	3.43494237e+02
244             	3.43603360e+02
245             	3.43712439e+02
246             	3.43819692e+02
247             	3.43926097e+02
248             	3.44032416e+02
249             	3.44138850e+02
250             	3.44245314e+02
251             	3.44351883e+02
252             	3.44459093e+02
253             	3.44566374e+02
254             	3.44673503e+02
255             	3.44779184e+02
256             	3.44884748e+02
257             	3.44988973e+02
258             	3.45092323e+02
259             	3.45194991e+02
260             	3.45297010e+02
261             	3.45398189e+02
262             	3.45498431e+02
263             	3.45597694e+02
264             	3.45696291e+02
265             	3.45795129e+02
266             	3.45891878e+02
267             	3.45987454e+02
268             	3.46081964e+02
269             	3.46176093e+02
270             	3.46270047e+02
271             	3.46364042e+02
272             	3.46458288e+02
273             	3.46552674e+02
274             	3.46647419e+02
275             	3.46741737e+02
276             	3.46835982e+02
277             	3.46929444e+02
278             	3.47021945e+02
279             	3.47113877e+02
280             	3.47205212e+02
281             	3.47295975e+02
282             	3.47385706e+02
283             	3.47474598e+02
284             	3.47562408e+02
285             	3.47649732e+02
286             	3.47736238e+02
287             	3.47821609e+02
288             	3.47906142e+02
289             	3.47990109e+02
290             	3.48073939e+02
291             	3.48157664e+02
292             	3.48241370e+02
293             	3.48325209e+02
294             	3.48407911e+02
295             	3.48491398e+02
296             	3.48575821e+02
297             	3.48659858e+02
298             	3.48742321e+02
299             	3.48824610e+02
300             	3.48906208e+02
301             	3.48986817e+02
302             	3.49066918e+02
303             	3.49146038e+02
304             	3.49224188e+02
305             	3.49301481e+02
306             	3.49378134e+02
307             	3.49454687e+02
308             	3.49531224e+02
309             	3.49607805e+02
310             	3.49683564e+02
311             	3.49758872e+02
312             	3.49834044e+02
313             	3.49909112e+02
314             	3.49984003e+02
315             	3.50058595e+02
316             	3.50132826e+02
317             	3.50207080e+02
318             	3.50280911e+02
319             	3.50354526e+02
320             	3.50427985e+02
321             	3.50501200e+02
322             	3.50573830e+02
323             	3.50645453e+02
324             	3.50716070e+02
325             	3.50785800e+02
326             	3.50854643e+02
327             	3.50922661e+02
328             	3.50989978e+02
329             	3.51056766e+02
330             	3.51123964e+02
331             	3.51190653e+02
332             	3.51256801e+02
333             	3.51322691e+02
334             	3.51388483e+02
335             	3.51454066e+02
336             	3.51519529e+02
337             	3.51584877e+02
338             	3.51650005e+02
339             	3.51714847e+02
340             	3.51779446e+02
341             	3.51843324e+02
342             	3.51907390e+02
343             	3.51971144e+02
344             	3.52034510e+02
345             	3.52095854e+02
346             	3.52157210e+02
347             	3.52218178e+02
348             	3.52278826e+02
349             	3.52339291e+02
350             	3.52400069e+02
351             	3.52460242e+02
352             	3.52519782e+02
353             	3.52578938e+02
354             	3.52638025e+02
355             	3.52697130e+02
356             	3.52756276e+02
357             	3.52813726e+02
358             	3.52871667e+02
359             	3.52929843e+02
360             	3.52988207e+02
361             	3.53046325e+02
362             	3.53103953e+02
363             	3.53160916e+02
364             	3.53217312e+02
365             	3.53273618e+02
366             	3.53328981e+02
367             	3.53383479e+02
368             	3.53437722e+02
369             	3.53491709e+02
370             	3.53545619e+02
371             	3.53599582e+02
372             	3.53653863e+02
373             	3.53708286e+02
374             	3.53761297e+02
375             	3.53814539e+02
376             	3.53868131e+02
377             	3.53921763e+02
378             	3.53975091e+02
379             	3.54027730e+02
380             	3.54079717e+02
381             	3.54131102e+02
382             	3.54181762e+02
383             	3.54229879e+02
384             	3.54278471e+02
385             	3.54326764e+02
386             	3.54374967e+02
387             	3.54421246e+02
388             	3.54468044e+02
389             	3.54515098e+02
390             	3.54561984e+02
391             	3.54607288e+02
392             	3.54653223e+02
393             	3.54699356e+02
394             	3.54745882e+02
395             	3.54791018e+02
396             	3.54837044e+02
397             	3.54883562e+02
398             	3.54930545e+02
399             	3.54976102e+02
400             	3.55022594e+02
401             	3.55069535e+02
402             	3.55116739e+02
403             	3.55162224e+02
404             	3.55208103e+02
405             	3.55254227e+02
406             	3.55300163e+02
407             	3.55345892e+02
408             	3.55391083e+02
409             	3.55435700e+02
410             	3.55479733e+02
411             	3.55523328e+02
412             	3.55566439e+02
413             	3.55609201e+02
414             	3.55651731e+02
415             	3.55693781e+02
416             	3.55735501e+02
417             	3.55777254e+02
418             	3.55818704e+02
419             	3.55859753e+02
420             	3.55900562e+02
421             	3.55941221e+02
422             	3.55981867e+02
423             	3.56022734e+02
424             	3.56061969e+02
425             	3.56102303e+02
426             	3.56143030e+02
427             	3.56184047e+02
428             	3.56223248e+02
429             	3.56262107e+02
430             	3.56301420e+02
431             	3.56340486e+02
432             	3.56377491e+02
433             	3.56414776e+02
434             	3.56451859e+02
435             	3.56488748e+02
436             	3.56525828e+02
437             	3.56561641e+02
438             	3.56597930e+02
439             	3.56634018e+02
440             	3.56670451e+02
441             	3.56705422e+02
442             	3.56741303e+02
443             	3.56777878e+02
444             	3.56813563e+02
445             	3.56849517e+02
446             	3.56886894e+02
447             	3.56924497e+02
448             	3.56960272e+02
449             	3.56996411e+02
450             	3.57032565e+02
451             	3.57068469e+02
452             	3.57104181e+02
453             	3.57139439e+02
454             	3.57174326e+02
455             	3.57207738e+02
456             	3.57241655e+02
457             	3.57275371e+02
458             	3.57309222e+02
459             	3.57343303e+02
460             	3.57377393e+02
461             	3.57411320e+02
462             	3.57445061e+02
463             	3.57478594e+02
464             	3.57511994e+02
465             	3.57545318e+02
466             	3.57578581e+02
467             	3.57611908e+02
468             	3.57645133e+02
469             	3.57676423e+02
470             	3.57708367e+02
471             	3.57740168e+02
472             	3.57772051e+02
473             	3.57803807e+02
474             	3.57833558e+02
475             	3.57863916e+02
476             	3.57894624e+02
477             	3.57925562e+02
478             	3.57954561e+02
479             	3.57984171e+02
480             	3.58013923e+02
481             	3.58043735e+02
482             	3.58071150e+02
483             	3.58099502e+02
484             	3.58127804e+02
485             	3.58156173e+02
486             	3.58182650e+02
487             	3.58209863e+02
488             	3.58237375e+02
489             	3.58265109e+02
490             	3.58291066e+02
491             	3.58317919e+02
492             	3.58345318e+02
493             	3.58373034e+02
494             	3.58399148e+02
495             	3.58426191e+02
496             	3.58453716e+02
497             	3.58481753e+02
498             	3.58508237e+02
499             	3.58535729e+02
500             	3.58563786e+02
501             	3.58592337e+02
502             	3.58620949e+02
503             	3.58649392e+02
504             	3.58677678e+02
505             	3.58705485e+02
506             	3.58732964e+02
507             	3.58760156e+02
508             	3.58787007e+02
509             	3.58813422e+02
510             	3.58839512e+02
511             	3.58865418e+02
512             	3.58890984e+02
513             	3.58916325e+02
514             	3.58941471e+02
515             	3.58966479e+02
516             	3.58991359e+02
517             	3.59016164e+02
518             	3.59040879e+02
519             	3.59065505e+02
520             	3.59090016e+02
521             	3.59114431e+02
522             	3.59138671e+02
523             	3.59162623e+02
524             	3.59184465e+02
525             	3.59207018e+02
526             	3.59229478e+02
527             	3.59251896e+02
528             	3.59272109e+02
529             	3.59293146e+02
530             	3.59314460e+02
531             	3.59334268e+02
532             	3.59354774e+02
533             	3.59375914e+02
534             	3.59395744e+02
535             	3.59416863e+02
536             	3.59438706e+02
537             	3.59459209e+02
538             	3.59480935e+02
539             	3.59503484e+02
540             	3.59524956e+02
541             	3.59547652e+02
542             	3.59571150e+02
543             	3.59595309e+02
544             	3.59617874e+02
545             	3.59641356e+02
546             	3.59665169e+02
547             	3.59689161e+02
548             	3.59713187e+02
549             	3.59737089e+02
550             	3.59760888e+02
551             	3.59784563e+02
552             	3.59807867e+02
553             	3.59830634e+02
554             	3.59852840e+02
555             	3.59874406e+02
556             	3.59895454e+02
557             	3.59916087e+02
558             	3.59936370e+02
559             	3.59956411e+02
560             	3.59976327e+02
561             	3.59996128e+02
562             	3.60015893e+02
563             	3.60035470e+02
564             	3.60054821e+02
565             	3.60074014e+02
566             	3.60093086e+02
567             	3.60112049e+02
568             	3.60130829e+02
569             	3.60149563e+02
570             	3.60168217e+02
571             	3.60184749e+02
572             	3.60202024e+02
573             	3.60219349e+02
574             	3.60236734e+02
575             	3.60252023e+02
576             	3.60268236e+02
577             	3.60284528e+02
578             	3.60299202e+02
579             	3.60314978e+02
580             	3.60331473e+02
581             	3.60346627e+02
582             	3.60363077e+02
583             	3.60380291e+02
584             	3.60396246e+02
585             	3.60413482e+02
586             	3.60431545e+02
587             	3.60448467e+02
588             	3.60466611e+02
589             	3.60485464e+02
590             	3.60505009e+02
591             	3.60524771e+02
592             	3.60544515e+02
593             	3.60564192e+02
594             	3.60583746e+02
595             	3.60602938e+02
596             	3.60621743e+02
597             	3.60640187e+02
598             	3.60658468e+02
599             	3.60676483e+02
600             	3.60694201e+02
601             	3.60711400e+02
602             	3.60728345e+02
603             	3.60745036e+02
604             	3.60761436e+02
605             	3.60777606e+02
606             	3.60793577e+02
607             	3.60809353e+02
608             	3.60824896e+02
609             	3.60840094e+02
610             	3.60855043e+02
611             	3.60869801e+02
612             	3.60884451e+02
613             	3.60899053e+02
614             	3.60913362e+02
615             	3.60925459e+02
616             	3.60938296e+02
617             	3.60951531e+02
618             	3.60964969e+02
619             	3.60976350e+02
620             	3.60988871e+02
621             	3.61002079e+02
