# Region        : cellZone fluid
# Cells         : 10638
# Volume        : 9.15620422e+00
# Time          	volAverage(T)
1               	3.00000057e+02
2               	3.00000150e+02
3               	3.00000975e+02
4               	3.00002212e+02
5               	3.00003467e+02
6               	3.00004786e+02
7               	3.00006220e+02
8               	3.00007988e+02
9               	3.00010260e+02
10              	3.00012647e+02
11              	3.00015283e+02
12              	3.00018388e+02
13              	3.00021425e+02
14              	3.00025392e+02
15              	3.00029442e+02
16              	3.00033540e+02
17              	3.00036986e+02
18              	3.00042394e+02
19              	3.00046263e+02
20              	3.00049607e+02
21              	3.00053650e+02
22              	3.00057543e+02
23              	3.00062049e+02
24              	3.00066308e+02
25              	3.00071086e+02
26              	3.00075637e+02
27              	3.00080270e+02
28              	3.00085595e+02
29              	3.00090301e+02
30              	3.00095397e+02
31              	3.00100096e+02
32              	3.00105973e+02
33              	3.00110897e+02
34              	3.00116226e+02
35              	3.00122225e+02
36              	3.00127777e+02
37              	3.00133603e+02
38              	3.00139291e+02
39              	3.00144614e+02
40              	3.00149715e+02
41              	3.00155391e+02
42              	3.00160614e+02
43              	3.00166269e+02
44              	3.00173244e+02
45              	3.00179132e+02
46              	3.00184744e+02
47              	3.00190705e+02
48              	3.00195943e+02
49              	3.00200959e+02
50              	3.00205785e+02
51              	3.00210462e+02
52              	3.00215522e+02
53              	3.00221531e+02
54              	3.00228206e+02
55              	3.00233674e+02
56              	3.00239774e+02
57              	3.00246193e+02
58              	3.00253021e+02
59              	3.00259480e+02
60              	3.00266046e+02
61              	3.00272176e+02
62              	3.00277173e+02
63              	3.00284288e+02
64              	3.00290497e+02
65              	3.00296634e+02
66              	3.00303003e+02
67              	3.00309413e+02
68              	3.00315075e+02
69              	3.00320716e+02
70              	3.00326245e+02
71              	3.00331380e+02
72              	3.00336336e+02
73              	3.00341702e+02
74              	3.00348580e+02
75              	3.00353776e+02
76              	3.00359130e+02
77              	3.00365392e+02
78              	3.00371732e+02
79              	3.00377796e+02
80              	3.00383466e+02
81              	3.00388806e+02
82              	3.00393634e+02
83              	3.00398672e+02
84              	3.00403137e+02
85              	3.00408646e+02
86              	3.00413762e+02
87              	3.00418614e+02
88              	3.00423093e+02
89              	3.00427439e+02
90              	3.00431789e+02
91              	3.00437705e+02
92              	3.00442236e+02
93              	3.00445414e+02
94              	3.00449640e+02
95              	3.00453929e+02
96              	3.00459017e+02
97              	3.00463726e+02
98              	3.00469556e+02
99              	3.00472744e+02
100             	3.00478888e+02
101             	3.00484319e+02
102             	3.00488711e+02
103             	3.00495636e+02
104             	3.00499674e+02
105             	3.00505113e+02
106             	3.00509167e+02
107             	3.00513117e+02
108             	3.00517561e+02
109             	3.00522863e+02
110             	3.00527228e+02
111             	3.00531862e+02
112             	3.00536645e+02
113             	3.00540990e+02
114             	3.00545821e+02
115             	3.00550445e+02
116             	3.00554216e+02
117             	3.00558369e+02
118             	3.00561717e+02
119             	3.00564837e+02
120             	3.00567799e+02
121             	3.00570539e+02
122             	3.00573435e+02
123             	3.00576398e+02
124             	3.00579171e+02
125             	3.00581864e+02
126             	3.00584493e+02
127             	3.00587238e+02
128             	3.00589678e+02
129             	3.00592256e+02
130             	3.00594709e+02
131             	3.00597158e+02
132             	3.00599533e+02
133             	3.00601858e+02
134             	3.00604201e+02
135             	3.00606696e+02
136             	3.00609665e+02
137             	3.00612783e+02
138             	3.00615500e+02
139             	3.00618293e+02
140             	3.00621284e+02
141             	3.00624339e+02
142             	3.00627375e+02
143             	3.00630282e+02
144             	3.00633022e+02
145             	3.00636052e+02
146             	3.00639019e+02
147             	3.00641945e+02
148             	3.00644483e+02
149             	3.00647154e+02
150             	3.00650058e+02
151             	3.00652532e+02
152             	3.00655002e+02
153             	3.00657284e+02
154             	3.00659295e+02
155             	3.00661256e+02
156             	3.00663373e+02
157             	3.00665036e+02
158             	3.00666757e+02
159             	3.00668479e+02
160             	3.00670175e+02
161             	3.00671866e+02
162             	3.00673724e+02
163             	3.00675350e+02
164             	3.00677085e+02
165             	3.00678997e+02
166             	3.00680880e+02
167             	3.00682796e+02
168             	3.00684508e+02
169             	3.00686153e+02
170             	3.00687895e+02
171             	3.00689557e+02
172             	3.00691203e+02
173             	3.00692877e+02
174             	3.00694571e+02
175             	3.00696381e+02
176             	3.00698315e+02
177             	3.00700022e+02
178             	3.00701564e+02
179             	3.00702951e+02
180             	3.00704234e+02
181             	3.00705488e+02
182             	3.00706724e+02
183             	3.00707822e+02
184             	3.00708946e+02
185             	3.00710098e+02
186             	3.00711248e+02
187             	3.00712440e+02
188             	3.00713709e+02
189             	3.00714715e+02
190             	3.00715887e+02
191             	3.00717059e+02
192             	3.00718245e+02
193             	3.00719333e+02
194             	3.00720462e+02
195             	3.00721653e+02
196             	3.00722934e+02
197             	3.00724171e+02
198             	3.00725363e+02
199             	3.00726612e+02
200             	3.00728019e+02
201             	3.00729514e+02
202             	3.00730991e+02
203             	3.00732472e+02
204             	3.00733901e+02
205             	3.00735253e+02
206             	3.00736513e+02
207             	3.00737771e+02
208             	3.00739002e+02
209             	3.00740183e+02
210             	3.00741361e+02
211             	3.00742470e+02
212             	3.00743519e+02
213             	3.00744608e+02
214             	3.00745748e+02
215             	3.00746653e+02
216             	3.00747686e+02
217             	3.00748684e+02
218             	3.00749580e+02
219             	3.00750429e+02
220             	3.00751259e+02
221             	3.00752084e+02
222             	3.00752905e+02
223             	3.00753784e+02
224             	3.00754724e+02
225             	3.00755653e+02
226             	3.00756606e+02
227             	3.00757613e+02
228             	3.00758541e+02
229             	3.00759452e+02
230             	3.00760338e+02
231             	3.00761220e+02
232             	3.00762039e+02
233             	3.00762872e+02
234             	3.00763645e+02
235             	3.00764420e+02
236             	3.00765192e+02
237             	3.00765994e+02
238             	3.00766856e+02
239             	3.00767654e+02
240             	3.00768453e+02
241             	3.00769114e+02
242             	3.00769850e+02
243             	3.00770571e+02
244             	3.00771222e+02
245             	3.00771844e+02
246             	3.00772520e+02
247             	3.00773124e+02
248             	3.00773750e+02
249             	3.00774436e+02
250             	3.00775096e+02
251             	3.00775783e+02
252             	3.00776416e+02
253             	3.00777130e+02
254             	3.00777809e+02
255             	3.00778449e+02
256             	3.00779042e+02
257             	3.00779622e+02
258             	3.00780215e+02
259             	3.00780784e+02
260             	3.00781339e+02
261             	3.00781906e+02
262             	3.00782523e+02
263             	3.00783226e+02
264             	3.00783927e+02
265             	3.00784544e+02
266             	3.00785139e+02
267             	3.00785744e+02
268             	3.00786358e+02
269             	3.00786952e+02
270             	3.00787531e+02
271             	3.00788106e+02
272             	3.00788611e+02
273             	3.00789133e+02
274             	3.00789686e+02
275             	3.00790247e+02
276             	3.00790856e+02
277             	3.00791418e+02
278             	3.00791918e+02
279             	3.00792376e+02
280             	3.00792773e+02
281             	3.00793150e+02
282             	3.00793521e+02
283             	3.00793908e+02
284             	3.00794290e+02
285             	3.00794668e+02
286             	3.00795073e+02
287             	3.00795504e+02
288             	3.00795967e+02
289             	3.00796303e+02
290             	3.00796729e+02
291             	3.00797125e+02
292             	3.00797497e+02
293             	3.00797872e+02
294             	3.00798250e+02
295             	3.00798617e+02
296             	3.00799014e+02
297             	3.00799462e+02
298             	3.00799861e+02
299             	3.00800272e+02
300             	3.00800687e+02
301             	3.00801136e+02
302             	3.00801569e+02
303             	3.00801974e+02
304             	3.00802357e+02
305             	3.00802711e+02
306             	3.00803042e+02
307             	3.00803359e+02
308             	3.00803686e+02
309             	3.00804038e+02
310             	3.00804402e+02
311             	3.00804782e+02
312             	3.00805173e+02
313             	3.00805524e+02
314             	3.00805901e+02
315             	3.00806240e+02
316             	3.00806556e+02
317             	3.00806902e+02
318             	3.00807219e+02
319             	3.00807526e+02
320             	3.00807871e+02
321             	3.00808192e+02
322             	3.00808513e+02
323             	3.00808848e+02
324             	3.00809191e+02
325             	3.00809559e+02
326             	3.00809922e+02
327             	3.00810261e+02
328             	3.00810568e+02
329             	3.00810844e+02
330             	3.00811095e+02
331             	3.00811322e+02
332             	3.00811546e+02
333             	3.00811803e+02
334             	3.00812074e+02
335             	3.00812368e+02
336             	3.00812689e+02
337             	3.00812968e+02
338             	3.00813270e+02
339             	3.00813517e+02
340             	3.00813775e+02
341             	3.00814023e+02
342             	3.00814254e+02
343             	3.00814512e+02
344             	3.00814755e+02
345             	3.00815010e+02
346             	3.00815280e+02
347             	3.00815535e+02
348             	3.00815865e+02
349             	3.00816172e+02
350             	3.00816445e+02
351             	3.00816691e+02
352             	3.00816918e+02
353             	3.00817116e+02
354             	3.00817323e+02
355             	3.00817518e+02
356             	3.00817714e+02
357             	3.00817929e+02
358             	3.00818151e+02
359             	3.00818380e+02
360             	3.00818625e+02
361             	3.00818859e+02
362             	3.00819065e+02
363             	3.00819276e+02
364             	3.00819474e+02
365             	3.00819679e+02
366             	3.00819877e+02
367             	3.00820069e+02
368             	3.00820278e+02
369             	3.00820503e+02
370             	3.00820713e+02
371             	3.00820927e+02
372             	3.00821126e+02
373             	3.00821328e+02
374             	3.00821537e+02
375             	3.00821767e+02
376             	3.00821963e+02
377             	3.00822140e+02
378             	3.00822313e+02
379             	3.00822490e+02
380             	3.00822650e+02
381             	3.00822796e+02
382             	3.00822955e+02
383             	3.00823138e+02
384             	3.00823343e+02
385             	3.00823524e+02
386             	3.00823710e+02
387             	3.00823867e+02
388             	3.00824059e+02
389             	3.00824241e+02
390             	3.00824415e+02
391             	3.00824580e+02
392             	3.00824739e+02
393             	3.00824918e+02
394             	3.00825080e+02
395             	3.00825240e+02
396             	3.00825403e+02
397             	3.00825565e+02
398             	3.00825743e+02
399             	3.00825908e+02
400             	3.00826062e+02
401             	3.00826204e+02
402             	3.00826332e+02
403             	3.00826466e+02
404             	3.00826595e+02
405             	3.00826733e+02
406             	3.00826858e+02
407             	3.00826980e+02
408             	3.00827106e+02
409             	3.00827246e+02
410             	3.00827383e+02
411             	3.00827512e+02
412             	3.00827633e+02
413             	3.00827773e+02
414             	3.00827903e+02
415             	3.00828029e+02
416             	3.00828151e+02
417             	3.00828278e+02
418             	3.00828396e+02
419             	3.00828525e+02
420             	3.00828653e+02
421             	3.00828777e+02
422             	3.00828920e+02
423             	3.00829060e+02
424             	3.00829205e+02
425             	3.00829335e+02
426             	3.00829457e+02
427             	3.00829582e+02
428             	3.00829695e+02
429             	3.00829816e+02
430             	3.00829935e+02
431             	3.00830052e+02
432             	3.00830189e+02
433             	3.00830307e+02
434             	3.00830426e+02
435             	3.00830535e+02
436             	3.00830634e+02
437             	3.00830739e+02
438             	3.00830833e+02
439             	3.00830925e+02
440             	3.00831013e+02
441             	3.00831100e+02
442             	3.00831198e+02
443             	3.00831291e+02
444             	3.00831385e+02
445             	3.00831477e+02
446             	3.00831572e+02
447             	3.00831677e+02
448             	3.00831773e+02
449             	3.00831870e+02
450             	3.00831966e+02
451             	3.00832058e+02
452             	3.00832161e+02
453             	3.00832254e+02
454             	3.00832349e+02
455             	3.00832443e+02
456             	3.00832538e+02
457             	3.00832640e+02
458             	3.00832734e+02
459             	3.00832828e+02
460             	3.00832915e+02
461             	3.00832999e+02
462             	3.00833106e+02
463             	3.00833196e+02
464             	3.00833283e+02
465             	3.00833366e+02
466             	3.00833442e+02
467             	3.00833522e+02
468             	3.00833602e+02
469             	3.00833664e+02
470             	3.00833728e+02
471             	3.00833792e+02
472             	3.00833867e+02
473             	3.00833940e+02
474             	3.00834009e+02
475             	3.00834079e+02
476             	3.00834145e+02
477             	3.00834227e+02
478             	3.00834296e+02
479             	3.00834359e+02
480             	3.00834420e+02
481             	3.00834482e+02
482             	3.00834553e+02
483             	3.00834621e+02
484             	3.00834686e+02
485             	3.00834754e+02
486             	3.00834824e+02
487             	3.00834905e+02
488             	3.00834976e+02
489             	3.00835047e+02
490             	3.00835114e+02
491             	3.00835176e+02
492             	3.00835250e+02
493             	3.00835311e+02
494             	3.00835374e+02
495             	3.00835435e+02
496             	3.00835493e+02
497             	3.00835562e+02
498             	3.00835627e+02
499             	3.00835684e+02
500             	3.00835741e+02
501             	3.00835792e+02
502             	3.00835854e+02
503             	3.00835910e+02
504             	3.00835966e+02
505             	3.00836020e+02
506             	3.00836074e+02
507             	3.00836140e+02
508             	3.00836193e+02
509             	3.00836245e+02
510             	3.00836298e+02
511             	3.00836349e+02
512             	3.00836412e+02
513             	3.00836469e+02
514             	3.00836520e+02
515             	3.00836570e+02
516             	3.00836619e+02
517             	3.00836681e+02
518             	3.00836734e+02
519             	3.00836786e+02
520             	3.00836835e+02
521             	3.00836880e+02
522             	3.00836940e+02
523             	3.00836989e+02
524             	3.00837036e+02
525             	3.00837080e+02
526             	3.00837119e+02
527             	3.00837169e+02
528             	3.00837212e+02
529             	3.00837254e+02
530             	3.00837294e+02
531             	3.00837333e+02
532             	3.00837383e+02
533             	3.00837427e+02
534             	3.00837472e+02
535             	3.00837513e+02
536             	3.00837551e+02
537             	3.00837603e+02
538             	3.00837645e+02
539             	3.00837686e+02
540             	3.00837727e+02
541             	3.00837762e+02
542             	3.00837811e+02
543             	3.00837853e+02
544             	3.00837892e+02
545             	3.00837931e+02
546             	3.00837969e+02
547             	3.00838018e+02
548             	3.00838058e+02
549             	3.00838099e+02
550             	3.00838134e+02
551             	3.00838171e+02
552             	3.00838220e+02
553             	3.00838257e+02
554             	3.00838292e+02
555             	3.00838327e+02
556             	3.00838357e+02
557             	3.00838400e+02
558             	3.00838436e+02
559             	3.00838469e+02
560             	3.00838499e+02
561             	3.00838529e+02
562             	3.00838569e+02
563             	3.00838599e+02
564             	3.00838630e+02
565             	3.00838658e+02
566             	3.00838682e+02
567             	3.00838721e+02
568             	3.00838749e+02
569             	3.00838778e+02
570             	3.00838807e+02
571             	3.00838831e+02
572             	3.00838870e+02
573             	3.00838902e+02
574             	3.00838932e+02
575             	3.00838961e+02
576             	3.00838990e+02
577             	3.00839031e+02
578             	3.00839062e+02
579             	3.00839094e+02
580             	3.00839123e+02
581             	3.00839149e+02
582             	3.00839190e+02
583             	3.00839220e+02
584             	3.00839249e+02
585             	3.00839277e+02
586             	3.00839301e+02
587             	3.00839338e+02
588             	3.00839367e+02
589             	3.00839392e+02
590             	3.00839416e+02
591             	3.00839441e+02
592             	3.00839475e+02
593             	3.00839501e+02
594             	3.00839526e+02
595             	3.00839548e+02
596             	3.00839566e+02
597             	3.00839600e+02
598             	3.00839623e+02
599             	3.00839646e+02
600             	3.00839669e+02
601             	3.00839688e+02
602             	3.00839722e+02
603             	3.00839745e+02
604             	3.00839765e+02
605             	3.00839786e+02
606             	3.00839805e+02
607             	3.00839836e+02
608             	3.00839858e+02
609             	3.00839881e+02
610             	3.00839901e+02
611             	3.00839919e+02
612             	3.00839953e+02
613             	3.00839973e+02
614             	3.00839996e+02
615             	3.00840018e+02
616             	3.00840035e+02
617             	3.00840064e+02
618             	3.00840088e+02
619             	3.00840106e+02
620             	3.00840124e+02
621             	3.00840142e+02
