# Region        : cellZone component_3
# Cells         : 72
# Volume        : 1.22959680e-01
# Time          	volAverage(T)
1               	3.01597084e+02
2               	3.03149017e+02
3               	3.04334223e+02
4               	3.05294975e+02
5               	3.06236329e+02
6               	3.07194475e+02
7               	3.08135148e+02
8               	3.09026481e+02
9               	3.09886109e+02
10              	3.10727182e+02
11              	3.11569549e+02
12              	3.12340429e+02
13              	3.13038339e+02
14              	3.13661482e+02
15              	3.14239599e+02
16              	3.14798608e+02
17              	3.15327603e+02
18              	3.15830882e+02
19              	3.16302152e+02
20              	3.16698305e+02
21              	3.17100865e+02
22              	3.17564147e+02
23              	3.17989792e+02
24              	3.18408002e+02
25              	3.18833515e+02
26              	3.19247216e+02
27              	3.19600147e+02
28              	3.19916114e+02
29              	3.20174010e+02
30              	3.20411613e+02
31              	3.20629855e+02
32              	3.20867862e+02
33              	3.21172480e+02
34              	3.21507880e+02
35              	3.21858693e+02
36              	3.22200127e+02
37              	3.22420125e+02
38              	3.22495959e+02
39              	3.22543815e+02
40              	3.22619341e+02
41              	3.22729569e+02
42              	3.22846332e+02
43              	3.22974022e+02
44              	3.23101861e+02
45              	3.23240458e+02
46              	3.23355461e+02
47              	3.23447894e+02
48              	3.23527975e+02
49              	3.23684173e+02
50              	3.23674701e+02
51              	3.23570171e+02
52              	3.23382590e+02
53              	3.23286929e+02
54              	3.23346151e+02
55              	3.23516811e+02
56              	3.23662821e+02
57              	3.23764115e+02
58              	3.23795125e+02
59              	3.23803322e+02
60              	3.23774590e+02
61              	3.23825795e+02
62              	3.23864505e+02
63              	3.23913116e+02
64              	3.23920814e+02
65              	3.23857889e+02
66              	3.23725729e+02
67              	3.23612492e+02
68              	3.23643124e+02
69              	3.23765020e+02
70              	3.23877327e+02
71              	3.23935048e+02
72              	3.23927157e+02
73              	3.23933868e+02
74              	3.23984419e+02
75              	3.24037637e+02
76              	3.24045565e+02
77              	3.24026028e+02
78              	3.24025516e+02
79              	3.24029313e+02
80              	3.23988132e+02
81              	3.23932505e+02
82              	3.23905145e+02
83              	3.23908527e+02
84              	3.23947664e+02
85              	3.24008418e+02
86              	3.24086986e+02
87              	3.24157247e+02
88              	3.24203930e+02
89              	3.24234731e+02
90              	3.24259565e+02
91              	3.24295007e+02
92              	3.24364801e+02
93              	3.24433004e+02
94              	3.24540762e+02
95              	3.24673143e+02
96              	3.24812660e+02
97              	3.24949080e+02
98              	3.25065378e+02
99              	3.25177087e+02
100             	3.25271907e+02
101             	3.25348503e+02
102             	3.25417618e+02
103             	3.25483062e+02
104             	3.25544474e+02
105             	3.25606753e+02
106             	3.25673344e+02
107             	3.25733072e+02
108             	3.25777989e+02
109             	3.25824404e+02
110             	3.25869427e+02
111             	3.25916308e+02
112             	3.25973432e+02
113             	3.26042833e+02
114             	3.26102574e+02
115             	3.26166769e+02
116             	3.26226304e+02
117             	3.26276536e+02
118             	3.26312194e+02
119             	3.26333453e+02
120             	3.26356851e+02
121             	3.26386036e+02
122             	3.26416760e+02
123             	3.26447115e+02
124             	3.26478201e+02
125             	3.26488108e+02
126             	3.26515434e+02
127             	3.26554875e+02
128             	3.26601684e+02
129             	3.26662071e+02
130             	3.26716095e+02
131             	3.26762757e+02
132             	3.26805273e+02
133             	3.26857100e+02
134             	3.26915139e+02
135             	3.26957500e+02
136             	3.26991337e+02
137             	3.27023732e+02
138             	3.27054476e+02
139             	3.27080644e+02
140             	3.27080758e+02
141             	3.27102613e+02
142             	3.27138332e+02
143             	3.27183815e+02
144             	3.27238998e+02
145             	3.27278791e+02
146             	3.27322503e+02
147             	3.27377644e+02
148             	3.27427212e+02
149             	3.27461587e+02
150             	3.27486473e+02
151             	3.27508863e+02
152             	3.27536227e+02
153             	3.27572804e+02
154             	3.27580089e+02
155             	3.27606345e+02
156             	3.27650595e+02
157             	3.27692917e+02
158             	3.27715444e+02
159             	3.27737003e+02
160             	3.27765013e+02
161             	3.27790237e+02
162             	3.27809328e+02
163             	3.27826512e+02
164             	3.27846138e+02
165             	3.27864346e+02
166             	3.27885791e+02
167             	3.27905377e+02
168             	3.27923899e+02
169             	3.27947749e+02
170             	3.27975529e+02
171             	3.28005137e+02
172             	3.28033904e+02
173             	3.28060289e+02
174             	3.28088828e+02
175             	3.28116007e+02
176             	3.28139589e+02
177             	3.28164413e+02
178             	3.28190387e+02
179             	3.28215013e+02
180             	3.28240301e+02
181             	3.28263794e+02
182             	3.28285857e+02
183             	3.28305691e+02
184             	3.28323910e+02
185             	3.28340964e+02
186             	3.28358139e+02
187             	3.28374954e+02
188             	3.28387698e+02
189             	3.28400402e+02
190             	3.28416130e+02
191             	3.28433089e+02
192             	3.28448455e+02
193             	3.28460946e+02
194             	3.28474604e+02
195             	3.28489853e+02
196             	3.28504632e+02
197             	3.28517274e+02
198             	3.28528191e+02
199             	3.28541122e+02
200             	3.28553788e+02
201             	3.28564557e+02
202             	3.28574468e+02
203             	3.28585743e+02
204             	3.28598818e+02
205             	3.28611857e+02
206             	3.28622989e+02
207             	3.28631902e+02
208             	3.28639512e+02
209             	3.28641735e+02
210             	3.28644926e+02
211             	3.28653473e+02
212             	3.28661439e+02
213             	3.28667204e+02
214             	3.28670711e+02
215             	3.28674168e+02
216             	3.28679523e+02
217             	3.28686673e+02
218             	3.28693498e+02
219             	3.28694700e+02
220             	3.28696236e+02
221             	3.28700473e+02
222             	3.28704762e+02
223             	3.28708134e+02
224             	3.28712506e+02
225             	3.28717368e+02
226             	3.28718674e+02
227             	3.28718574e+02
228             	3.28722789e+02
229             	3.28732154e+02
230             	3.28744029e+02
231             	3.28756900e+02
232             	3.28769948e+02
233             	3.28781506e+02
234             	3.28792258e+02
235             	3.28803801e+02
236             	3.28807712e+02
237             	3.28811584e+02
238             	3.28818294e+02
239             	3.28824999e+02
240             	3.28830301e+02
241             	3.28834921e+02
242             	3.28839922e+02
243             	3.28844101e+02
244             	3.28845805e+02
245             	3.28849450e+02
246             	3.28851634e+02
247             	3.28853927e+02
248             	3.28854801e+02
249             	3.28855108e+02
250             	3.28858921e+02
251             	3.28863469e+02
252             	3.28867644e+02
253             	3.28871596e+02
254             	3.28875153e+02
255             	3.28878149e+02
256             	3.28881276e+02
257             	3.28884773e+02
258             	3.28888581e+02
259             	3.28894474e+02
260             	3.28900498e+02
261             	3.28906740e+02
262             	3.28913714e+02
263             	3.28920903e+02
264             	3.28927907e+02
265             	3.28934541e+02
266             	3.28940128e+02
267             	3.28943058e+02
268             	3.28945356e+02
269             	3.28947659e+02
270             	3.28950181e+02
271             	3.28952885e+02
272             	3.28955345e+02
273             	3.28957397e+02
274             	3.28957869e+02
275             	3.28958595e+02
276             	3.28960053e+02
277             	3.28961820e+02
278             	3.28963550e+02
279             	3.28965716e+02
280             	3.28967827e+02
281             	3.28969882e+02
282             	3.28971620e+02
283             	3.28973256e+02
284             	3.28974700e+02
285             	3.28975852e+02
286             	3.28976890e+02
287             	3.28977830e+02
288             	3.28980329e+02
289             	3.28983530e+02
290             	3.28988378e+02
291             	3.28992876e+02
292             	3.28996590e+02
293             	3.29000224e+02
294             	3.29004938e+02
295             	3.29010023e+02
296             	3.29012514e+02
297             	3.29013436e+02
298             	3.29015488e+02
299             	3.29018122e+02
300             	3.29019676e+02
301             	3.29020189e+02
302             	3.29020944e+02
303             	3.29022558e+02
304             	3.29023619e+02
305             	3.29024778e+02
306             	3.29026141e+02
307             	3.29027692e+02
308             	3.29029247e+02
309             	3.29031249e+02
310             	3.29032332e+02
311             	3.29032690e+02
312             	3.29033486e+02
313             	3.29034573e+02
314             	3.29035347e+02
315             	3.29035720e+02
316             	3.29036251e+02
317             	3.29037234e+02
318             	3.29038818e+02
319             	3.29041358e+02
320             	3.29044303e+02
321             	3.29047172e+02
322             	3.29049972e+02
323             	3.29054064e+02
324             	3.29055426e+02
325             	3.29055230e+02
326             	3.29056575e+02
327             	3.29058824e+02
328             	3.29060734e+02
329             	3.29061122e+02
330             	3.29060227e+02
331             	3.29059892e+02
332             	3.29059782e+02
333             	3.29060623e+02
334             	3.29062339e+02
335             	3.29063529e+02
336             	3.29064215e+02
337             	3.29064899e+02
338             	3.29065820e+02
339             	3.29068111e+02
340             	3.29071576e+02
341             	3.29071525e+02
342             	3.29070376e+02
343             	3.29071306e+02
344             	3.29073551e+02
345             	3.29075700e+02
346             	3.29077882e+02
347             	3.29079191e+02
348             	3.29081152e+02
349             	3.29083233e+02
350             	3.29084755e+02
351             	3.29084383e+02
352             	3.29082978e+02
353             	3.29084398e+02
354             	3.29085140e+02
355             	3.29084502e+02
356             	3.29083685e+02
357             	3.29083231e+02
358             	3.29083780e+02
359             	3.29084988e+02
360             	3.29085808e+02
361             	3.29086058e+02
362             	3.29086165e+02
363             	3.29086894e+02
364             	3.29088630e+02
365             	3.29090632e+02
366             	3.29090629e+02
367             	3.29088548e+02
368             	3.29088836e+02
369             	3.29090263e+02
370             	3.29090851e+02
371             	3.29091346e+02
372             	3.29093104e+02
373             	3.29094536e+02
374             	3.29093797e+02
375             	3.29093117e+02
376             	3.29093896e+02
377             	3.29093519e+02
378             	3.29092883e+02
379             	3.29093361e+02
380             	3.29093463e+02
381             	3.29093464e+02
382             	3.29093302e+02
383             	3.29092905e+02
384             	3.29092441e+02
385             	3.29092242e+02
386             	3.29092055e+02
387             	3.29091848e+02
388             	3.29091688e+02
389             	3.29091920e+02
390             	3.29092645e+02
391             	3.29093942e+02
392             	3.29093505e+02
393             	3.29092734e+02
394             	3.29092813e+02
395             	3.29093519e+02
396             	3.29094315e+02
397             	3.29094899e+02
398             	3.29095490e+02
399             	3.29095514e+02
400             	3.29094526e+02
401             	3.29093983e+02
402             	3.29094200e+02
403             	3.29094575e+02
404             	3.29094735e+02
405             	3.29094606e+02
406             	3.29094291e+02
407             	3.29094326e+02
408             	3.29094716e+02
409             	3.29095262e+02
410             	3.29096107e+02
411             	3.29097897e+02
412             	3.29098698e+02
413             	3.29099183e+02
414             	3.29099690e+02
415             	3.29100415e+02
416             	3.29100587e+02
417             	3.29101302e+02
418             	3.29101313e+02
419             	3.29101118e+02
420             	3.29101641e+02
421             	3.29102058e+02
422             	3.29101970e+02
423             	3.29101732e+02
424             	3.29101456e+02
425             	3.29101056e+02
426             	3.29100498e+02
427             	3.29100971e+02
428             	3.29100877e+02
429             	3.29100900e+02
430             	3.29100865e+02
431             	3.29100849e+02
432             	3.29101080e+02
433             	3.29101145e+02
434             	3.29101392e+02
435             	3.29101628e+02
436             	3.29102090e+02
437             	3.29102646e+02
438             	3.29103050e+02
439             	3.29103282e+02
440             	3.29103389e+02
441             	3.29103791e+02
442             	3.29103841e+02
443             	3.29103576e+02
444             	3.29103392e+02
445             	3.29103727e+02
446             	3.29104244e+02
447             	3.29104355e+02
448             	3.29104337e+02
449             	3.29104203e+02
450             	3.29104135e+02
451             	3.29104446e+02
452             	3.29104895e+02
453             	3.29104733e+02
454             	3.29104848e+02
455             	3.29105251e+02
456             	3.29105649e+02
457             	3.29105863e+02
458             	3.29105921e+02
459             	3.29105935e+02
460             	3.29105942e+02
461             	3.29106084e+02
462             	3.29106204e+02
463             	3.29106296e+02
464             	3.29106407e+02
465             	3.29106542e+02
466             	3.29106696e+02
467             	3.29107134e+02
468             	3.29107333e+02
469             	3.29107416e+02
470             	3.29107560e+02
471             	3.29107812e+02
472             	3.29108083e+02
473             	3.29108222e+02
474             	3.29108052e+02
475             	3.29108023e+02
476             	3.29108105e+02
477             	3.29108083e+02
478             	3.29107904e+02
479             	3.29107568e+02
480             	3.29107310e+02
481             	3.29107160e+02
482             	3.29107081e+02
483             	3.29106975e+02
484             	3.29106966e+02
485             	3.29107031e+02
486             	3.29107157e+02
487             	3.29107282e+02
488             	3.29107541e+02
489             	3.29107997e+02
490             	3.29108214e+02
491             	3.29108293e+02
492             	3.29108456e+02
493             	3.29108710e+02
494             	3.29108948e+02
495             	3.29109065e+02
496             	3.29109050e+02
497             	3.29108995e+02
498             	3.29108904e+02
499             	3.29108868e+02
500             	3.29108838e+02
501             	3.29108737e+02
502             	3.29108635e+02
503             	3.29108590e+02
504             	3.29108538e+02
505             	3.29108515e+02
506             	3.29108492e+02
507             	3.29108488e+02
508             	3.29108530e+02
509             	3.29108604e+02
510             	3.29108698e+02
511             	3.29108807e+02
512             	3.29108929e+02
513             	3.29109034e+02
514             	3.29109135e+02
515             	3.29109217e+02
516             	3.29109279e+02
517             	3.29109369e+02
518             	3.29109422e+02
519             	3.29109424e+02
520             	3.29109623e+02
521             	3.29109692e+02
522             	3.29109702e+02
523             	3.29109699e+02
524             	3.29109727e+02
525             	3.29109789e+02
526             	3.29109848e+02
527             	3.29109860e+02
528             	3.29109787e+02
529             	3.29109560e+02
530             	3.29109440e+02
531             	3.29109360e+02
532             	3.29109271e+02
533             	3.29109217e+02
534             	3.29109286e+02
535             	3.29109211e+02
536             	3.29109117e+02
537             	3.29108950e+02
538             	3.29108931e+02
539             	3.29109014e+02
540             	3.29109145e+02
541             	3.29109268e+02
542             	3.29109360e+02
543             	3.29109488e+02
544             	3.29109598e+02
545             	3.29109651e+02
546             	3.29109732e+02
547             	3.29109842e+02
548             	3.29109962e+02
549             	3.29110063e+02
550             	3.29110119e+02
551             	3.29110126e+02
552             	3.29110135e+02
553             	3.29110150e+02
554             	3.29110177e+02
555             	3.29110230e+02
556             	3.29110292e+02
557             	3.29110317e+02
558             	3.29110315e+02
559             	3.29110312e+02
560             	3.29110354e+02
561             	3.29110330e+02
562             	3.29110274e+02
563             	3.29110227e+02
564             	3.29110204e+02
565             	3.29110197e+02
566             	3.29110086e+02
567             	3.29110061e+02
568             	3.29110112e+02
569             	3.29110171e+02
570             	3.29110206e+02
571             	3.29110221e+02
572             	3.29110224e+02
573             	3.29110219e+02
574             	3.29110215e+02
575             	3.29110258e+02
576             	3.29110275e+02
577             	3.29110263e+02
578             	3.29110257e+02
579             	3.29110268e+02
580             	3.29110294e+02
581             	3.29110339e+02
582             	3.29110395e+02
583             	3.29110440e+02
584             	3.29110478e+02
585             	3.29110526e+02
586             	3.29110590e+02
587             	3.29110620e+02
588             	3.29110616e+02
589             	3.29110606e+02
590             	3.29110610e+02
591             	3.29110588e+02
592             	3.29110550e+02
593             	3.29110503e+02
594             	3.29110461e+02
595             	3.29110442e+02
596             	3.29110431e+02
597             	3.29110377e+02
598             	3.29110364e+02
599             	3.29110383e+02
600             	3.29110371e+02
601             	3.29110361e+02
602             	3.29110369e+02
603             	3.29110408e+02
604             	3.29110437e+02
605             	3.29110481e+02
606             	3.29110512e+02
607             	3.29110537e+02
608             	3.29110551e+02
609             	3.29110585e+02
610             	3.29110612e+02
611             	3.29110656e+02
612             	3.29110696e+02
613             	3.29110734e+02
614             	3.29110782e+02
615             	3.29110825e+02
616             	3.29110849e+02
617             	3.29110870e+02
618             	3.29110896e+02
619             	3.29110923e+02
620             	3.29110940e+02
621             	3.29110954e+02
