# Region        : cellZone component_2
# Cells         : 156
# Volume        : 3.15584022e-01
# Time          	volAverage(T)
1               	3.00632921e+02
2               	3.01256814e+02
3               	3.01808758e+02
4               	3.02310927e+02
5               	3.02793315e+02
6               	3.03264350e+02
7               	3.03726511e+02
8               	3.04181718e+02
9               	3.04620714e+02
10              	3.05040677e+02
11              	3.05450771e+02
12              	3.05848808e+02
13              	3.06238558e+02
14              	3.06607793e+02
15              	3.06972422e+02
16              	3.07336736e+02
17              	3.07696912e+02
18              	3.08054005e+02
19              	3.08406300e+02
20              	3.08747204e+02
21              	3.09074076e+02
22              	3.09402090e+02
23              	3.09714231e+02
24              	3.10020112e+02
25              	3.10316810e+02
26              	3.10603213e+02
27              	3.10875753e+02
28              	3.11136211e+02
29              	3.11382720e+02
30              	3.11634931e+02
31              	3.11893077e+02
32              	3.12147457e+02
33              	3.12402544e+02
34              	3.12631368e+02
35              	3.12804258e+02
36              	3.12963288e+02
37              	3.13117124e+02
38              	3.13289120e+02
39              	3.13489933e+02
40              	3.13692998e+02
41              	3.13888956e+02
42              	3.14082929e+02
43              	3.14272350e+02
44              	3.14463663e+02
45              	3.14638051e+02
46              	3.14798041e+02
47              	3.14937743e+02
48              	3.15068846e+02
49              	3.15172835e+02
50              	3.15237133e+02
51              	3.15311188e+02
52              	3.15340144e+02
53              	3.15413784e+02
54              	3.15511885e+02
55              	3.15611308e+02
56              	3.15718396e+02
57              	3.15824177e+02
58              	3.15922047e+02
59              	3.16018037e+02
60              	3.16110640e+02
61              	3.16197082e+02
62              	3.16290055e+02
63              	3.16398421e+02
64              	3.16513088e+02
65              	3.16621341e+02
66              	3.16733332e+02
67              	3.16839062e+02
68              	3.16946354e+02
69              	3.17056821e+02
70              	3.17160001e+02
71              	3.17257524e+02
72              	3.17353437e+02
73              	3.17468336e+02
74              	3.17574773e+02
75              	3.17664105e+02
76              	3.17733243e+02
77              	3.17787678e+02
78              	3.17862824e+02
79              	3.17952641e+02
80              	3.18060769e+02
81              	3.18169191e+02
82              	3.18267208e+02
83              	3.18343113e+02
84              	3.18403760e+02
85              	3.18458152e+02
86              	3.18511485e+02
87              	3.18582446e+02
88              	3.18660237e+02
89              	3.18725505e+02
90              	3.18770918e+02
91              	3.18777763e+02
92              	3.18804767e+02
93              	3.18829041e+02
94              	3.18856733e+02
95              	3.18889000e+02
96              	3.18924911e+02
97              	3.18986201e+02
98              	3.19077249e+02
99              	3.19174038e+02
100             	3.19266625e+02
101             	3.19350949e+02
102             	3.19430464e+02
103             	3.19508734e+02
104             	3.19582895e+02
105             	3.19662615e+02
106             	3.19735973e+02
107             	3.19803540e+02
108             	3.19868289e+02
109             	3.19927086e+02
110             	3.19981058e+02
111             	3.20032812e+02
112             	3.20087962e+02
113             	3.20141722e+02
114             	3.20204628e+02
115             	3.20269407e+02
116             	3.20340060e+02
117             	3.20405764e+02
118             	3.20469150e+02
119             	3.20521109e+02
120             	3.20573457e+02
121             	3.20624595e+02
122             	3.20679269e+02
123             	3.20743550e+02
124             	3.20817912e+02
125             	3.20900801e+02
126             	3.20990436e+02
127             	3.21072902e+02
128             	3.21152475e+02
129             	3.21232046e+02
130             	3.21310131e+02
131             	3.21383962e+02
132             	3.21448233e+02
133             	3.21500529e+02
134             	3.21542763e+02
135             	3.21580967e+02
136             	3.21622254e+02
137             	3.21661136e+02
138             	3.21705588e+02
139             	3.21749975e+02
140             	3.21794483e+02
141             	3.21838142e+02
142             	3.21880725e+02
143             	3.21922166e+02
144             	3.21963480e+02
145             	3.22005610e+02
146             	3.22047271e+02
147             	3.22092100e+02
148             	3.22143015e+02
149             	3.22200564e+02
150             	3.22259532e+02
151             	3.22320709e+02
152             	3.22383806e+02
153             	3.22447433e+02
154             	3.22505985e+02
155             	3.22558143e+02
156             	3.22605797e+02
157             	3.22651751e+02
158             	3.22696993e+02
159             	3.22731943e+02
160             	3.22763900e+02
161             	3.22797728e+02
162             	3.22834922e+02
163             	3.22875472e+02
164             	3.22918449e+02
165             	3.22958015e+02
166             	3.22995325e+02
167             	3.23033796e+02
168             	3.23073920e+02
169             	3.23113526e+02
170             	3.23153012e+02
171             	3.23187263e+02
172             	3.23231869e+02
173             	3.23279495e+02
174             	3.23325457e+02
175             	3.23366991e+02
176             	3.23408875e+02
177             	3.23446426e+02
178             	3.23480637e+02
179             	3.23510277e+02
180             	3.23534251e+02
181             	3.23556833e+02
182             	3.23579798e+02
183             	3.23593675e+02
184             	3.23609499e+02
185             	3.23634451e+02
186             	3.23651922e+02
187             	3.23669807e+02
188             	3.23695770e+02
189             	3.23727023e+02
190             	3.23760554e+02
191             	3.23795587e+02
192             	3.23831361e+02
193             	3.23866773e+02
194             	3.23901354e+02
195             	3.23929130e+02
196             	3.23956292e+02
197             	3.23984687e+02
198             	3.24013171e+02
199             	3.24043142e+02
200             	3.24072657e+02
201             	3.24103620e+02
202             	3.24132261e+02
203             	3.24155145e+02
204             	3.24179604e+02
205             	3.24203539e+02
206             	3.24222921e+02
207             	3.24242220e+02
208             	3.24260445e+02
209             	3.24276720e+02
210             	3.24294426e+02
211             	3.24305480e+02
212             	3.24318110e+02
213             	3.24337358e+02
214             	3.24353103e+02
215             	3.24369810e+02
216             	3.24394006e+02
217             	3.24425733e+02
218             	3.24440902e+02
219             	3.24456731e+02
220             	3.24475964e+02
221             	3.24495704e+02
222             	3.24514279e+02
223             	3.24533430e+02
224             	3.24545450e+02
225             	3.24557206e+02
226             	3.24569441e+02
227             	3.24583835e+02
228             	3.24592144e+02
229             	3.24602842e+02
230             	3.24617436e+02
231             	3.24633979e+02
232             	3.24649331e+02
233             	3.24665354e+02
234             	3.24678020e+02
235             	3.24690372e+02
236             	3.24703726e+02
237             	3.24718083e+02
238             	3.24731310e+02
239             	3.24739757e+02
240             	3.24745623e+02
241             	3.24750644e+02
242             	3.24758746e+02
243             	3.24764157e+02
244             	3.24772596e+02
245             	3.24786306e+02
246             	3.24806286e+02
247             	3.24824519e+02
248             	3.24835440e+02
249             	3.24841357e+02
250             	3.24848666e+02
251             	3.24856039e+02
252             	3.24861002e+02
253             	3.24863677e+02
254             	3.24866149e+02
255             	3.24865817e+02
256             	3.24864922e+02
257             	3.24863674e+02
258             	3.24863713e+02
259             	3.24865155e+02
260             	3.24869431e+02
261             	3.24869012e+02
262             	3.24872577e+02
263             	3.24880054e+02
264             	3.24887799e+02
265             	3.24893976e+02
266             	3.24898833e+02
267             	3.24902630e+02
268             	3.24904626e+02
269             	3.24910432e+02
270             	3.24914117e+02
271             	3.24920009e+02
272             	3.24927187e+02
273             	3.24934984e+02
274             	3.24941796e+02
275             	3.24947608e+02
276             	3.24952544e+02
277             	3.24956886e+02
278             	3.24959646e+02
279             	3.24961100e+02
280             	3.24956851e+02
281             	3.24956012e+02
282             	3.24957372e+02
283             	3.24961922e+02
284             	3.24971016e+02
285             	3.24984093e+02
286             	3.24997357e+02
287             	3.25010893e+02
288             	3.25022767e+02
289             	3.25028731e+02
290             	3.25033851e+02
291             	3.25039091e+02
292             	3.25043399e+02
293             	3.25048113e+02
294             	3.25049656e+02
295             	3.25050786e+02
296             	3.25054044e+02
297             	3.25054057e+02
298             	3.25059920e+02
299             	3.25068207e+02
300             	3.25074563e+02
301             	3.25083235e+02
302             	3.25088444e+02
303             	3.25090854e+02
304             	3.25090730e+02
305             	3.25092961e+02
306             	3.25091015e+02
307             	3.25090887e+02
308             	3.25093873e+02
309             	3.25098020e+02
310             	3.25105627e+02
311             	3.25114674e+02
312             	3.25127343e+02
313             	3.25141712e+02
314             	3.25156969e+02
315             	3.25163139e+02
316             	3.25164690e+02
317             	3.25165883e+02
318             	3.25164552e+02
319             	3.25161394e+02
320             	3.25152880e+02
321             	3.25149671e+02
322             	3.25144560e+02
323             	3.25144082e+02
324             	3.25140673e+02
325             	3.25140475e+02
326             	3.25144049e+02
327             	3.25149016e+02
328             	3.25154632e+02
329             	3.25160012e+02
330             	3.25164320e+02
331             	3.25167768e+02
332             	3.25171463e+02
333             	3.25168139e+02
334             	3.25170197e+02
335             	3.25175196e+02
336             	3.25178973e+02
337             	3.25178989e+02
338             	3.25183395e+02
339             	3.25190903e+02
340             	3.25195032e+02
341             	3.25200791e+02
342             	3.25205148e+02
343             	3.25208611e+02
344             	3.25209713e+02
345             	3.25213010e+02
346             	3.25208541e+02
347             	3.25207257e+02
348             	3.25203905e+02
349             	3.25203583e+02
350             	3.25202120e+02
351             	3.25203188e+02
352             	3.25207416e+02
353             	3.25210945e+02
354             	3.25214921e+02
355             	3.25220425e+02
356             	3.25228509e+02
357             	3.25235467e+02
358             	3.25236332e+02
359             	3.25237774e+02
360             	3.25236412e+02
361             	3.25233557e+02
362             	3.25230803e+02
363             	3.25226697e+02
364             	3.25222838e+02
365             	3.25219834e+02
366             	3.25218061e+02
367             	3.25217488e+02
368             	3.25216856e+02
369             	3.25217005e+02
370             	3.25214401e+02
371             	3.25213056e+02
372             	3.25215958e+02
373             	3.25214653e+02
374             	3.25212469e+02
375             	3.25211146e+02
376             	3.25210710e+02
377             	3.25211751e+02
378             	3.25213265e+02
379             	3.25215270e+02
380             	3.25220493e+02
381             	3.25218717e+02
382             	3.25219261e+02
383             	3.25222558e+02
384             	3.25224119e+02
385             	3.25227002e+02
386             	3.25228076e+02
387             	3.25228130e+02
388             	3.25227660e+02
389             	3.25223970e+02
390             	3.25221196e+02
391             	3.25218971e+02
392             	3.25217445e+02
393             	3.25218230e+02
394             	3.25219242e+02
395             	3.25218754e+02
396             	3.25220305e+02
397             	3.25223580e+02
398             	3.25224420e+02
399             	3.25223063e+02
400             	3.25222056e+02
401             	3.25220923e+02
402             	3.25219328e+02
403             	3.25218640e+02
404             	3.25218135e+02
405             	3.25212035e+02
406             	3.25208638e+02
407             	3.25208191e+02
408             	3.25209327e+02
409             	3.25210870e+02
410             	3.25213544e+02
411             	3.25217227e+02
412             	3.25221303e+02
413             	3.25225557e+02
414             	3.25229448e+02
415             	3.25232623e+02
416             	3.25233519e+02
417             	3.25234890e+02
418             	3.25233798e+02
419             	3.25233821e+02
420             	3.25234274e+02
421             	3.25234642e+02
422             	3.25235297e+02
423             	3.25236107e+02
424             	3.25240530e+02
425             	3.25237589e+02
426             	3.25238660e+02
427             	3.25242359e+02
428             	3.25247003e+02
429             	3.25251554e+02
430             	3.25255006e+02
431             	3.25261094e+02
432             	3.25263371e+02
433             	3.25264991e+02
434             	3.25267718e+02
435             	3.25271115e+02
436             	3.25272863e+02
437             	3.25271845e+02
438             	3.25271487e+02
439             	3.25271106e+02
440             	3.25270383e+02
441             	3.25270580e+02
442             	3.25271486e+02
443             	3.25266255e+02
444             	3.25267232e+02
445             	3.25266098e+02
446             	3.25266108e+02
447             	3.25267978e+02
448             	3.25271383e+02
449             	3.25274155e+02
450             	3.25277062e+02
451             	3.25277412e+02
452             	3.25277690e+02
453             	3.25279198e+02
454             	3.25280549e+02
455             	3.25281810e+02
456             	3.25283468e+02
457             	3.25285673e+02
458             	3.25288272e+02
459             	3.25291190e+02
460             	3.25294281e+02
461             	3.25294766e+02
462             	3.25294911e+02
463             	3.25296109e+02
464             	3.25298313e+02
465             	3.25298956e+02
466             	3.25298764e+02
467             	3.25299360e+02
468             	3.25299714e+02
469             	3.25298093e+02
470             	3.25296290e+02
471             	3.25295469e+02
472             	3.25298595e+02
473             	3.25301527e+02
474             	3.25304411e+02
475             	3.25308789e+02
476             	3.25312239e+02
477             	3.25315275e+02
478             	3.25319537e+02
479             	3.25320324e+02
480             	3.25322904e+02
481             	3.25325268e+02
482             	3.25327823e+02
483             	3.25332314e+02
484             	3.25333540e+02
485             	3.25333889e+02
486             	3.25332780e+02
487             	3.25333178e+02
488             	3.25334514e+02
489             	3.25335689e+02
490             	3.25336066e+02
491             	3.25336223e+02
492             	3.25337004e+02
493             	3.25331787e+02
494             	3.25328722e+02
495             	3.25327074e+02
496             	3.25327295e+02
497             	3.25326984e+02
498             	3.25328327e+02
499             	3.25330809e+02
500             	3.25332603e+02
501             	3.25335766e+02
502             	3.25339536e+02
503             	3.25342633e+02
504             	3.25344260e+02
505             	3.25344750e+02
506             	3.25345972e+02
507             	3.25347546e+02
508             	3.25348300e+02
509             	3.25348565e+02
510             	3.25346766e+02
511             	3.25344425e+02
512             	3.25342399e+02
513             	3.25340796e+02
514             	3.25339022e+02
515             	3.25338143e+02
516             	3.25337879e+02
517             	3.25337773e+02
518             	3.25337428e+02
519             	3.25337244e+02
520             	3.25336652e+02
521             	3.25336715e+02
522             	3.25335894e+02
523             	3.25334342e+02
524             	3.25333053e+02
525             	3.25331867e+02
526             	3.25331676e+02
527             	3.25331754e+02
528             	3.25332005e+02
529             	3.25332453e+02
530             	3.25332784e+02
531             	3.25333701e+02
532             	3.25336062e+02
533             	3.25336473e+02
534             	3.25334030e+02
535             	3.25333323e+02
536             	3.25333510e+02
537             	3.25332913e+02
538             	3.25331569e+02
539             	3.25330317e+02
540             	3.25329007e+02
541             	3.25327775e+02
542             	3.25326521e+02
543             	3.25325013e+02
544             	3.25323237e+02
545             	3.25321315e+02
546             	3.25320382e+02
547             	3.25320169e+02
548             	3.25319947e+02
549             	3.25320303e+02
550             	3.25320385e+02
551             	3.25319018e+02
552             	3.25317989e+02
553             	3.25318148e+02
554             	3.25318718e+02
555             	3.25319309e+02
556             	3.25320194e+02
557             	3.25321325e+02
558             	3.25322519e+02
559             	3.25323320e+02
560             	3.25324035e+02
561             	3.25323783e+02
562             	3.25322870e+02
563             	3.25323070e+02
564             	3.25323808e+02
565             	3.25324561e+02
566             	3.25325480e+02
567             	3.25325950e+02
568             	3.25326203e+02
569             	3.25326537e+02
570             	3.25326368e+02
571             	3.25325845e+02
572             	3.25325521e+02
573             	3.25325720e+02
574             	3.25325711e+02
575             	3.25325487e+02
576             	3.25325652e+02
577             	3.25326060e+02
578             	3.25326855e+02
579             	3.25327770e+02
580             	3.25329891e+02
581             	3.25331949e+02
582             	3.25332772e+02
583             	3.25331678e+02
584             	3.25331247e+02
585             	3.25331498e+02
586             	3.25331482e+02
587             	3.25331518e+02
588             	3.25331203e+02
589             	3.25331181e+02
590             	3.25332557e+02
591             	3.25332142e+02
592             	3.25332038e+02
593             	3.25332618e+02
594             	3.25333017e+02
595             	3.25334167e+02
596             	3.25335615e+02
597             	3.25336468e+02
598             	3.25337367e+02
599             	3.25338550e+02
600             	3.25339660e+02
601             	3.25340811e+02
602             	3.25341531e+02
603             	3.25342126e+02
604             	3.25342884e+02
605             	3.25343513e+02
606             	3.25344392e+02
607             	3.25345378e+02
608             	3.25345650e+02
609             	3.25345872e+02
610             	3.25345914e+02
611             	3.25346134e+02
612             	3.25346933e+02
613             	3.25348424e+02
614             	3.25347676e+02
615             	3.25347282e+02
616             	3.25347919e+02
617             	3.25347940e+02
618             	3.25348112e+02
619             	3.25348541e+02
620             	3.25348821e+02
621             	3.25348315e+02
