# Region        : cellZone component_1
# Cells         : 15
# Volume        : 1.73477097e-02
# Time          	volAverage(T)
1               	3.05287987e+02
2               	3.10282409e+02
3               	3.13922651e+02
4               	3.16873583e+02
5               	3.19584487e+02
6               	3.22077596e+02
7               	3.24365526e+02
8               	3.26465057e+02
9               	3.28488871e+02
10              	3.30399501e+02
11              	3.32174383e+02
12              	3.33807499e+02
13              	3.35299173e+02
14              	3.36733431e+02
15              	3.38301189e+02
16              	3.39710978e+02
17              	3.40956423e+02
18              	3.42035629e+02
19              	3.42982032e+02
20              	3.43946670e+02
21              	3.44946610e+02
22              	3.46041325e+02
23              	3.47032257e+02
24              	3.47860653e+02
25              	3.48597569e+02
26              	3.49166711e+02
27              	3.49718366e+02
28              	3.50186115e+02
29              	3.50611930e+02
30              	3.51013915e+02
31              	3.51177213e+02
32              	3.51305223e+02
33              	3.51500112e+02
34              	3.51601524e+02
35              	3.51525925e+02
36              	3.51496625e+02
37              	3.51662656e+02
38              	3.51889744e+02
39              	3.52175777e+02
40              	3.52413838e+02
41              	3.52451729e+02
42              	3.52380327e+02
43              	3.52533253e+02
44              	3.52691967e+02
45              	3.52778475e+02
46              	3.52964980e+02
47              	3.52934760e+02
48              	3.52910318e+02
49              	3.52985513e+02
50              	3.53273246e+02
51              	3.53715098e+02
52              	3.54187876e+02
53              	3.54678673e+02
54              	3.55065553e+02
55              	3.55313192e+02
56              	3.55500977e+02
57              	3.55659965e+02
58              	3.55898405e+02
59              	3.56182680e+02
60              	3.56381761e+02
61              	3.56445216e+02
62              	3.56586711e+02
63              	3.56768063e+02
64              	3.56959430e+02
65              	3.57182769e+02
66              	3.57459593e+02
67              	3.57687529e+02
68              	3.57928750e+02
69              	3.58282590e+02
70              	3.58834761e+02
71              	3.59400840e+02
72              	3.59943006e+02
73              	3.60276271e+02
74              	3.60554634e+02
75              	3.60749379e+02
76              	3.60797800e+02
77              	3.60830124e+02
78              	3.60637513e+02
79              	3.60357631e+02
80              	3.60282604e+02
81              	3.60340696e+02
82              	3.60417261e+02
83              	3.60519798e+02
84              	3.60706152e+02
85              	3.60963845e+02
86              	3.61146737e+02
87              	3.61377623e+02
88              	3.61471274e+02
89              	3.61509183e+02
90              	3.61520070e+02
91              	3.61554174e+02
92              	3.61520324e+02
93              	3.61491930e+02
94              	3.61479478e+02
95              	3.61533521e+02
96              	3.61617314e+02
97              	3.61713805e+02
98              	3.61782386e+02
99              	3.61855136e+02
100             	3.61885355e+02
101             	3.61784684e+02
102             	3.61736764e+02
103             	3.61871238e+02
104             	3.62110057e+02
105             	3.62321799e+02
106             	3.62563326e+02
107             	3.62673270e+02
108             	3.62821695e+02
109             	3.63070898e+02
110             	3.63338331e+02
111             	3.63397295e+02
112             	3.63417543e+02
113             	3.63330083e+02
114             	3.63121364e+02
115             	3.63082227e+02
116             	3.63111037e+02
117             	3.63142139e+02
118             	3.63189839e+02
119             	3.63199387e+02
120             	3.63204213e+02
121             	3.63277368e+02
122             	3.63417003e+02
123             	3.63451075e+02
124             	3.63504538e+02
125             	3.63653397e+02
126             	3.63831552e+02
127             	3.64078476e+02
128             	3.64288229e+02
129             	3.64390189e+02
130             	3.64511732e+02
131             	3.64730966e+02
132             	3.64930790e+02
133             	3.65073628e+02
134             	3.65074001e+02
135             	3.65011149e+02
136             	3.65012740e+02
137             	3.64952406e+02
138             	3.64932384e+02
139             	3.64949933e+02
140             	3.64947986e+02
141             	3.64887588e+02
142             	3.64874474e+02
143             	3.64909363e+02
144             	3.64966182e+02
145             	3.65038652e+02
146             	3.65035260e+02
147             	3.65094143e+02
148             	3.65238034e+02
149             	3.65403150e+02
150             	3.65597441e+02
151             	3.65704135e+02
152             	3.65747223e+02
153             	3.65793732e+02
154             	3.65843038e+02
155             	3.65850390e+02
156             	3.65739863e+02
157             	3.65656079e+02
158             	3.65649202e+02
159             	3.65730544e+02
160             	3.65757882e+02
161             	3.65764332e+02
162             	3.65825467e+02
163             	3.65932531e+02
164             	3.66059846e+02
165             	3.66181732e+02
166             	3.66289953e+02
167             	3.66384969e+02
168             	3.66448762e+02
169             	3.66480704e+02
170             	3.66494810e+02
171             	3.66470856e+02
172             	3.66416932e+02
173             	3.66256956e+02
174             	3.66142761e+02
175             	3.66078642e+02
176             	3.66037509e+02
177             	3.66000084e+02
178             	3.66044316e+02
179             	3.65990883e+02
180             	3.66027643e+02
181             	3.66039630e+02
182             	3.66073895e+02
183             	3.66136746e+02
184             	3.66083906e+02
185             	3.66099810e+02
186             	3.66128588e+02
187             	3.66094370e+02
188             	3.65966310e+02
189             	3.65821315e+02
190             	3.65740229e+02
191             	3.65751958e+02
192             	3.65842350e+02
193             	3.65770057e+02
194             	3.65796752e+02
195             	3.65962836e+02
196             	3.66140679e+02
197             	3.66394557e+02
198             	3.66556699e+02
199             	3.66767284e+02
200             	3.66859891e+02
201             	3.66908528e+02
202             	3.66932975e+02
203             	3.66927536e+02
204             	3.66864906e+02
205             	3.66777653e+02
206             	3.66704689e+02
207             	3.66628840e+02
208             	3.66580464e+02
209             	3.66575793e+02
210             	3.66537861e+02
211             	3.66548134e+02
212             	3.66565894e+02
213             	3.66579116e+02
214             	3.66603589e+02
215             	3.66669563e+02
216             	3.66725137e+02
217             	3.66716831e+02
218             	3.66786510e+02
219             	3.66891287e+02
220             	3.66977316e+02
221             	3.67045922e+02
222             	3.67098606e+02
223             	3.67151966e+02
224             	3.67152116e+02
225             	3.67097684e+02
226             	3.67003397e+02
227             	3.66873002e+02
228             	3.66746001e+02
229             	3.66548766e+02
230             	3.66370544e+02
231             	3.66175451e+02
232             	3.65979698e+02
233             	3.65882341e+02
234             	3.65854858e+02
235             	3.65717465e+02
236             	3.65668431e+02
237             	3.65698871e+02
238             	3.65773329e+02
239             	3.65810908e+02
240             	3.65825089e+02
241             	3.65868930e+02
242             	3.65904027e+02
243             	3.65956333e+02
244             	3.65905953e+02
245             	3.65874324e+02
246             	3.65905918e+02
247             	3.65987629e+02
248             	3.66071567e+02
249             	3.66144472e+02
250             	3.66245675e+02
251             	3.66331302e+02
252             	3.66150994e+02
253             	3.66023246e+02
254             	3.66029175e+02
255             	3.66090542e+02
256             	3.66235852e+02
257             	3.66290608e+02
258             	3.66380743e+02
259             	3.66531680e+02
260             	3.66544473e+02
261             	3.66548055e+02
262             	3.66551617e+02
263             	3.66577804e+02
264             	3.66652591e+02
265             	3.66722699e+02
266             	3.66757693e+02
267             	3.66766621e+02
268             	3.66779501e+02
269             	3.66703621e+02
270             	3.66668702e+02
271             	3.66709832e+02
272             	3.66778708e+02
273             	3.66845906e+02
274             	3.66936910e+02
275             	3.67015712e+02
276             	3.67091743e+02
277             	3.67195181e+02
278             	3.67315544e+02
279             	3.67357180e+02
280             	3.67373089e+02
281             	3.67384309e+02
282             	3.67383086e+02
283             	3.67349718e+02
284             	3.67223904e+02
285             	3.67130766e+02
286             	3.67096369e+02
287             	3.67061528e+02
288             	3.67014611e+02
289             	3.66978214e+02
290             	3.66985200e+02
291             	3.67004868e+02
292             	3.67032001e+02
293             	3.67064605e+02
294             	3.67072706e+02
295             	3.67067971e+02
296             	3.67051674e+02
297             	3.67040283e+02
298             	3.67007046e+02
299             	3.66855408e+02
300             	3.66712866e+02
301             	3.66661091e+02
302             	3.66653685e+02
303             	3.66653771e+02
304             	3.66657244e+02
305             	3.66702393e+02
306             	3.66754146e+02
307             	3.66769169e+02
308             	3.66786057e+02
309             	3.66812440e+02
310             	3.66843761e+02
311             	3.66844868e+02
312             	3.66818925e+02
313             	3.66768321e+02
314             	3.66751503e+02
315             	3.66743106e+02
316             	3.66718247e+02
317             	3.66676875e+02
318             	3.66696160e+02
319             	3.66696959e+02
320             	3.66755457e+02
321             	3.66787303e+02
322             	3.66810759e+02
323             	3.66860490e+02
324             	3.66822880e+02
325             	3.66791308e+02
326             	3.66803609e+02
327             	3.66780551e+02
328             	3.66766798e+02
329             	3.66747718e+02
330             	3.66761937e+02
331             	3.66770149e+02
332             	3.66794492e+02
333             	3.66826181e+02
334             	3.66851607e+02
335             	3.66873090e+02
336             	3.66890113e+02
337             	3.66900959e+02
338             	3.66905499e+02
339             	3.66890570e+02
340             	3.66846291e+02
341             	3.66774834e+02
342             	3.66721132e+02
343             	3.66711790e+02
344             	3.66712133e+02
345             	3.66708310e+02
346             	3.66704935e+02
347             	3.66717450e+02
348             	3.66753388e+02
349             	3.66782204e+02
350             	3.66812510e+02
351             	3.66850749e+02
352             	3.66880370e+02
353             	3.66897428e+02
354             	3.66901730e+02
355             	3.66901019e+02
356             	3.66879543e+02
357             	3.66832418e+02
358             	3.66803640e+02
359             	3.66806688e+02
360             	3.66813048e+02
361             	3.66824548e+02
362             	3.66850342e+02
363             	3.66899199e+02
364             	3.66925524e+02
365             	3.66951204e+02
366             	3.66968301e+02
367             	3.66963255e+02
368             	3.66955472e+02
369             	3.66979293e+02
370             	3.67013412e+02
371             	3.67050819e+02
372             	3.67096494e+02
373             	3.67142179e+02
374             	3.67175861e+02
375             	3.67182352e+02
376             	3.67185050e+02
377             	3.67165488e+02
378             	3.67147849e+02
379             	3.67120838e+02
380             	3.67076097e+02
381             	3.67055916e+02
382             	3.67049985e+02
383             	3.67048254e+02
384             	3.67053122e+02
385             	3.67110401e+02
386             	3.67135168e+02
387             	3.67164491e+02
388             	3.67189187e+02
389             	3.67210985e+02
390             	3.67225660e+02
391             	3.67222813e+02
392             	3.67202442e+02
393             	3.67183296e+02
394             	3.67168317e+02
395             	3.67152196e+02
396             	3.67138373e+02
397             	3.67128352e+02
398             	3.67136401e+02
399             	3.67148112e+02
400             	3.67166653e+02
401             	3.67174588e+02
402             	3.67181092e+02
403             	3.67179114e+02
404             	3.67166636e+02
405             	3.67149869e+02
406             	3.67126175e+02
407             	3.67106087e+02
408             	3.67083748e+02
409             	3.67062342e+02
410             	3.67045367e+02
411             	3.67031224e+02
412             	3.67026351e+02
413             	3.67030919e+02
414             	3.67034639e+02
415             	3.67037368e+02
416             	3.67040522e+02
417             	3.67042836e+02
418             	3.67042955e+02
419             	3.67041085e+02
420             	3.67037445e+02
421             	3.67032622e+02
422             	3.67031831e+02
423             	3.67034230e+02
424             	3.67045305e+02
425             	3.67052382e+02
426             	3.67059332e+02
427             	3.67065845e+02
428             	3.67073154e+02
429             	3.67079053e+02
430             	3.67083027e+02
431             	3.67083130e+02
432             	3.67083783e+02
433             	3.67078941e+02
434             	3.67067230e+02
435             	3.67059683e+02
436             	3.67055069e+02
437             	3.67051931e+02
438             	3.67047188e+02
439             	3.67043608e+02
440             	3.67042831e+02
441             	3.67047937e+02
442             	3.67055956e+02
443             	3.67058006e+02
444             	3.67057992e+02
445             	3.67058302e+02
446             	3.67060569e+02
447             	3.67059231e+02
448             	3.67054649e+02
449             	3.67042453e+02
450             	3.67033434e+02
451             	3.67017093e+02
452             	3.67006169e+02
453             	3.67000818e+02
454             	3.66997144e+02
455             	3.66994103e+02
456             	3.66993632e+02
457             	3.66995789e+02
458             	3.67000871e+02
459             	3.67006001e+02
460             	3.67010966e+02
461             	3.67017023e+02
462             	3.67019580e+02
463             	3.67019092e+02
464             	3.67016919e+02
465             	3.67013070e+02
466             	3.67008014e+02
467             	3.67001408e+02
468             	3.66994354e+02
469             	3.66987735e+02
470             	3.66981290e+02
471             	3.66974885e+02
472             	3.66972006e+02
473             	3.66970514e+02
474             	3.66969098e+02
475             	3.66967412e+02
476             	3.66967375e+02
477             	3.66970068e+02
478             	3.66974896e+02
479             	3.66980879e+02
480             	3.66983689e+02
481             	3.66983804e+02
482             	3.66982980e+02
483             	3.66981499e+02
484             	3.66977405e+02
485             	3.66970698e+02
486             	3.66966281e+02
487             	3.66962958e+02
488             	3.66961673e+02
489             	3.66960939e+02
490             	3.66952297e+02
491             	3.66946054e+02
492             	3.66942960e+02
493             	3.66941212e+02
494             	3.66937525e+02
495             	3.66935982e+02
496             	3.66936332e+02
497             	3.66939253e+02
498             	3.66946632e+02
499             	3.66953030e+02
500             	3.66963468e+02
501             	3.66974632e+02
502             	3.66981790e+02
503             	3.66986793e+02
504             	3.66990343e+02
505             	3.66991344e+02
506             	3.66990779e+02
507             	3.66989333e+02
508             	3.66988013e+02
509             	3.66985317e+02
510             	3.66981935e+02
511             	3.66979055e+02
512             	3.66976636e+02
513             	3.66974280e+02
514             	3.66971752e+02
515             	3.66969169e+02
516             	3.66966449e+02
517             	3.66963115e+02
518             	3.66956245e+02
519             	3.66952524e+02
520             	3.66950477e+02
521             	3.66948203e+02
522             	3.66945550e+02
523             	3.66945170e+02
524             	3.66945945e+02
525             	3.66945314e+02
526             	3.66944447e+02
527             	3.66944637e+02
528             	3.66944419e+02
529             	3.66945548e+02
530             	3.66947750e+02
531             	3.66950598e+02
532             	3.66954127e+02
533             	3.66957831e+02
534             	3.66961273e+02
535             	3.66965269e+02
536             	3.66971660e+02
537             	3.66977353e+02
538             	3.66982759e+02
539             	3.66987979e+02
540             	3.66992709e+02
541             	3.66996947e+02
542             	3.67000706e+02
543             	3.67003718e+02
544             	3.67009193e+02
545             	3.67015874e+02
546             	3.67021504e+02
547             	3.67026194e+02
548             	3.67030350e+02
549             	3.67039291e+02
550             	3.67043714e+02
551             	3.67044813e+02
552             	3.67044642e+02
553             	3.67043801e+02
554             	3.67042166e+02
555             	3.67039818e+02
556             	3.67038011e+02
557             	3.67034967e+02
558             	3.67031274e+02
559             	3.67024751e+02
560             	3.67018694e+02
561             	3.67012061e+02
562             	3.67004600e+02
563             	3.66993764e+02
564             	3.66986333e+02
565             	3.66981376e+02
566             	3.66979163e+02
567             	3.66975069e+02
568             	3.66970522e+02
569             	3.66966882e+02
570             	3.66964288e+02
571             	3.66962987e+02
572             	3.66964731e+02
573             	3.66964783e+02
574             	3.66963728e+02
575             	3.66962743e+02
576             	3.66962216e+02
577             	3.66961321e+02
578             	3.66959982e+02
579             	3.66958488e+02
580             	3.66957630e+02
581             	3.66958468e+02
582             	3.66960675e+02
583             	3.66965284e+02
584             	3.66969963e+02
585             	3.66972641e+02
586             	3.66974243e+02
587             	3.66978441e+02
588             	3.66983009e+02
589             	3.66988503e+02
590             	3.66995304e+02
591             	3.67003366e+02
592             	3.67010491e+02
593             	3.67015568e+02
594             	3.67019642e+02
595             	3.67026234e+02
596             	3.67029712e+02
597             	3.67030895e+02
598             	3.67030674e+02
599             	3.67029462e+02
600             	3.67028191e+02
601             	3.67026545e+02
602             	3.67024020e+02
603             	3.67020718e+02
604             	3.67016941e+02
605             	3.67011597e+02
606             	3.67007525e+02
607             	3.67004971e+02
608             	3.67003096e+02
609             	3.67001697e+02
610             	3.67000619e+02
611             	3.66999599e+02
612             	3.66998609e+02
613             	3.66997590e+02
614             	3.66996860e+02
615             	3.66997759e+02
616             	3.66997711e+02
617             	3.66999406e+02
618             	3.66999871e+02
619             	3.66999661e+02
620             	3.66999446e+02
621             	3.66998407e+02
