# Region        : cellZone component_2
# Cells         : 187
# Volume        : 3.22485202e-01
# Time          	volAverage(T)
1               	3.00251545e+02
2               	3.00501567e+02
3               	3.00741896e+02
4               	3.00976370e+02
5               	3.01207115e+02
6               	3.01435326e+02
7               	3.01661286e+02
8               	3.01885493e+02
9               	3.02108898e+02
10              	3.02330836e+02
11              	3.02551186e+02
12              	3.02769464e+02
13              	3.02982571e+02
14              	3.03191165e+02
15              	3.03394334e+02
16              	3.03595213e+02
17              	3.03794169e+02
18              	3.03993771e+02
19              	3.04193552e+02
20              	3.04391988e+02
21              	3.04588101e+02
22              	3.04781344e+02
23              	3.04972742e+02
24              	3.05163483e+02
25              	3.05354711e+02
26              	3.05545117e+02
27              	3.05733551e+02
28              	3.05918948e+02
29              	3.06099911e+02
30              	3.06275801e+02
31              	3.06447621e+02
32              	3.06624670e+02
33              	3.06799536e+02
34              	3.06972504e+02
35              	3.07144878e+02
36              	3.07316826e+02
37              	3.07489010e+02
38              	3.07659471e+02
39              	3.07829497e+02
40              	3.07994906e+02
41              	3.08158627e+02
42              	3.08320479e+02
43              	3.08476357e+02
44              	3.08624892e+02
45              	3.08766321e+02
46              	3.08902818e+02
47              	3.09032743e+02
48              	3.09163816e+02
49              	3.09303308e+02
50              	3.09442716e+02
51              	3.09580833e+02
52              	3.09718500e+02
53              	3.09856275e+02
54              	3.09991245e+02
55              	3.10124520e+02
56              	3.10260091e+02
57              	3.10397977e+02
58              	3.10531817e+02
59              	3.10660148e+02
60              	3.10781889e+02
61              	3.10897137e+02
62              	3.11005905e+02
63              	3.11117739e+02
64              	3.11239065e+02
65              	3.11357860e+02
66              	3.11474231e+02
67              	3.11588090e+02
68              	3.11695513e+02
69              	3.11808461e+02
70              	3.11921424e+02
71              	3.12034706e+02
72              	3.12144457e+02
73              	3.12260920e+02
74              	3.12372948e+02
75              	3.12478768e+02
76              	3.12576480e+02
77              	3.12680855e+02
78              	3.12787209e+02
79              	3.12895224e+02
80              	3.13001524e+02
81              	3.13108210e+02
82              	3.13215256e+02
83              	3.13317784e+02
84              	3.13423532e+02
85              	3.13528152e+02
86              	3.13629859e+02
87              	3.13732307e+02
88              	3.13835932e+02
89              	3.13939393e+02
90              	3.14044277e+02
91              	3.14144179e+02
92              	3.14240278e+02
93              	3.14335393e+02
94              	3.14429013e+02
95              	3.14520864e+02
96              	3.14612906e+02
97              	3.14703857e+02
98              	3.14795282e+02
99              	3.14888834e+02
100             	3.14981944e+02
101             	3.15076266e+02
102             	3.15172008e+02
103             	3.15268506e+02
104             	3.15363830e+02
105             	3.15459472e+02
106             	3.15555136e+02
107             	3.15650604e+02
108             	3.15745057e+02
109             	3.15838395e+02
110             	3.15929415e+02
111             	3.16021723e+02
112             	3.16113849e+02
113             	3.16203744e+02
114             	3.16293956e+02
115             	3.16383186e+02
116             	3.16474563e+02
117             	3.16563154e+02
118             	3.16649654e+02
119             	3.16734218e+02
120             	3.16817417e+02
121             	3.16898682e+02
122             	3.16979251e+02
123             	3.17057724e+02
124             	3.17135473e+02
125             	3.17213815e+02
126             	3.17292012e+02
127             	3.17369946e+02
128             	3.17446791e+02
129             	3.17524087e+02
130             	3.17600829e+02
131             	3.17676954e+02
132             	3.17751900e+02
133             	3.17827492e+02
134             	3.17901807e+02
135             	3.17975810e+02
136             	3.18049450e+02
137             	3.18122312e+02
138             	3.18193701e+02
139             	3.18265079e+02
140             	3.18334160e+02
141             	3.18405037e+02
142             	3.18474543e+02
143             	3.18543794e+02
144             	3.18612883e+02
145             	3.18680351e+02
146             	3.18747644e+02
147             	3.18814611e+02
148             	3.18880591e+02
149             	3.18945913e+02
150             	3.19009922e+02
151             	3.19074420e+02
152             	3.19139545e+02
153             	3.19205345e+02
154             	3.19273146e+02
155             	3.19341459e+02
156             	3.19410065e+02
157             	3.19478299e+02
158             	3.19545531e+02
159             	3.19611914e+02
160             	3.19678011e+02
161             	3.19740943e+02
162             	3.19803345e+02
163             	3.19863560e+02
164             	3.19923630e+02
165             	3.19983349e+02
166             	3.20042703e+02
167             	3.20102373e+02
168             	3.20161176e+02
169             	3.20219548e+02
170             	3.20278012e+02
171             	3.20335249e+02
172             	3.20391966e+02
173             	3.20447806e+02
174             	3.20501575e+02
175             	3.20555497e+02
176             	3.20609082e+02
177             	3.20662929e+02
178             	3.20716703e+02
179             	3.20770051e+02
180             	3.20819920e+02
181             	3.20870741e+02
182             	3.20921144e+02
183             	3.20970726e+02
184             	3.21019599e+02
185             	3.21068484e+02
186             	3.21117712e+02
187             	3.21166715e+02
188             	3.21216082e+02
189             	3.21265511e+02
190             	3.21313652e+02
191             	3.21360872e+02
192             	3.21407823e+02
193             	3.21453246e+02
194             	3.21499015e+02
195             	3.21543966e+02
196             	3.21589440e+02
197             	3.21634854e+02
198             	3.21680488e+02
199             	3.21726531e+02
200             	3.21771439e+02
201             	3.21815443e+02
202             	3.21858967e+02
203             	3.21901654e+02
204             	3.21943192e+02
205             	3.21984276e+02
206             	3.22025434e+02
207             	3.22067223e+02
208             	3.22109424e+02
209             	3.22151973e+02
210             	3.22193893e+02
211             	3.22235502e+02
212             	3.22276553e+02
213             	3.22317897e+02
214             	3.22358139e+02
215             	3.22398012e+02
216             	3.22437065e+02
217             	3.22475485e+02
218             	3.22513372e+02
219             	3.22551413e+02
220             	3.22588931e+02
221             	3.22626132e+02
222             	3.22663315e+02
223             	3.22699762e+02
224             	3.22735865e+02
225             	3.22772280e+02
226             	3.22808066e+02
227             	3.22843680e+02
228             	3.22877556e+02
229             	3.22911765e+02
230             	3.22946142e+02
231             	3.22980844e+02
232             	3.23015421e+02
233             	3.23049944e+02
234             	3.23084427e+02
235             	3.23118116e+02
236             	3.23151859e+02
237             	3.23185368e+02
238             	3.23218186e+02
239             	3.23250954e+02
240             	3.23284072e+02
241             	3.23316346e+02
242             	3.23348114e+02
243             	3.23379825e+02
244             	3.23410626e+02
245             	3.23440931e+02
246             	3.23471257e+02
247             	3.23501115e+02
248             	3.23530687e+02
249             	3.23557936e+02
250             	3.23585080e+02
251             	3.23612490e+02
252             	3.23640199e+02
253             	3.23667779e+02
254             	3.23695469e+02
255             	3.23723089e+02
256             	3.23750688e+02
257             	3.23778161e+02
258             	3.23805313e+02
259             	3.23831558e+02
260             	3.23857804e+02
261             	3.23884424e+02
262             	3.23910774e+02
263             	3.23936841e+02
264             	3.23962818e+02
265             	3.23988101e+02
266             	3.24013212e+02
267             	3.24038212e+02
268             	3.24062453e+02
269             	3.24086501e+02
270             	3.24109930e+02
271             	3.24133383e+02
272             	3.24157231e+02
273             	3.24181028e+02
274             	3.24204900e+02
275             	3.24229056e+02
276             	3.24252921e+02
277             	3.24276752e+02
278             	3.24300201e+02
279             	3.24323595e+02
280             	3.24346933e+02
281             	3.24369936e+02
282             	3.24393137e+02
283             	3.24416402e+02
284             	3.24439265e+02
285             	3.24461867e+02
286             	3.24484519e+02
287             	3.24506783e+02
288             	3.24528906e+02
289             	3.24551171e+02
290             	3.24573013e+02
291             	3.24594900e+02
292             	3.24616575e+02
293             	3.24638278e+02
294             	3.24660140e+02
295             	3.24681427e+02
296             	3.24702269e+02
297             	3.24723170e+02
298             	3.24743758e+02
299             	3.24764236e+02
300             	3.24784500e+02
301             	3.24804727e+02
302             	3.24825025e+02
303             	3.24844907e+02
304             	3.24864558e+02
305             	3.24884286e+02
306             	3.24903610e+02
307             	3.24923068e+02
308             	3.24942081e+02
309             	3.24960784e+02
310             	3.24979375e+02
311             	3.24997582e+02
312             	3.25015488e+02
313             	3.25033301e+02
314             	3.25050845e+02
315             	3.25068206e+02
316             	3.25085343e+02
317             	3.25102359e+02
318             	3.25119242e+02
319             	3.25135745e+02
320             	3.25152122e+02
321             	3.25168502e+02
322             	3.25184358e+02
323             	3.25200214e+02
324             	3.25216010e+02
325             	3.25231718e+02
326             	3.25247388e+02
327             	3.25262789e+02
328             	3.25278050e+02
329             	3.25293179e+02
330             	3.25308055e+02
331             	3.25322821e+02
332             	3.25337483e+02
333             	3.25352104e+02
334             	3.25366644e+02
335             	3.25380802e+02
336             	3.25395000e+02
337             	3.25409491e+02
338             	3.25423635e+02
339             	3.25437618e+02
340             	3.25451544e+02
341             	3.25465461e+02
342             	3.25479324e+02
343             	3.25493018e+02
344             	3.25506676e+02
345             	3.25520441e+02
346             	3.25534134e+02
347             	3.25547845e+02
348             	3.25561470e+02
349             	3.25575190e+02
350             	3.25588921e+02
351             	3.25602477e+02
352             	3.25615944e+02
353             	3.25629139e+02
354             	3.25642253e+02
355             	3.25655363e+02
356             	3.25668522e+02
357             	3.25681692e+02
358             	3.25694815e+02
359             	3.25707818e+02
360             	3.25720818e+02
361             	3.25733628e+02
362             	3.25746370e+02
363             	3.25759017e+02
364             	3.25771587e+02
365             	3.25784167e+02
366             	3.25796666e+02
367             	3.25809020e+02
368             	3.25821332e+02
369             	3.25833647e+02
370             	3.25845774e+02
371             	3.25857717e+02
372             	3.25869560e+02
373             	3.25881295e+02
374             	3.25893048e+02
375             	3.25904587e+02
376             	3.25916015e+02
377             	3.25927331e+02
378             	3.25938494e+02
379             	3.25949567e+02
380             	3.25960589e+02
381             	3.25971533e+02
382             	3.25982186e+02
383             	3.25992518e+02
384             	3.26002679e+02
385             	3.26012740e+02
386             	3.26022661e+02
387             	3.26032477e+02
388             	3.26042263e+02
389             	3.26052034e+02
390             	3.26061658e+02
391             	3.26071154e+02
392             	3.26080659e+02
393             	3.26089970e+02
394             	3.26099169e+02
395             	3.26108302e+02
396             	3.26117292e+02
397             	3.26126189e+02
398             	3.26134855e+02
399             	3.26143437e+02
400             	3.26151936e+02
401             	3.26160315e+02
402             	3.26168644e+02
403             	3.26176908e+02
404             	3.26185121e+02
405             	3.26193345e+02
406             	3.26201480e+02
407             	3.26209644e+02
408             	3.26217769e+02
409             	3.26225772e+02
410             	3.26233729e+02
411             	3.26241628e+02
412             	3.26249526e+02
413             	3.26257408e+02
414             	3.26265208e+02
415             	3.26273007e+02
416             	3.26280820e+02
417             	3.26288521e+02
418             	3.26296259e+02
419             	3.26303961e+02
420             	3.26311612e+02
421             	3.26319270e+02
422             	3.26326846e+02
423             	3.26334444e+02
424             	3.26342067e+02
425             	3.26349635e+02
426             	3.26357233e+02
427             	3.26364831e+02
428             	3.26372474e+02
429             	3.26380163e+02
430             	3.26387759e+02
431             	3.26395401e+02
432             	3.26403074e+02
433             	3.26410675e+02
434             	3.26418215e+02
435             	3.26425757e+02
436             	3.26433220e+02
437             	3.26440697e+02
438             	3.26448170e+02
439             	3.26455705e+02
440             	3.26463275e+02
441             	3.26470746e+02
442             	3.26478153e+02
443             	3.26485459e+02
444             	3.26492777e+02
445             	3.26499984e+02
446             	3.26506778e+02
447             	3.26513628e+02
448             	3.26520466e+02
449             	3.26527172e+02
450             	3.26533765e+02
451             	3.26540294e+02
452             	3.26546741e+02
453             	3.26553111e+02
454             	3.26559272e+02
455             	3.26565365e+02
456             	3.26571322e+02
457             	3.26577057e+02
458             	3.26582737e+02
459             	3.26588268e+02
460             	3.26593664e+02
461             	3.26599048e+02
462             	3.26604262e+02
463             	3.26609440e+02
464             	3.26614540e+02
465             	3.26619515e+02
466             	3.26624409e+02
467             	3.26629285e+02
468             	3.26634049e+02
469             	3.26638779e+02
470             	3.26643387e+02
471             	3.26647987e+02
472             	3.26652542e+02
473             	3.26657018e+02
474             	3.26661517e+02
475             	3.26666021e+02
476             	3.26670496e+02
477             	3.26675026e+02
478             	3.26679510e+02
479             	3.26684041e+02
480             	3.26688564e+02
481             	3.26693056e+02
482             	3.26697568e+02
483             	3.26702115e+02
484             	3.26706606e+02
485             	3.26711174e+02
486             	3.26715713e+02
487             	3.26720318e+02
488             	3.26724938e+02
489             	3.26729513e+02
490             	3.26734125e+02
491             	3.26738739e+02
492             	3.26743354e+02
493             	3.26748029e+02
494             	3.26752673e+02
495             	3.26757397e+02
496             	3.26762068e+02
497             	3.26766665e+02
498             	3.26771367e+02
499             	3.26776097e+02
500             	3.26780809e+02
501             	3.26785566e+02
502             	3.26790291e+02
503             	3.26795026e+02
504             	3.26799755e+02
505             	3.26804425e+02
506             	3.26809062e+02
507             	3.26813658e+02
508             	3.26818297e+02
509             	3.26823021e+02
510             	3.26827672e+02
511             	3.26832372e+02
512             	3.26837054e+02
513             	3.26841644e+02
514             	3.26846151e+02
515             	3.26850641e+02
516             	3.26855019e+02
517             	3.26859367e+02
518             	3.26863618e+02
519             	3.26867901e+02
520             	3.26872143e+02
521             	3.26876283e+02
522             	3.26880347e+02
523             	3.26884315e+02
524             	3.26888223e+02
525             	3.26892076e+02
526             	3.26895728e+02
527             	3.26899323e+02
528             	3.26902846e+02
529             	3.26906278e+02
530             	3.26909599e+02
531             	3.26912881e+02
532             	3.26916075e+02
533             	3.26919084e+02
534             	3.26922028e+02
535             	3.26924986e+02
536             	3.26927929e+02
537             	3.26930751e+02
538             	3.26933500e+02
539             	3.26936176e+02
540             	3.26938774e+02
541             	3.26941350e+02
542             	3.26943862e+02
543             	3.26946374e+02
544             	3.26948863e+02
545             	3.26951352e+02
546             	3.26953870e+02
547             	3.26956401e+02
548             	3.26958911e+02
549             	3.26961462e+02
550             	3.26964025e+02
551             	3.26966612e+02
552             	3.26969176e+02
553             	3.26971756e+02
554             	3.26974381e+02
555             	3.26977057e+02
556             	3.26979683e+02
557             	3.26982324e+02
558             	3.26984987e+02
559             	3.26987713e+02
560             	3.26990456e+02
561             	3.26993186e+02
562             	3.26995846e+02
563             	3.26998541e+02
564             	3.27001239e+02
565             	3.27003972e+02
566             	3.27006686e+02
567             	3.27009441e+02
568             	3.27012209e+02
569             	3.27014981e+02
570             	3.27017768e+02
571             	3.27020615e+02
572             	3.27023450e+02
573             	3.27026286e+02
574             	3.27029159e+02
575             	3.27032130e+02
576             	3.27035131e+02
577             	3.27038116e+02
578             	3.27041103e+02
579             	3.27044082e+02
580             	3.27047029e+02
581             	3.27049959e+02
582             	3.27052886e+02
583             	3.27055755e+02
584             	3.27058555e+02
585             	3.27061330e+02
586             	3.27064076e+02
587             	3.27066811e+02
588             	3.27069498e+02
589             	3.27072171e+02
590             	3.27074798e+02
591             	3.27077433e+02
592             	3.27080031e+02
593             	3.27082548e+02
594             	3.27084995e+02
595             	3.27087383e+02
596             	3.27089684e+02
597             	3.27091934e+02
598             	3.27094100e+02
599             	3.27096265e+02
600             	3.27098308e+02
601             	3.27100293e+02
602             	3.27102210e+02
603             	3.27104073e+02
604             	3.27105817e+02
605             	3.27107525e+02
606             	3.27109188e+02
607             	3.27110853e+02
608             	3.27112487e+02
609             	3.27114083e+02
610             	3.27115656e+02
611             	3.27117182e+02
612             	3.27118616e+02
613             	3.27120026e+02
614             	3.27121378e+02
615             	3.27122620e+02
616             	3.27123883e+02
617             	3.27125159e+02
618             	3.27126436e+02
619             	3.27127720e+02
620             	3.27128986e+02
621             	3.27130274e+02
