# Region        : cellZone component_2
# Cells         : 108
# Volume        : 1.74316519e-01
# Time          	volAverage(T)
1               	3.00746496e+02
2               	3.01484622e+02
3               	3.02178019e+02
4               	3.02842131e+02
5               	3.03488658e+02
6               	3.04118922e+02
7               	3.04738316e+02
8               	3.05350320e+02
9               	3.05957296e+02
10              	3.06556993e+02
11              	3.07143299e+02
12              	3.07712130e+02
13              	3.08254495e+02
14              	3.08781165e+02
15              	3.09280579e+02
16              	3.09789935e+02
17              	3.10301656e+02
18              	3.10812579e+02
19              	3.11321666e+02
20              	3.11827518e+02
21              	3.12331017e+02
22              	3.12829381e+02
23              	3.13321468e+02
24              	3.13804384e+02
25              	3.14275783e+02
26              	3.14739842e+02
27              	3.15188475e+02
28              	3.15628161e+02
29              	3.16055470e+02
30              	3.16469598e+02
31              	3.16877674e+02
32              	3.17288386e+02
33              	3.17694952e+02
34              	3.18092396e+02
35              	3.18444192e+02
36              	3.18788372e+02
37              	3.19113364e+02
38              	3.19438339e+02
39              	3.19778150e+02
40              	3.20112743e+02
41              	3.20440808e+02
42              	3.20763566e+02
43              	3.21083286e+02
44              	3.21400368e+02
45              	3.21719700e+02
46              	3.22045406e+02
47              	3.22370451e+02
48              	3.22700546e+02
49              	3.23028373e+02
50              	3.23355380e+02
51              	3.23680776e+02
52              	3.23995735e+02
53              	3.24301437e+02
54              	3.24597093e+02
55              	3.24884256e+02
56              	3.25170635e+02
57              	3.25448414e+02
58              	3.25721754e+02
59              	3.25983213e+02
60              	3.26232172e+02
61              	3.26495792e+02
62              	3.26750858e+02
63              	3.26994450e+02
64              	3.27238664e+02
65              	3.27473455e+02
66              	3.27705328e+02
67              	3.27930112e+02
68              	3.28151243e+02
69              	3.28375281e+02
70              	3.28609847e+02
71              	3.28850902e+02
72              	3.29094559e+02
73              	3.29328826e+02
74              	3.29568542e+02
75              	3.29789835e+02
76              	3.29996352e+02
77              	3.30191410e+02
78              	3.30380793e+02
79              	3.30568307e+02
80              	3.30756677e+02
81              	3.30949115e+02
82              	3.31144404e+02
83              	3.31341634e+02
84              	3.31533021e+02
85              	3.31726664e+02
86              	3.31912078e+02
87              	3.32090717e+02
88              	3.32262423e+02
89              	3.32434039e+02
90              	3.32606708e+02
91              	3.32780611e+02
92              	3.32955201e+02
93              	3.33127397e+02
94              	3.33297173e+02
95              	3.33461388e+02
96              	3.33619669e+02
97              	3.33773330e+02
98              	3.33923210e+02
99              	3.34070225e+02
100             	3.34214189e+02
101             	3.34358168e+02
102             	3.34501018e+02
103             	3.34640750e+02
104             	3.34779757e+02
105             	3.34918983e+02
106             	3.35057754e+02
107             	3.35196698e+02
108             	3.35334888e+02
109             	3.35472156e+02
110             	3.35608052e+02
111             	3.35744867e+02
112             	3.35880702e+02
113             	3.36016674e+02
114             	3.36151605e+02
115             	3.36285957e+02
116             	3.36417146e+02
117             	3.36541349e+02
118             	3.36664251e+02
119             	3.36784229e+02
120             	3.36900627e+02
121             	3.37013831e+02
122             	3.37124112e+02
123             	3.37232516e+02
124             	3.37341074e+02
125             	3.37450679e+02
126             	3.37558254e+02
127             	3.37665207e+02
128             	3.37772124e+02
129             	3.37877950e+02
130             	3.37977216e+02
131             	3.38073420e+02
132             	3.38167720e+02
133             	3.38259624e+02
134             	3.38348870e+02
135             	3.38436922e+02
136             	3.38524540e+02
137             	3.38611847e+02
138             	3.38701823e+02
139             	3.38793097e+02
140             	3.38884384e+02
141             	3.38977210e+02
142             	3.39071765e+02
143             	3.39166949e+02
144             	3.39261391e+02
145             	3.39353866e+02
146             	3.39439019e+02
147             	3.39522710e+02
148             	3.39603967e+02
149             	3.39682961e+02
150             	3.39760899e+02
151             	3.39838198e+02
152             	3.39913188e+02
153             	3.39987448e+02
154             	3.40062746e+02
155             	3.40137138e+02
156             	3.40210116e+02
157             	3.40283112e+02
158             	3.40356055e+02
159             	3.40429154e+02
160             	3.40501557e+02
161             	3.40571158e+02
162             	3.40634711e+02
163             	3.40697450e+02
164             	3.40759625e+02
165             	3.40820246e+02
166             	3.40877813e+02
167             	3.40934306e+02
168             	3.40990645e+02
169             	3.41048203e+02
170             	3.41107240e+02
171             	3.41165869e+02
172             	3.41225035e+02
173             	3.41285336e+02
174             	3.41345228e+02
175             	3.41399148e+02
176             	3.41452586e+02
177             	3.41504389e+02
178             	3.41553907e+02
179             	3.41600311e+02
180             	3.41645673e+02
181             	3.41690238e+02
182             	3.41737894e+02
183             	3.41786534e+02
184             	3.41836889e+02
185             	3.41888608e+02
186             	3.41942544e+02
187             	3.41995399e+02
188             	3.42042924e+02
189             	3.42093032e+02
190             	3.42138640e+02
191             	3.42180966e+02
192             	3.42220174e+02
193             	3.42257184e+02
194             	3.42292911e+02
195             	3.42328834e+02
196             	3.42366300e+02
197             	3.42404309e+02
198             	3.42445620e+02
199             	3.42489930e+02
200             	3.42530712e+02
201             	3.42566650e+02
202             	3.42602090e+02
203             	3.42637501e+02
204             	3.42666974e+02
205             	3.42693536e+02
206             	3.42719928e+02
207             	3.42746935e+02
208             	3.42776932e+02
209             	3.42807895e+02
210             	3.42839589e+02
211             	3.42872920e+02
212             	3.42909230e+02
213             	3.42939484e+02
214             	3.42969489e+02
215             	3.43001804e+02
216             	3.43030887e+02
217             	3.43058024e+02
218             	3.43085494e+02
219             	3.43113517e+02
220             	3.43143124e+02
221             	3.43175579e+02
222             	3.43206147e+02
223             	3.43237281e+02
224             	3.43271733e+02
225             	3.43304644e+02
226             	3.43332341e+02
227             	3.43361254e+02
228             	3.43389484e+02
229             	3.43414016e+02
230             	3.43437085e+02
231             	3.43458812e+02
232             	3.43480500e+02
233             	3.43501887e+02
234             	3.43525367e+02
235             	3.43548731e+02
236             	3.43572622e+02
237             	3.43600238e+02
238             	3.43629977e+02
239             	3.43653765e+02
240             	3.43680371e+02
241             	3.43707008e+02
242             	3.43730719e+02
243             	3.43752883e+02
244             	3.43774078e+02
245             	3.43794347e+02
246             	3.43814615e+02
247             	3.43835984e+02
248             	3.43859582e+02
249             	3.43885498e+02
250             	3.43910831e+02
251             	3.43933462e+02
252             	3.43954689e+02
253             	3.43977665e+02
254             	3.43998341e+02
255             	3.44015602e+02
256             	3.44029723e+02
257             	3.44043308e+02
258             	3.44057800e+02
259             	3.44073724e+02
260             	3.44091538e+02
261             	3.44108404e+02
262             	3.44126537e+02
263             	3.44145857e+02
264             	3.44166183e+02
265             	3.44183362e+02
266             	3.44200149e+02
267             	3.44216738e+02
268             	3.44232810e+02
269             	3.44247201e+02
270             	3.44261616e+02
271             	3.44275438e+02
272             	3.44290609e+02
273             	3.44306422e+02
274             	3.44323225e+02
275             	3.44340399e+02
276             	3.44358773e+02
277             	3.44374779e+02
278             	3.44389226e+02
279             	3.44403524e+02
280             	3.44416237e+02
281             	3.44427149e+02
282             	3.44437037e+02
283             	3.44446064e+02
284             	3.44455951e+02
285             	3.44467334e+02
286             	3.44479831e+02
287             	3.44493378e+02
288             	3.44507252e+02
289             	3.44522127e+02
290             	3.44535072e+02
291             	3.44545924e+02
292             	3.44558419e+02
293             	3.44570732e+02
294             	3.44583013e+02
295             	3.44595620e+02
296             	3.44609232e+02
297             	3.44623396e+02
298             	3.44639298e+02
299             	3.44656216e+02
300             	3.44670761e+02
301             	3.44684220e+02
302             	3.44695451e+02
303             	3.44707237e+02
304             	3.44718377e+02
305             	3.44728270e+02
306             	3.44737595e+02
307             	3.44745761e+02
308             	3.44753603e+02
309             	3.44761444e+02
310             	3.44770478e+02
311             	3.44781151e+02
312             	3.44793302e+02
313             	3.44806061e+02
314             	3.44818957e+02
315             	3.44833014e+02
316             	3.44843725e+02
317             	3.44853647e+02
318             	3.44863089e+02
319             	3.44870610e+02
320             	3.44875686e+02
321             	3.44879732e+02
322             	3.44883594e+02
323             	3.44888331e+02
324             	3.44894754e+02
325             	3.44903254e+02
326             	3.44912456e+02
327             	3.44921273e+02
328             	3.44928774e+02
329             	3.44935430e+02
330             	3.44943024e+02
331             	3.44949726e+02
332             	3.44956344e+02
333             	3.44962934e+02
334             	3.44969157e+02
335             	3.44976194e+02
336             	3.44984299e+02
337             	3.44992815e+02
338             	3.45001835e+02
339             	3.45010915e+02
340             	3.45019152e+02
341             	3.45026918e+02
342             	3.45034171e+02
343             	3.45040012e+02
344             	3.45045668e+02
345             	3.45050328e+02
346             	3.45054246e+02
347             	3.45058086e+02
348             	3.45061518e+02
349             	3.45065838e+02
350             	3.45071001e+02
351             	3.45077039e+02
352             	3.45083078e+02
353             	3.45089337e+02
354             	3.45096039e+02
355             	3.45101977e+02
356             	3.45107654e+02
357             	3.45113049e+02
358             	3.45118697e+02
359             	3.45124623e+02
360             	3.45128845e+02
361             	3.45133293e+02
362             	3.45137874e+02
363             	3.45141776e+02
364             	3.45145162e+02
365             	3.45147831e+02
366             	3.45149721e+02
367             	3.45152039e+02
368             	3.45154788e+02
369             	3.45157825e+02
370             	3.45161549e+02
371             	3.45166067e+02
372             	3.45171664e+02
373             	3.45177942e+02
374             	3.45184371e+02
375             	3.45191002e+02
376             	3.45196727e+02
377             	3.45200462e+02
378             	3.45203799e+02
379             	3.45206500e+02
380             	3.45208788e+02
381             	3.45210505e+02
382             	3.45211598e+02
383             	3.45212546e+02
384             	3.45213726e+02
385             	3.45215490e+02
386             	3.45218126e+02
387             	3.45221944e+02
388             	3.45226787e+02
389             	3.45232489e+02
390             	3.45238389e+02
391             	3.45244091e+02
392             	3.45249384e+02
393             	3.45253980e+02
394             	3.45257837e+02
395             	3.45261385e+02
396             	3.45263348e+02
397             	3.45265818e+02
398             	3.45268351e+02
399             	3.45270843e+02
400             	3.45272861e+02
401             	3.45275497e+02
402             	3.45278518e+02
403             	3.45281638e+02
404             	3.45285082e+02
405             	3.45288905e+02
406             	3.45292928e+02
407             	3.45297014e+02
408             	3.45300588e+02
409             	3.45303640e+02
410             	3.45306408e+02
411             	3.45308827e+02
412             	3.45310890e+02
413             	3.45312858e+02
414             	3.45314623e+02
415             	3.45316379e+02
416             	3.45317939e+02
417             	3.45319625e+02
418             	3.45321348e+02
419             	3.45323221e+02
420             	3.45325378e+02
421             	3.45327818e+02
422             	3.45330445e+02
423             	3.45333264e+02
424             	3.45336181e+02
425             	3.45339089e+02
426             	3.45341483e+02
427             	3.45343551e+02
428             	3.45345527e+02
429             	3.45347297e+02
430             	3.45348796e+02
431             	3.45350188e+02
432             	3.45351665e+02
433             	3.45353419e+02
434             	3.45355184e+02
435             	3.45357059e+02
436             	3.45359090e+02
437             	3.45361250e+02
438             	3.45363454e+02
439             	3.45365610e+02
440             	3.45367522e+02
441             	3.45369240e+02
442             	3.45371017e+02
443             	3.45372502e+02
444             	3.45373774e+02
445             	3.45374650e+02
446             	3.45375472e+02
447             	3.45376225e+02
448             	3.45376830e+02
449             	3.45377427e+02
450             	3.45378119e+02
451             	3.45379029e+02
452             	3.45380395e+02
453             	3.45381827e+02
454             	3.45383303e+02
455             	3.45384952e+02
456             	3.45386597e+02
457             	3.45388197e+02
458             	3.45389488e+02
459             	3.45390754e+02
460             	3.45391877e+02
461             	3.45392855e+02
462             	3.45393804e+02
463             	3.45394749e+02
464             	3.45395713e+02
465             	3.45396894e+02
466             	3.45398371e+02
467             	3.45399849e+02
468             	3.45401409e+02
469             	3.45402883e+02
470             	3.45404453e+02
471             	3.45405844e+02
472             	3.45407096e+02
473             	3.45408111e+02
474             	3.45409063e+02
475             	3.45409965e+02
476             	3.45410787e+02
477             	3.45411523e+02
478             	3.45412101e+02
479             	3.45412777e+02
480             	3.45413412e+02
481             	3.45414052e+02
482             	3.45414775e+02
483             	3.45415579e+02
484             	3.45416405e+02
485             	3.45417257e+02
486             	3.45418060e+02
487             	3.45418845e+02
488             	3.45419668e+02
489             	3.45420492e+02
490             	3.45421319e+02
491             	3.45422210e+02
492             	3.45423130e+02
493             	3.45423860e+02
494             	3.45424552e+02
495             	3.45425156e+02
496             	3.45425700e+02
497             	3.45426171e+02
498             	3.45426590e+02
499             	3.45427029e+02
500             	3.45427641e+02
501             	3.45428273e+02
502             	3.45428929e+02
503             	3.45429622e+02
504             	3.45430374e+02
505             	3.45431130e+02
506             	3.45431836e+02
507             	3.45432449e+02
508             	3.45433031e+02
509             	3.45433535e+02
510             	3.45433995e+02
511             	3.45434419e+02
512             	3.45434820e+02
513             	3.45435236e+02
514             	3.45435701e+02
515             	3.45436272e+02
516             	3.45436925e+02
517             	3.45437580e+02
518             	3.45438181e+02
519             	3.45438727e+02
520             	3.45439189e+02
521             	3.45439646e+02
522             	3.45440035e+02
523             	3.45440433e+02
524             	3.45440810e+02
525             	3.45441168e+02
526             	3.45441535e+02
527             	3.45441907e+02
528             	3.45442368e+02
529             	3.45442804e+02
530             	3.45443233e+02
531             	3.45443657e+02
532             	3.45444094e+02
533             	3.45444533e+02
534             	3.45444925e+02
535             	3.45445273e+02
536             	3.45445613e+02
537             	3.45445932e+02
538             	3.45446218e+02
539             	3.45446480e+02
540             	3.45446730e+02
541             	3.45446977e+02
542             	3.45447235e+02
543             	3.45447511e+02
544             	3.45447826e+02
545             	3.45448198e+02
546             	3.45448573e+02
547             	3.45448956e+02
548             	3.45449346e+02
549             	3.45449722e+02
550             	3.45450077e+02
551             	3.45450415e+02
552             	3.45450708e+02
553             	3.45450998e+02
554             	3.45451295e+02
555             	3.45451578e+02
556             	3.45451832e+02
557             	3.45452089e+02
558             	3.45452355e+02
559             	3.45452595e+02
560             	3.45452830e+02
561             	3.45453062e+02
562             	3.45453328e+02
563             	3.45453638e+02
564             	3.45453963e+02
565             	3.45454293e+02
566             	3.45454630e+02
567             	3.45454982e+02
568             	3.45455331e+02
569             	3.45455644e+02
570             	3.45455911e+02
571             	3.45456171e+02
572             	3.45456416e+02
573             	3.45456630e+02
574             	3.45456810e+02
575             	3.45456982e+02
576             	3.45457166e+02
577             	3.45457364e+02
578             	3.45457588e+02
579             	3.45457822e+02
580             	3.45458081e+02
581             	3.45458346e+02
582             	3.45458616e+02
583             	3.45458890e+02
584             	3.45459167e+02
585             	3.45459463e+02
586             	3.45459759e+02
587             	3.45460021e+02
588             	3.45460269e+02
589             	3.45460468e+02
590             	3.45460617e+02
591             	3.45460740e+02
592             	3.45460852e+02
593             	3.45460971e+02
594             	3.45461111e+02
595             	3.45461283e+02
596             	3.45461480e+02
597             	3.45461708e+02
598             	3.45461938e+02
599             	3.45462171e+02
600             	3.45462408e+02
601             	3.45462648e+02
602             	3.45462890e+02
603             	3.45463138e+02
604             	3.45463368e+02
605             	3.45463550e+02
606             	3.45463721e+02
607             	3.45463871e+02
608             	3.45463994e+02
609             	3.45464105e+02
610             	3.45464209e+02
611             	3.45464310e+02
612             	3.45464417e+02
613             	3.45464563e+02
614             	3.45464717e+02
615             	3.45464886e+02
616             	3.45465070e+02
617             	3.45465267e+02
618             	3.45465465e+02
619             	3.45465658e+02
620             	3.45465851e+02
621             	3.45466037e+02
