# Region        : cellZone component_1
# Cells         : 48
# Volume        : 8.15992565e-02
# Time          	volAverage(T)
1               	3.00500110e+02
2               	3.00993399e+02
3               	3.01446359e+02
4               	3.01874329e+02
5               	3.02283991e+02
6               	3.02675520e+02
7               	3.03049122e+02
8               	3.03411210e+02
9               	3.03767709e+02
10              	3.04115343e+02
11              	3.04438568e+02
12              	3.04741688e+02
13              	3.05035978e+02
14              	3.05331496e+02
15              	3.05610895e+02
16              	3.05865554e+02
17              	3.06098748e+02
18              	3.06337437e+02
19              	3.06586270e+02
20              	3.06836043e+02
21              	3.07085157e+02
22              	3.07324802e+02
23              	3.07566667e+02
24              	3.07803449e+02
25              	3.08052512e+02
26              	3.08308652e+02
27              	3.08559660e+02
28              	3.08792590e+02
29              	3.09022928e+02
30              	3.09254276e+02
31              	3.09485084e+02
32              	3.09710993e+02
33              	3.09928758e+02
34              	3.10133203e+02
35              	3.10328257e+02
36              	3.10516511e+02
37              	3.10702204e+02
38              	3.10868887e+02
39              	3.11013438e+02
40              	3.11118908e+02
41              	3.11201017e+02
42              	3.11271126e+02
43              	3.11345263e+02
44              	3.11425289e+02
45              	3.11501692e+02
46              	3.11583328e+02
47              	3.11676985e+02
48              	3.11779996e+02
49              	3.11893584e+02
50              	3.12006507e+02
51              	3.12129919e+02
52              	3.12243906e+02
53              	3.12344883e+02
54              	3.12428133e+02
55              	3.12481924e+02
56              	3.12524358e+02
57              	3.12580663e+02
58              	3.12605324e+02
59              	3.12611787e+02
60              	3.12634048e+02
61              	3.12664043e+02
62              	3.12721007e+02
63              	3.12783857e+02
64              	3.12854953e+02
65              	3.12905134e+02
66              	3.12928878e+02
67              	3.12946812e+02
68              	3.12946679e+02
69              	3.12957866e+02
70              	3.12956026e+02
71              	3.12950005e+02
72              	3.12947308e+02
73              	3.12947876e+02
74              	3.12942064e+02
75              	3.12922757e+02
76              	3.12913133e+02
77              	3.12900409e+02
78              	3.12908097e+02
79              	3.12899387e+02
80              	3.12888344e+02
81              	3.12896527e+02
82              	3.12893753e+02
83              	3.12886145e+02
84              	3.12865729e+02
85              	3.12841170e+02
86              	3.12822152e+02
87              	3.12843725e+02
88              	3.12886470e+02
89              	3.12926706e+02
90              	3.12959220e+02
91              	3.12990877e+02
92              	3.13015882e+02
93              	3.13038280e+02
94              	3.13065261e+02
95              	3.13094663e+02
96              	3.13112295e+02
97              	3.13146490e+02
98              	3.13189696e+02
99              	3.13238786e+02
100             	3.13295732e+02
101             	3.13331934e+02
102             	3.13351678e+02
103             	3.13365330e+02
104             	3.13390775e+02
105             	3.13439376e+02
106             	3.13487997e+02
107             	3.13523421e+02
108             	3.13556129e+02
109             	3.13586169e+02
110             	3.13613199e+02
111             	3.13637026e+02
112             	3.13665056e+02
113             	3.13697376e+02
114             	3.13729821e+02
115             	3.13778626e+02
116             	3.13839419e+02
117             	3.13903042e+02
118             	3.13958622e+02
119             	3.14024943e+02
120             	3.14090585e+02
121             	3.14150697e+02
122             	3.14208321e+02
123             	3.14271872e+02
124             	3.14308101e+02
125             	3.14320937e+02
126             	3.14315740e+02
127             	3.14323783e+02
128             	3.14320735e+02
129             	3.14309009e+02
130             	3.14302592e+02
131             	3.14307652e+02
132             	3.14323746e+02
133             	3.14350381e+02
134             	3.14376289e+02
135             	3.14396155e+02
136             	3.14412628e+02
137             	3.14437931e+02
138             	3.14462673e+02
139             	3.14496359e+02
140             	3.14534707e+02
141             	3.14579550e+02
142             	3.14625807e+02
143             	3.14673072e+02
144             	3.14718098e+02
145             	3.14761560e+02
146             	3.14804112e+02
147             	3.14845187e+02
148             	3.14877506e+02
149             	3.14908155e+02
150             	3.14942730e+02
151             	3.14973298e+02
152             	3.15004582e+02
153             	3.15041713e+02
154             	3.15091172e+02
155             	3.15154545e+02
156             	3.15224548e+02
157             	3.15292949e+02
158             	3.15368215e+02
159             	3.15438561e+02
160             	3.15496967e+02
161             	3.15556493e+02
162             	3.15607912e+02
163             	3.15650194e+02
164             	3.15686159e+02
165             	3.15718413e+02
166             	3.15753237e+02
167             	3.15790650e+02
168             	3.15831042e+02
169             	3.15860155e+02
170             	3.15896262e+02
171             	3.15929712e+02
172             	3.15952986e+02
173             	3.15973988e+02
174             	3.15996869e+02
175             	3.16022356e+02
176             	3.16041033e+02
177             	3.16066304e+02
178             	3.16089924e+02
179             	3.16117180e+02
180             	3.16148130e+02
181             	3.16182737e+02
182             	3.16213976e+02
183             	3.16248886e+02
184             	3.16276348e+02
185             	3.16304576e+02
186             	3.16330384e+02
187             	3.16352591e+02
188             	3.16378109e+02
189             	3.16398346e+02
190             	3.16424458e+02
191             	3.16448779e+02
192             	3.16478337e+02
193             	3.16510936e+02
194             	3.16546942e+02
195             	3.16578194e+02
196             	3.16606976e+02
197             	3.16633753e+02
198             	3.16671679e+02
199             	3.16702554e+02
200             	3.16732941e+02
201             	3.16767155e+02
202             	3.16793118e+02
203             	3.16818203e+02
204             	3.16841054e+02
205             	3.16863214e+02
206             	3.16877808e+02
207             	3.16879076e+02
208             	3.16882504e+02
209             	3.16887782e+02
210             	3.16890116e+02
211             	3.16900573e+02
212             	3.16909468e+02
213             	3.16925676e+02
214             	3.16949429e+02
215             	3.16987650e+02
216             	3.17010511e+02
217             	3.17036979e+02
218             	3.17068461e+02
219             	3.17092889e+02
220             	3.17116105e+02
221             	3.17133915e+02
222             	3.17153473e+02
223             	3.17170762e+02
224             	3.17183600e+02
225             	3.17193211e+02
226             	3.17201196e+02
227             	3.17206989e+02
228             	3.17212061e+02
229             	3.17220901e+02
230             	3.17230355e+02
231             	3.17239718e+02
232             	3.17248355e+02
233             	3.17254206e+02
234             	3.17264856e+02
235             	3.17279837e+02
236             	3.17297773e+02
237             	3.17316608e+02
238             	3.17329821e+02
239             	3.17346895e+02
240             	3.17369909e+02
241             	3.17384487e+02
242             	3.17404160e+02
243             	3.17420005e+02
244             	3.17431767e+02
245             	3.17439996e+02
246             	3.17446725e+02
247             	3.17450140e+02
248             	3.17450449e+02
249             	3.17450810e+02
250             	3.17452150e+02
251             	3.17455979e+02
252             	3.17459271e+02
253             	3.17463933e+02
254             	3.17470616e+02
255             	3.17475387e+02
256             	3.17475980e+02
257             	3.17478436e+02
258             	3.17486153e+02
259             	3.17495734e+02
260             	3.17504794e+02
261             	3.17515291e+02
262             	3.17525786e+02
263             	3.17537746e+02
264             	3.17552090e+02
265             	3.17564965e+02
266             	3.17574909e+02
267             	3.17583633e+02
268             	3.17590633e+02
269             	3.17595159e+02
270             	3.17598032e+02
271             	3.17605810e+02
272             	3.17605207e+02
273             	3.17601775e+02
274             	3.17598822e+02
275             	3.17597142e+02
276             	3.17596419e+02
277             	3.17596914e+02
278             	3.17597224e+02
279             	3.17582635e+02
280             	3.17578865e+02
281             	3.17576593e+02
282             	3.17583382e+02
283             	3.17590393e+02
284             	3.17606461e+02
285             	3.17622895e+02
286             	3.17640589e+02
287             	3.17659412e+02
288             	3.17670038e+02
289             	3.17678664e+02
290             	3.17690870e+02
291             	3.17705880e+02
292             	3.17720311e+02
293             	3.17725447e+02
294             	3.17733068e+02
295             	3.17735244e+02
296             	3.17735950e+02
297             	3.17734433e+02
298             	3.17733215e+02
299             	3.17731676e+02
300             	3.17728264e+02
301             	3.17725280e+02
302             	3.17728073e+02
303             	3.17725233e+02
304             	3.17727910e+02
305             	3.17733751e+02
306             	3.17741319e+02
307             	3.17750429e+02
308             	3.17758955e+02
309             	3.17766699e+02
310             	3.17769215e+02
311             	3.17768358e+02
312             	3.17769076e+02
313             	3.17772041e+02
314             	3.17774464e+02
315             	3.17775673e+02
316             	3.17776579e+02
317             	3.17778330e+02
318             	3.17781010e+02
319             	3.17784458e+02
320             	3.17788484e+02
321             	3.17792759e+02
322             	3.17796096e+02
323             	3.17799625e+02
324             	3.17803935e+02
325             	3.17809749e+02
326             	3.17814488e+02
327             	3.17815758e+02
328             	3.17816658e+02
329             	3.17820959e+02
330             	3.17826152e+02
331             	3.17827635e+02
332             	3.17825094e+02
333             	3.17820878e+02
334             	3.17815818e+02
335             	3.17815846e+02
336             	3.17813501e+02
337             	3.17816318e+02
338             	3.17822509e+02
339             	3.17829769e+02
340             	3.17837376e+02
341             	3.17842915e+02
342             	3.17849988e+02
343             	3.17862275e+02
344             	3.17871929e+02
345             	3.17880468e+02
346             	3.17888588e+02
347             	3.17899621e+02
348             	3.17903941e+02
349             	3.17905517e+02
350             	3.17909792e+02
351             	3.17909391e+02
352             	3.17906699e+02
353             	3.17903977e+02
354             	3.17899552e+02
355             	3.17895284e+02
356             	3.17889379e+02
357             	3.17881053e+02
358             	3.17877755e+02
359             	3.17878372e+02
360             	3.17879898e+02
361             	3.17882609e+02
362             	3.17887567e+02
363             	3.17892622e+02
364             	3.17900483e+02
365             	3.17910785e+02
366             	3.17916025e+02
367             	3.17925299e+02
368             	3.17937523e+02
369             	3.17951188e+02
370             	3.17964643e+02
371             	3.17962327e+02
372             	3.17955643e+02
373             	3.17952416e+02
374             	3.17952954e+02
375             	3.17951507e+02
376             	3.17948328e+02
377             	3.17946980e+02
378             	3.17941599e+02
379             	3.17938448e+02
380             	3.17936326e+02
381             	3.17942805e+02
382             	3.17956610e+02
383             	3.17970987e+02
384             	3.17979643e+02
385             	3.17989090e+02
386             	3.17999880e+02
387             	3.18010455e+02
388             	3.18016232e+02
389             	3.18021851e+02
390             	3.18021687e+02
391             	3.18023392e+02
392             	3.18024728e+02
393             	3.18024310e+02
394             	3.18018732e+02
395             	3.18014974e+02
396             	3.18012905e+02
397             	3.18013108e+02
398             	3.18014069e+02
399             	3.18015383e+02
400             	3.18015405e+02
401             	3.18015315e+02
402             	3.18016670e+02
403             	3.18021679e+02
404             	3.18025551e+02
405             	3.18027175e+02
406             	3.18028381e+02
407             	3.18028040e+02
408             	3.18028296e+02
409             	3.18027199e+02
410             	3.18024616e+02
411             	3.18021062e+02
412             	3.18015371e+02
413             	3.18010901e+02
414             	3.18007026e+02
415             	3.18005841e+02
416             	3.18004068e+02
417             	3.18004243e+02
418             	3.18004676e+02
419             	3.18006493e+02
420             	3.18010066e+02
421             	3.18016170e+02
422             	3.18022697e+02
423             	3.18029706e+02
424             	3.18036583e+02
425             	3.18043898e+02
426             	3.18050419e+02
427             	3.18055490e+02
428             	3.18058992e+02
429             	3.18060099e+02
430             	3.18059984e+02
431             	3.18058522e+02
432             	3.18055968e+02
433             	3.18052822e+02
434             	3.18049875e+02
435             	3.18047708e+02
436             	3.18046980e+02
437             	3.18049144e+02
438             	3.18050673e+02
439             	3.18053270e+02
440             	3.18059269e+02
441             	3.18065186e+02
442             	3.18071869e+02
443             	3.18079510e+02
444             	3.18087574e+02
445             	3.18096065e+02
446             	3.18104845e+02
447             	3.18112656e+02
448             	3.18117159e+02
449             	3.18124062e+02
450             	3.18130858e+02
451             	3.18136369e+02
452             	3.18140246e+02
453             	3.18142625e+02
454             	3.18143561e+02
455             	3.18143262e+02
456             	3.18141762e+02
457             	3.18139260e+02
458             	3.18136393e+02
459             	3.18134280e+02
460             	3.18132036e+02
461             	3.18134093e+02
462             	3.18133145e+02
463             	3.18132260e+02
464             	3.18132346e+02
465             	3.18133364e+02
466             	3.18135877e+02
467             	3.18137631e+02
468             	3.18138742e+02
469             	3.18139079e+02
470             	3.18139655e+02
471             	3.18139711e+02
472             	3.18138731e+02
473             	3.18136706e+02
474             	3.18132708e+02
475             	3.18126969e+02
476             	3.18120811e+02
477             	3.18118792e+02
478             	3.18117590e+02
479             	3.18116184e+02
480             	3.18115269e+02
481             	3.18115171e+02
482             	3.18116083e+02
483             	3.18118190e+02
484             	3.18121374e+02
485             	3.18125432e+02
486             	3.18134048e+02
487             	3.18138633e+02
488             	3.18141516e+02
489             	3.18140707e+02
490             	3.18139628e+02
491             	3.18142142e+02
492             	3.18145041e+02
493             	3.18145447e+02
494             	3.18144784e+02
495             	3.18143541e+02
496             	3.18141749e+02
497             	3.18139689e+02
498             	3.18138106e+02
499             	3.18137479e+02
500             	3.18137449e+02
501             	3.18136878e+02
502             	3.18137032e+02
503             	3.18138485e+02
504             	3.18141454e+02
505             	3.18145798e+02
506             	3.18151054e+02
507             	3.18156596e+02
508             	3.18161976e+02
509             	3.18166663e+02
510             	3.18170254e+02
511             	3.18173724e+02
512             	3.18175672e+02
513             	3.18177042e+02
514             	3.18177406e+02
515             	3.18176643e+02
516             	3.18174972e+02
517             	3.18172452e+02
518             	3.18169355e+02
519             	3.18166077e+02
520             	3.18162674e+02
521             	3.18159932e+02
522             	3.18157417e+02
523             	3.18156024e+02
524             	3.18156085e+02
525             	3.18155766e+02
526             	3.18158967e+02
527             	3.18163615e+02
528             	3.18168834e+02
529             	3.18174608e+02
530             	3.18180552e+02
531             	3.18186577e+02
532             	3.18192918e+02
533             	3.18203192e+02
534             	3.18209905e+02
535             	3.18214324e+02
536             	3.18217249e+02
537             	3.18218166e+02
538             	3.18217346e+02
539             	3.18215205e+02
540             	3.18211706e+02
541             	3.18204781e+02
542             	3.18201154e+02
543             	3.18200583e+02
544             	3.18196494e+02
545             	3.18196648e+02
546             	3.18198758e+02
547             	3.18200720e+02
548             	3.18203300e+02
549             	3.18206828e+02
550             	3.18210958e+02
551             	3.18215337e+02
552             	3.18219420e+02
553             	3.18222985e+02
554             	3.18225045e+02
555             	3.18225570e+02
556             	3.18223855e+02
557             	3.18221955e+02
558             	3.18219296e+02
559             	3.18215597e+02
560             	3.18210866e+02
561             	3.18205319e+02
562             	3.18199570e+02
563             	3.18193908e+02
564             	3.18188941e+02
565             	3.18185027e+02
566             	3.18182433e+02
567             	3.18181444e+02
568             	3.18179981e+02
569             	3.18180777e+02
570             	3.18183081e+02
571             	3.18186030e+02
572             	3.18189362e+02
573             	3.18191860e+02
574             	3.18194805e+02
575             	3.18199659e+02
576             	3.18204857e+02
577             	3.18209484e+02
578             	3.18213066e+02
579             	3.18216330e+02
580             	3.18217436e+02
581             	3.18216654e+02
582             	3.18215165e+02
583             	3.18213534e+02
584             	3.18211755e+02
585             	3.18206299e+02
586             	3.18200341e+02
587             	3.18195339e+02
588             	3.18191065e+02
589             	3.18188473e+02
590             	3.18186541e+02
591             	3.18184900e+02
592             	3.18183609e+02
593             	3.18182983e+02
594             	3.18184215e+02
595             	3.18185243e+02
596             	3.18186364e+02
597             	3.18187365e+02
598             	3.18188074e+02
599             	3.18188428e+02
600             	3.18188214e+02
601             	3.18188829e+02
602             	3.18189510e+02
603             	3.18189251e+02
604             	3.18188589e+02
605             	3.18187430e+02
606             	3.18185929e+02
607             	3.18183460e+02
608             	3.18182396e+02
609             	3.18178969e+02
610             	3.18174662e+02
611             	3.18170456e+02
612             	3.18166605e+02
613             	3.18162871e+02
614             	3.18159305e+02
615             	3.18156041e+02
616             	3.18153403e+02
617             	3.18151324e+02
618             	3.18149924e+02
619             	3.18149178e+02
620             	3.18148976e+02
621             	3.18148959e+02
