# Region        : cellZone component_2
# Cells         : 156
# Volume        : 2.85407351e-01
# Time          	volAverage(T)
1               	3.00413828e+02
2               	3.00824345e+02
3               	3.01213609e+02
4               	3.01591168e+02
5               	3.01964275e+02
6               	3.02334494e+02
7               	3.02702203e+02
8               	3.03069398e+02
9               	3.03435975e+02
10              	3.03799795e+02
11              	3.04160491e+02
12              	3.04517777e+02
13              	3.04873584e+02
14              	3.05227192e+02
15              	3.05578970e+02
16              	3.05927565e+02
17              	3.06272694e+02
18              	3.06614294e+02
19              	3.06954207e+02
20              	3.07293103e+02
21              	3.07631717e+02
22              	3.07967927e+02
23              	3.08301834e+02
24              	3.08633999e+02
25              	3.08964007e+02
26              	3.09290434e+02
27              	3.09616368e+02
28              	3.09938778e+02
29              	3.10258155e+02
30              	3.10574381e+02
31              	3.10887357e+02
32              	3.11199732e+02
33              	3.11510324e+02
34              	3.11819816e+02
35              	3.12127978e+02
36              	3.12434468e+02
37              	3.12738933e+02
38              	3.13040651e+02
39              	3.13339949e+02
40              	3.13636989e+02
41              	3.13931434e+02
42              	3.14222919e+02
43              	3.14509459e+02
44              	3.14794036e+02
45              	3.15076360e+02
46              	3.15356496e+02
47              	3.15633650e+02
48              	3.15906287e+02
49              	3.16177906e+02
50              	3.16447609e+02
51              	3.16714692e+02
52              	3.16978168e+02
53              	3.17239920e+02
54              	3.17499924e+02
55              	3.17756351e+02
56              	3.18011896e+02
57              	3.18265721e+02
58              	3.18517219e+02
59              	3.18768578e+02
60              	3.19018504e+02
61              	3.19267370e+02
62              	3.19514874e+02
63              	3.19759884e+02
64              	3.20003151e+02
65              	3.20242485e+02
66              	3.20480097e+02
67              	3.20712759e+02
68              	3.20943903e+02
69              	3.21170552e+02
70              	3.21393938e+02
71              	3.21613707e+02
72              	3.21832545e+02
73              	3.22048906e+02
74              	3.22265862e+02
75              	3.22481632e+02
76              	3.22694763e+02
77              	3.22906363e+02
78              	3.23115457e+02
79              	3.23322594e+02
80              	3.23524791e+02
81              	3.23722621e+02
82              	3.23917486e+02
83              	3.24110132e+02
84              	3.24301560e+02
85              	3.24490781e+02
86              	3.24680243e+02
87              	3.24866279e+02
88              	3.25051621e+02
89              	3.25235050e+02
90              	3.25416384e+02
91              	3.25597535e+02
92              	3.25777828e+02
93              	3.25954581e+02
94              	3.26130077e+02
95              	3.26300220e+02
96              	3.26470567e+02
97              	3.26636979e+02
98              	3.26802537e+02
99              	3.26968819e+02
100             	3.27133281e+02
101             	3.27293998e+02
102             	3.27453402e+02
103             	3.27610553e+02
104             	3.27768053e+02
105             	3.27923388e+02
106             	3.28075741e+02
107             	3.28222449e+02
108             	3.28369420e+02
109             	3.28512360e+02
110             	3.28653530e+02
111             	3.28794055e+02
112             	3.28934348e+02
113             	3.29070323e+02
114             	3.29205583e+02
115             	3.29340449e+02
116             	3.29474971e+02
117             	3.29607127e+02
118             	3.29737747e+02
119             	3.29866845e+02
120             	3.29993525e+02
121             	3.30114968e+02
122             	3.30234889e+02
123             	3.30354243e+02
124             	3.30474726e+02
125             	3.30592577e+02
126             	3.30709990e+02
127             	3.30826817e+02
128             	3.30940913e+02
129             	3.31055452e+02
130             	3.31166972e+02
131             	3.31277320e+02
132             	3.31386181e+02
133             	3.31493216e+02
134             	3.31597747e+02
135             	3.31701272e+02
136             	3.31803649e+02
137             	3.31903850e+02
138             	3.32001452e+02
139             	3.32098380e+02
140             	3.32192123e+02
141             	3.32285906e+02
142             	3.32380098e+02
143             	3.32473200e+02
144             	3.32565986e+02
145             	3.32658195e+02
146             	3.32747844e+02
147             	3.32836192e+02
148             	3.32924591e+02
149             	3.33010868e+02
150             	3.33096985e+02
151             	3.33182351e+02
152             	3.33267470e+02
153             	3.33350856e+02
154             	3.33433498e+02
155             	3.33515332e+02
156             	3.33594615e+02
157             	3.33673976e+02
158             	3.33750636e+02
159             	3.33827265e+02
160             	3.33901662e+02
161             	3.33974838e+02
162             	3.34047933e+02
163             	3.34118730e+02
164             	3.34188286e+02
165             	3.34258354e+02
166             	3.34326673e+02
167             	3.34394349e+02
168             	3.34462803e+02
169             	3.34530039e+02
170             	3.34596515e+02
171             	3.34661778e+02
172             	3.34726494e+02
173             	3.34790879e+02
174             	3.34854991e+02
175             	3.34919209e+02
176             	3.34982075e+02
177             	3.35042233e+02
178             	3.35101674e+02
179             	3.35162476e+02
180             	3.35221986e+02
181             	3.35279851e+02
182             	3.35336326e+02
183             	3.35392948e+02
184             	3.35447973e+02
185             	3.35502125e+02
186             	3.35555086e+02
187             	3.35608258e+02
188             	3.35659615e+02
189             	3.35710562e+02
190             	3.35762100e+02
191             	3.35812541e+02
192             	3.35861658e+02
193             	3.35911846e+02
194             	3.35961272e+02
195             	3.36008960e+02
196             	3.36056238e+02
197             	3.36102862e+02
198             	3.36149616e+02
199             	3.36195022e+02
200             	3.36239827e+02
201             	3.36283854e+02
202             	3.36326770e+02
203             	3.36368983e+02
204             	3.36410106e+02
205             	3.36451650e+02
206             	3.36492128e+02
207             	3.36532029e+02
208             	3.36572111e+02
209             	3.36610845e+02
210             	3.36649849e+02
211             	3.36688735e+02
212             	3.36726716e+02
213             	3.36764356e+02
214             	3.36802189e+02
215             	3.36839135e+02
216             	3.36874594e+02
217             	3.36910661e+02
218             	3.36945912e+02
219             	3.36980992e+02
220             	3.37014807e+02
221             	3.37047726e+02
222             	3.37080026e+02
223             	3.37111147e+02
224             	3.37142652e+02
225             	3.37173340e+02
226             	3.37203607e+02
227             	3.37233576e+02
228             	3.37263148e+02
229             	3.37292024e+02
230             	3.37320998e+02
231             	3.37349271e+02
232             	3.37376686e+02
233             	3.37404412e+02
234             	3.37431532e+02
235             	3.37458262e+02
236             	3.37484666e+02
237             	3.37511016e+02
238             	3.37536907e+02
239             	3.37562865e+02
240             	3.37588346e+02
241             	3.37613472e+02
242             	3.37638563e+02
243             	3.37663586e+02
244             	3.37688369e+02
245             	3.37713019e+02
246             	3.37737787e+02
247             	3.37762026e+02
248             	3.37785179e+02
249             	3.37808422e+02
250             	3.37832096e+02
251             	3.37855251e+02
252             	3.37877874e+02
253             	3.37900087e+02
254             	3.37921947e+02
255             	3.37943085e+02
256             	3.37963696e+02
257             	3.37984121e+02
258             	3.38004446e+02
259             	3.38023966e+02
260             	3.38043156e+02
261             	3.38062300e+02
262             	3.38081674e+02
263             	3.38100207e+02
264             	3.38118709e+02
265             	3.38137301e+02
266             	3.38155693e+02
267             	3.38174241e+02
268             	3.38192479e+02
269             	3.38210372e+02
270             	3.38228041e+02
271             	3.38244845e+02
272             	3.38261980e+02
273             	3.38278953e+02
274             	3.38295639e+02
275             	3.38312105e+02
276             	3.38328221e+02
277             	3.38343476e+02
278             	3.38358960e+02
279             	3.38374410e+02
280             	3.38389546e+02
281             	3.38404444e+02
282             	3.38419164e+02
283             	3.38433789e+02
284             	3.38448141e+02
285             	3.38462336e+02
286             	3.38476383e+02
287             	3.38490406e+02
288             	3.38504115e+02
289             	3.38517655e+02
290             	3.38531028e+02
291             	3.38544259e+02
292             	3.38557434e+02
293             	3.38570398e+02
294             	3.38583152e+02
295             	3.38595818e+02
296             	3.38608325e+02
297             	3.38620633e+02
298             	3.38632870e+02
299             	3.38645084e+02
300             	3.38656782e+02
301             	3.38668690e+02
302             	3.38680585e+02
303             	3.38692434e+02
304             	3.38704156e+02
305             	3.38715909e+02
306             	3.38727485e+02
307             	3.38738996e+02
308             	3.38750409e+02
309             	3.38761689e+02
310             	3.38772813e+02
311             	3.38783811e+02
312             	3.38794580e+02
313             	3.38805406e+02
314             	3.38815879e+02
315             	3.38826191e+02
316             	3.38836404e+02
317             	3.38846510e+02
318             	3.38856532e+02
319             	3.38866420e+02
320             	3.38876198e+02
321             	3.38885848e+02
322             	3.38895437e+02
323             	3.38904884e+02
324             	3.38914181e+02
325             	3.38923316e+02
326             	3.38932161e+02
327             	3.38941044e+02
328             	3.38949793e+02
329             	3.38958348e+02
330             	3.38966763e+02
331             	3.38975003e+02
332             	3.38983062e+02
333             	3.38991009e+02
334             	3.38998771e+02
335             	3.39006380e+02
336             	3.39013812e+02
337             	3.39021068e+02
338             	3.39028211e+02
339             	3.39035272e+02
340             	3.39042250e+02
341             	3.39049078e+02
342             	3.39055812e+02
343             	3.39062466e+02
344             	3.39069051e+02
345             	3.39075609e+02
346             	3.39082173e+02
347             	3.39088527e+02
348             	3.39094875e+02
349             	3.39101262e+02
350             	3.39107686e+02
351             	3.39114115e+02
352             	3.39120560e+02
353             	3.39127058e+02
354             	3.39133582e+02
355             	3.39140092e+02
356             	3.39146605e+02
357             	3.39153083e+02
358             	3.39159569e+02
359             	3.39166090e+02
360             	3.39172603e+02
361             	3.39179094e+02
362             	3.39185545e+02
363             	3.39192026e+02
364             	3.39198290e+02
365             	3.39204744e+02
366             	3.39210924e+02
367             	3.39217026e+02
368             	3.39223043e+02
369             	3.39229047e+02
370             	3.39234973e+02
371             	3.39240680e+02
372             	3.39246328e+02
373             	3.39251875e+02
374             	3.39257307e+02
375             	3.39262554e+02
376             	3.39267741e+02
377             	3.39272853e+02
378             	3.39277872e+02
379             	3.39282850e+02
380             	3.39287784e+02
381             	3.39292670e+02
382             	3.39297478e+02
383             	3.39302289e+02
384             	3.39307116e+02
385             	3.39311941e+02
386             	3.39316687e+02
387             	3.39321428e+02
388             	3.39326174e+02
389             	3.39330900e+02
390             	3.39335546e+02
391             	3.39340055e+02
392             	3.39344561e+02
393             	3.39349216e+02
394             	3.39353701e+02
395             	3.39358081e+02
396             	3.39362375e+02
397             	3.39366549e+02
398             	3.39370565e+02
399             	3.39374571e+02
400             	3.39378404e+02
401             	3.39382061e+02
402             	3.39385617e+02
403             	3.39389140e+02
404             	3.39392652e+02
405             	3.39396086e+02
406             	3.39399522e+02
407             	3.39403024e+02
408             	3.39406534e+02
409             	3.39410034e+02
410             	3.39413714e+02
411             	3.39417407e+02
412             	3.39421162e+02
413             	3.39424909e+02
414             	3.39428695e+02
415             	3.39432665e+02
416             	3.39436684e+02
417             	3.39440746e+02
418             	3.39444756e+02
419             	3.39448686e+02
420             	3.39452644e+02
421             	3.39456557e+02
422             	3.39460400e+02
423             	3.39464202e+02
424             	3.39467897e+02
425             	3.39471551e+02
426             	3.39475201e+02
427             	3.39478836e+02
428             	3.39482435e+02
429             	3.39485990e+02
430             	3.39489502e+02
431             	3.39492973e+02
432             	3.39496407e+02
433             	3.39499800e+02
434             	3.39502901e+02
435             	3.39505800e+02
436             	3.39508669e+02
437             	3.39511413e+02
438             	3.39514188e+02
439             	3.39517025e+02
440             	3.39519893e+02
441             	3.39522798e+02
442             	3.39525806e+02
443             	3.39528862e+02
444             	3.39531947e+02
445             	3.39535056e+02
446             	3.39538217e+02
447             	3.39541372e+02
448             	3.39544507e+02
449             	3.39547607e+02
450             	3.39550707e+02
451             	3.39553771e+02
452             	3.39556788e+02
453             	3.39559755e+02
454             	3.39562706e+02
455             	3.39565619e+02
456             	3.39568492e+02
457             	3.39571334e+02
458             	3.39574159e+02
459             	3.39576959e+02
460             	3.39579732e+02
461             	3.39582494e+02
462             	3.39585249e+02
463             	3.39587991e+02
464             	3.39590722e+02
465             	3.39593445e+02
466             	3.39596155e+02
467             	3.39598866e+02
468             	3.39601566e+02
469             	3.39604235e+02
470             	3.39606895e+02
471             	3.39609438e+02
472             	3.39612060e+02
473             	3.39614644e+02
474             	3.39617153e+02
475             	3.39619608e+02
476             	3.39622021e+02
477             	3.39624404e+02
478             	3.39626934e+02
479             	3.39629244e+02
480             	3.39631557e+02
481             	3.39633878e+02
482             	3.39636328e+02
483             	3.39638773e+02
484             	3.39641193e+02
485             	3.39643582e+02
486             	3.39646058e+02
487             	3.39648538e+02
488             	3.39651014e+02
489             	3.39653407e+02
490             	3.39655830e+02
491             	3.39658284e+02
492             	3.39660673e+02
493             	3.39663031e+02
494             	3.39665343e+02
495             	3.39667675e+02
496             	3.39669968e+02
497             	3.39672113e+02
498             	3.39674307e+02
499             	3.39676551e+02
500             	3.39678847e+02
501             	3.39681151e+02
502             	3.39683493e+02
503             	3.39685823e+02
504             	3.39688129e+02
505             	3.39690417e+02
506             	3.39692585e+02
507             	3.39694844e+02
508             	3.39697044e+02
509             	3.39699237e+02
510             	3.39701390e+02
511             	3.39703490e+02
512             	3.39705598e+02
513             	3.39707630e+02
514             	3.39709646e+02
515             	3.39711803e+02
516             	3.39713882e+02
517             	3.39715909e+02
518             	3.39717981e+02
519             	3.39720089e+02
520             	3.39722233e+02
521             	3.39724398e+02
522             	3.39726638e+02
523             	3.39728768e+02
524             	3.39730980e+02
525             	3.39733196e+02
526             	3.39735317e+02
527             	3.39737390e+02
528             	3.39739429e+02
529             	3.39741451e+02
530             	3.39743398e+02
531             	3.39745298e+02
532             	3.39747163e+02
533             	3.39748999e+02
534             	3.39750837e+02
535             	3.39752703e+02
536             	3.39754623e+02
537             	3.39756514e+02
538             	3.39758463e+02
539             	3.39760484e+02
540             	3.39762545e+02
541             	3.39764571e+02
542             	3.39766546e+02
543             	3.39768619e+02
544             	3.39770641e+02
545             	3.39772608e+02
546             	3.39774512e+02
547             	3.39776437e+02
548             	3.39778368e+02
549             	3.39780278e+02
550             	3.39782179e+02
551             	3.39784081e+02
552             	3.39785975e+02
553             	3.39787853e+02
554             	3.39789719e+02
555             	3.39791567e+02
556             	3.39793401e+02
557             	3.39795216e+02
558             	3.39797015e+02
559             	3.39798797e+02
560             	3.39800563e+02
561             	3.39802316e+02
562             	3.39804056e+02
563             	3.39805786e+02
564             	3.39807507e+02
565             	3.39809209e+02
566             	3.39810906e+02
567             	3.39812601e+02
568             	3.39814286e+02
569             	3.39815963e+02
570             	3.39817632e+02
571             	3.39819292e+02
572             	3.39820945e+02
573             	3.39822589e+02
574             	3.39824227e+02
575             	3.39825855e+02
576             	3.39827473e+02
577             	3.39829081e+02
578             	3.39830683e+02
579             	3.39832270e+02
580             	3.39833849e+02
581             	3.39835415e+02
582             	3.39836966e+02
583             	3.39838499e+02
584             	3.39839994e+02
585             	3.39841472e+02
586             	3.39842957e+02
587             	3.39844424e+02
588             	3.39845874e+02
589             	3.39847305e+02
590             	3.39848709e+02
591             	3.39850107e+02
592             	3.39851463e+02
593             	3.39852824e+02
594             	3.39854168e+02
595             	3.39855486e+02
596             	3.39856799e+02
597             	3.39858076e+02
598             	3.39859340e+02
599             	3.39860600e+02
600             	3.39861848e+02
601             	3.39863080e+02
602             	3.39864306e+02
603             	3.39865514e+02
604             	3.39866714e+02
605             	3.39867904e+02
606             	3.39869091e+02
607             	3.39870268e+02
608             	3.39871435e+02
609             	3.39872591e+02
610             	3.39873735e+02
611             	3.39874844e+02
612             	3.39875947e+02
613             	3.39877061e+02
614             	3.39878165e+02
615             	3.39879255e+02
616             	3.39880339e+02
617             	3.39881429e+02
618             	3.39882508e+02
619             	3.39883554e+02
620             	3.39884572e+02
621             	3.39885587e+02
