# Region        : cellZone component_2
# Cells         : 138
# Volume        : 2.73841335e-01
# Time          	volAverage(T)
1               	3.00647807e+02
2               	3.01285448e+02
3               	3.01875226e+02
4               	3.02435528e+02
5               	3.02981151e+02
6               	3.03517314e+02
7               	3.04046050e+02
8               	3.04570106e+02
9               	3.05094484e+02
10              	3.05613626e+02
11              	3.06125098e+02
12              	3.06628962e+02
13              	3.07116552e+02
14              	3.07594071e+02
15              	3.08050147e+02
16              	3.08497263e+02
17              	3.08937832e+02
18              	3.09374720e+02
19              	3.09799858e+02
20              	3.10230863e+02
21              	3.10662440e+02
22              	3.11082796e+02
23              	3.11489747e+02
24              	3.11882033e+02
25              	3.12267457e+02
26              	3.12646116e+02
27              	3.13022746e+02
28              	3.13393525e+02
29              	3.13758423e+02
30              	3.14125820e+02
31              	3.14499014e+02
32              	3.14873666e+02
33              	3.15237528e+02
34              	3.15593062e+02
35              	3.15941892e+02
36              	3.16289507e+02
37              	3.16627827e+02
38              	3.16944490e+02
39              	3.17233903e+02
40              	3.17534215e+02
41              	3.17837077e+02
42              	3.18124228e+02
43              	3.18399981e+02
44              	3.18669995e+02
45              	3.18938621e+02
46              	3.19193754e+02
47              	3.19442860e+02
48              	3.19691382e+02
49              	3.19935189e+02
50              	3.20195653e+02
51              	3.20451930e+02
52              	3.20692233e+02
53              	3.20918374e+02
54              	3.21131946e+02
55              	3.21316192e+02
56              	3.21475850e+02
57              	3.21672028e+02
58              	3.21857321e+02
59              	3.22029220e+02
60              	3.22191129e+02
61              	3.22344410e+02
62              	3.22488633e+02
63              	3.22637120e+02
64              	3.22803318e+02
65              	3.22974254e+02
66              	3.23172335e+02
67              	3.23342423e+02
68              	3.23508621e+02
69              	3.23663234e+02
70              	3.23804551e+02
71              	3.23935493e+02
72              	3.24065297e+02
73              	3.24194508e+02
74              	3.24313066e+02
75              	3.24416789e+02
76              	3.24508135e+02
77              	3.24597620e+02
78              	3.24675760e+02
79              	3.24747251e+02
80              	3.24814761e+02
81              	3.24880452e+02
82              	3.24947515e+02
83              	3.25024084e+02
84              	3.25107379e+02
85              	3.25195485e+02
86              	3.25289028e+02
87              	3.25383301e+02
88              	3.25477236e+02
89              	3.25561606e+02
90              	3.25643986e+02
91              	3.25712765e+02
92              	3.25771204e+02
93              	3.25819553e+02
94              	3.25866172e+02
95              	3.25917970e+02
96              	3.25976543e+02
97              	3.26039931e+02
98              	3.26102916e+02
99              	3.26171991e+02
100             	3.26233701e+02
101             	3.26295310e+02
102             	3.26352143e+02
103             	3.26400940e+02
104             	3.26448720e+02
105             	3.26500845e+02
106             	3.26554358e+02
107             	3.26610139e+02
108             	3.26665485e+02
109             	3.26716706e+02
110             	3.26763808e+02
111             	3.26813941e+02
112             	3.26861862e+02
113             	3.26905692e+02
114             	3.26945588e+02
115             	3.26981670e+02
116             	3.27014114e+02
117             	3.27043249e+02
118             	3.27071063e+02
119             	3.27097610e+02
120             	3.27124677e+02
121             	3.27154097e+02
122             	3.27185477e+02
123             	3.27217185e+02
124             	3.27248713e+02
125             	3.27278730e+02
126             	3.27309667e+02
127             	3.27338880e+02
128             	3.27366591e+02
129             	3.27393558e+02
130             	3.27420302e+02
131             	3.27448846e+02
132             	3.27477532e+02
133             	3.27508353e+02
134             	3.27539221e+02
135             	3.27569808e+02
136             	3.27601023e+02
137             	3.27632571e+02
138             	3.27662443e+02
139             	3.27684491e+02
140             	3.27706959e+02
141             	3.27728901e+02
142             	3.27748400e+02
143             	3.27764917e+02
144             	3.27779414e+02
145             	3.27792837e+02
146             	3.27806724e+02
147             	3.27821923e+02
148             	3.27839425e+02
149             	3.27859211e+02
150             	3.27881228e+02
151             	3.27904986e+02
152             	3.27928485e+02
153             	3.27953768e+02
154             	3.27977278e+02
155             	3.28000363e+02
156             	3.28022641e+02
157             	3.28043838e+02
158             	3.28063993e+02
159             	3.28084684e+02
160             	3.28104136e+02
161             	3.28123131e+02
162             	3.28138268e+02
163             	3.28152757e+02
164             	3.28169504e+02
165             	3.28183351e+02
166             	3.28198054e+02
167             	3.28210168e+02
168             	3.28223781e+02
169             	3.28237482e+02
170             	3.28254469e+02
171             	3.28271417e+02
172             	3.28290272e+02
173             	3.28311615e+02
174             	3.28334793e+02
175             	3.28356779e+02
176             	3.28378999e+02
177             	3.28396392e+02
178             	3.28411658e+02
179             	3.28428405e+02
180             	3.28440878e+02
181             	3.28453647e+02
182             	3.28463428e+02
183             	3.28474688e+02
184             	3.28486408e+02
185             	3.28494995e+02
186             	3.28505566e+02
187             	3.28518899e+02
188             	3.28529790e+02
189             	3.28542755e+02
190             	3.28557272e+02
191             	3.28572853e+02
192             	3.28585777e+02
193             	3.28599723e+02
194             	3.28614815e+02
195             	3.28631057e+02
196             	3.28644353e+02
197             	3.28659335e+02
198             	3.28675998e+02
199             	3.28689689e+02
200             	3.28704908e+02
201             	3.28721665e+02
202             	3.28734324e+02
203             	3.28748713e+02
204             	3.28761046e+02
205             	3.28775000e+02
206             	3.28787096e+02
207             	3.28800992e+02
208             	3.28816551e+02
209             	3.28828337e+02
210             	3.28841422e+02
211             	3.28856089e+02
212             	3.28866778e+02
213             	3.28878830e+02
214             	3.28888746e+02
215             	3.28900515e+02
216             	3.28910228e+02
217             	3.28921418e+02
218             	3.28933816e+02
219             	3.28942114e+02
220             	3.28951643e+02
221             	3.28962795e+02
222             	3.28970045e+02
223             	3.28978861e+02
224             	3.28989636e+02
225             	3.28996543e+02
226             	3.29005351e+02
227             	3.29012709e+02
228             	3.29022186e+02
229             	3.29030005e+02
230             	3.29039458e+02
231             	3.29047133e+02
232             	3.29057230e+02
233             	3.29068609e+02
234             	3.29076212e+02
235             	3.29085529e+02
236             	3.29096959e+02
237             	3.29104903e+02
238             	3.29114529e+02
239             	3.29125842e+02
240             	3.29133871e+02
241             	3.29143437e+02
242             	3.29154303e+02
243             	3.29161536e+02
244             	3.29169771e+02
245             	3.29176178e+02
246             	3.29184163e+02
247             	3.29190054e+02
248             	3.29197174e+02
249             	3.29202216e+02
250             	3.29209237e+02
251             	3.29214433e+02
252             	3.29221228e+02
253             	3.29229877e+02
254             	3.29234683e+02
255             	3.29241084e+02
256             	3.29249037e+02
257             	3.29253633e+02
258             	3.29259769e+02
259             	3.29267489e+02
260             	3.29271480e+02
261             	3.29277303e+02
262             	3.29281525e+02
263             	3.29287448e+02
264             	3.29291502e+02
265             	3.29297380e+02
266             	3.29301458e+02
267             	3.29307270e+02
268             	3.29311383e+02
269             	3.29317508e+02
270             	3.29325711e+02
271             	3.29330275e+02
272             	3.29336511e+02
273             	3.29344440e+02
274             	3.29349040e+02
275             	3.29355226e+02
276             	3.29363326e+02
277             	3.29367558e+02
278             	3.29373294e+02
279             	3.29380745e+02
280             	3.29384362e+02
281             	3.29389639e+02
282             	3.29396749e+02
283             	3.29400050e+02
284             	3.29404915e+02
285             	3.29408206e+02
286             	3.29413220e+02
287             	3.29416277e+02
288             	3.29421052e+02
289             	3.29423882e+02
290             	3.29428343e+02
291             	3.29430913e+02
292             	3.29435264e+02
293             	3.29437767e+02
294             	3.29441994e+02
295             	3.29444475e+02
296             	3.29448707e+02
297             	3.29451282e+02
298             	3.29455666e+02
299             	3.29458517e+02
300             	3.29463119e+02
301             	3.29469524e+02
302             	3.29472246e+02
303             	3.29476697e+02
304             	3.29482851e+02
305             	3.29485663e+02
306             	3.29490090e+02
307             	3.29496126e+02
308             	3.29498498e+02
309             	3.29502221e+02
310             	3.29504222e+02
311             	3.29507892e+02
312             	3.29510033e+02
313             	3.29513587e+02
314             	3.29519105e+02
315             	3.29520910e+02
316             	3.29524294e+02
317             	3.29529465e+02
318             	3.29530859e+02
319             	3.29534164e+02
320             	3.29535739e+02
321             	3.29538993e+02
322             	3.29540291e+02
323             	3.29543332e+02
324             	3.29544552e+02
325             	3.29547593e+02
326             	3.29549686e+02
327             	3.29553120e+02
328             	3.29558218e+02
329             	3.29560222e+02
330             	3.29563923e+02
331             	3.29569705e+02
332             	3.29571907e+02
333             	3.29575175e+02
334             	3.29580340e+02
335             	3.29581582e+02
336             	3.29584189e+02
337             	3.29588462e+02
338             	3.29588791e+02
339             	3.29590641e+02
340             	3.29594351e+02
341             	3.29594299e+02
342             	3.29595890e+02
343             	3.29599387e+02
344             	3.29599255e+02
345             	3.29600720e+02
346             	3.29604033e+02
347             	3.29603870e+02
348             	3.29605303e+02
349             	3.29608577e+02
350             	3.29608870e+02
351             	3.29610724e+02
352             	3.29614174e+02
353             	3.29614832e+02
354             	3.29617180e+02
355             	3.29621187e+02
356             	3.29621870e+02
357             	3.29624248e+02
358             	3.29628574e+02
359             	3.29629109e+02
360             	3.29631180e+02
361             	3.29635178e+02
362             	3.29635423e+02
363             	3.29637186e+02
364             	3.29641000e+02
365             	3.29641135e+02
366             	3.29642813e+02
367             	3.29646627e+02
368             	3.29647008e+02
369             	3.29648922e+02
370             	3.29652514e+02
371             	3.29652774e+02
372             	3.29654693e+02
373             	3.29658391e+02
374             	3.29658627e+02
375             	3.29660438e+02
376             	3.29663992e+02
377             	3.29664135e+02
378             	3.29665847e+02
379             	3.29669599e+02
380             	3.29669649e+02
381             	3.29671205e+02
382             	3.29674707e+02
383             	3.29674448e+02
384             	3.29675745e+02
385             	3.29679004e+02
386             	3.29678631e+02
387             	3.29679785e+02
388             	3.29682850e+02
389             	3.29682655e+02
390             	3.29683991e+02
391             	3.29687137e+02
392             	3.29687079e+02
393             	3.29688671e+02
394             	3.29688688e+02
395             	3.29691062e+02
396             	3.29693545e+02
397             	3.29695947e+02
398             	3.29698239e+02
399             	3.29700447e+02
400             	3.29702582e+02
401             	3.29704661e+02
402             	3.29706690e+02
403             	3.29708672e+02
404             	3.29710615e+02
405             	3.29712526e+02
406             	3.29714408e+02
407             	3.29716267e+02
408             	3.29718112e+02
409             	3.29719942e+02
410             	3.29721757e+02
411             	3.29723557e+02
412             	3.29725339e+02
413             	3.29727097e+02
414             	3.29728831e+02
415             	3.29730542e+02
416             	3.29732220e+02
417             	3.29733866e+02
418             	3.29735483e+02
419             	3.29737069e+02
420             	3.29738626e+02
421             	3.29740159e+02
422             	3.29741668e+02
423             	3.29743153e+02
424             	3.29744617e+02
425             	3.29746058e+02
426             	3.29747479e+02
427             	3.29748879e+02
428             	3.29750258e+02
429             	3.29751615e+02
430             	3.29752952e+02
431             	3.29754270e+02
432             	3.29755572e+02
433             	3.29756860e+02
434             	3.29758131e+02
435             	3.29759383e+02
436             	3.29760615e+02
437             	3.29761831e+02
438             	3.29763036e+02
439             	3.29764229e+02
440             	3.29765410e+02
441             	3.29766581e+02
442             	3.29767745e+02
443             	3.29768898e+02
444             	3.29770042e+02
445             	3.29771172e+02
446             	3.29772284e+02
447             	3.29773378e+02
448             	3.29774456e+02
449             	3.29775515e+02
450             	3.29776557e+02
451             	3.29777582e+02
452             	3.29778591e+02
453             	3.29779587e+02
454             	3.29780571e+02
455             	3.29781543e+02
456             	3.29782503e+02
457             	3.29783450e+02
458             	3.29784385e+02
459             	3.29785305e+02
460             	3.29786211e+02
461             	3.29787101e+02
462             	3.29787976e+02
463             	3.29788834e+02
464             	3.29789676e+02
465             	3.29790504e+02
466             	3.29791318e+02
467             	3.29792119e+02
468             	3.29792909e+02
469             	3.29793689e+02
470             	3.29794458e+02
471             	3.29795219e+02
472             	3.29795972e+02
473             	3.29796721e+02
474             	3.29797471e+02
475             	3.29798220e+02
476             	3.29798966e+02
477             	3.29799709e+02
478             	3.29800443e+02
479             	3.29801163e+02
480             	3.29801866e+02
481             	3.29802553e+02
482             	3.29803223e+02
483             	3.29803881e+02
484             	3.29804529e+02
485             	3.29805167e+02
486             	3.29805796e+02
487             	3.29806417e+02
488             	3.29807029e+02
489             	3.29807634e+02
490             	3.29805557e+02
491             	3.29805887e+02
492             	3.29804031e+02
493             	3.29804566e+02
494             	3.29802877e+02
495             	3.29802914e+02
496             	3.29805029e+02
497             	3.29803298e+02
498             	3.29803205e+02
499             	3.29805233e+02
500             	3.29803648e+02
501             	3.29803610e+02
502             	3.29805789e+02
503             	3.29804148e+02
504             	3.29804160e+02
505             	3.29806320e+02
506             	3.29804747e+02
507             	3.29804775e+02
508             	3.29806951e+02
509             	3.29805369e+02
510             	3.29805414e+02
511             	3.29807591e+02
512             	3.29806024e+02
513             	3.29806088e+02
514             	3.29808332e+02
515             	3.29806790e+02
516             	3.29806907e+02
517             	3.29809200e+02
518             	3.29807766e+02
519             	3.29807878e+02
520             	3.29810168e+02
521             	3.29808645e+02
522             	3.29808770e+02
523             	3.29811076e+02
524             	3.29809564e+02
525             	3.29809696e+02
526             	3.29812020e+02
527             	3.29810521e+02
528             	3.29810658e+02
529             	3.29812998e+02
530             	3.29811520e+02
531             	3.29811692e+02
532             	3.29813922e+02
533             	3.29812524e+02
534             	3.29812686e+02
535             	3.29815032e+02
536             	3.29813529e+02
537             	3.29813693e+02
538             	3.29816019e+02
539             	3.29814490e+02
540             	3.29814627e+02
541             	3.29816908e+02
542             	3.29815341e+02
543             	3.29815475e+02
544             	3.29817764e+02
545             	3.29816213e+02
546             	3.29816359e+02
547             	3.29815002e+02
548             	3.29813702e+02
549             	3.29812542e+02
550             	3.29811502e+02
551             	3.29810552e+02
552             	3.29809669e+02
553             	3.29808841e+02
554             	3.29808054e+02
555             	3.29807302e+02
556             	3.29806580e+02
557             	3.29805889e+02
558             	3.29805220e+02
559             	3.29804573e+02
560             	3.29803941e+02
561             	3.29803317e+02
562             	3.29802700e+02
563             	3.29802090e+02
564             	3.29801476e+02
565             	3.29800855e+02
566             	3.29800227e+02
567             	3.29799605e+02
568             	3.29798989e+02
569             	3.29798377e+02
570             	3.29797773e+02
571             	3.29797180e+02
572             	3.29796600e+02
573             	3.29796037e+02
574             	3.29795494e+02
575             	3.29794969e+02
576             	3.29794467e+02
577             	3.29793986e+02
578             	3.29793523e+02
579             	3.29793077e+02
580             	3.29792643e+02
581             	3.29792218e+02
582             	3.29791807e+02
583             	3.29791406e+02
584             	3.29791010e+02
585             	3.29790626e+02
586             	3.29790258e+02
587             	3.29789913e+02
588             	3.29789586e+02
589             	3.29789274e+02
590             	3.29788954e+02
591             	3.29788634e+02
592             	3.29788297e+02
593             	3.29787942e+02
594             	3.29787569e+02
595             	3.29787180e+02
596             	3.29786779e+02
597             	3.29786378e+02
598             	3.29785983e+02
599             	3.29785597e+02
600             	3.29785217e+02
601             	3.29784845e+02
602             	3.29784483e+02
603             	3.29784133e+02
604             	3.29783797e+02
605             	3.29783488e+02
606             	3.29783206e+02
607             	3.29782943e+02
608             	3.29782696e+02
609             	3.29782461e+02
610             	3.29782239e+02
611             	3.29782023e+02
612             	3.29781806e+02
613             	3.29781586e+02
614             	3.29781365e+02
615             	3.29781142e+02
616             	3.29780922e+02
617             	3.29780710e+02
618             	3.29780509e+02
619             	3.29780321e+02
620             	3.29780147e+02
621             	3.29779992e+02
