# Region        : cellZone component_1
# Cells         : 125
# Volume        : 2.04991520e-01
# Time          	volAverage(T)
1               	3.00294314e+02
2               	3.00584736e+02
3               	3.00860830e+02
4               	3.01127499e+02
5               	3.01388430e+02
6               	3.01645026e+02
7               	3.01898064e+02
8               	3.02148394e+02
9               	3.02397062e+02
10              	3.02644803e+02
11              	3.02889616e+02
12              	3.03131024e+02
13              	3.03369723e+02
14              	3.03605099e+02
15              	3.03837986e+02
16              	3.04068879e+02
17              	3.04297002e+02
18              	3.04524179e+02
19              	3.04752872e+02
20              	3.04983681e+02
21              	3.05209192e+02
22              	3.05432371e+02
23              	3.05652445e+02
24              	3.05872200e+02
25              	3.06090394e+02
26              	3.06306875e+02
27              	3.06520888e+02
28              	3.06731404e+02
29              	3.06939755e+02
30              	3.07145194e+02
31              	3.07347565e+02
32              	3.07546451e+02
33              	3.07743686e+02
34              	3.07939728e+02
35              	3.08135013e+02
36              	3.08328931e+02
37              	3.08517040e+02
38              	3.08704467e+02
39              	3.08880950e+02
40              	3.09055860e+02
41              	3.09228651e+02
42              	3.09402154e+02
43              	3.09573083e+02
44              	3.09743930e+02
45              	3.09913239e+02
46              	3.10079676e+02
47              	3.10243809e+02
48              	3.10405845e+02
49              	3.10565525e+02
50              	3.10721131e+02
51              	3.10871511e+02
52              	3.11021852e+02
53              	3.11170921e+02
54              	3.11319064e+02
55              	3.11467063e+02
56              	3.11618483e+02
57              	3.11762775e+02
58              	3.11906016e+02
59              	3.12043408e+02
60              	3.12174273e+02
61              	3.12299007e+02
62              	3.12417830e+02
63              	3.12533151e+02
64              	3.12644080e+02
65              	3.12751944e+02
66              	3.12857144e+02
67              	3.12959393e+02
68              	3.13067059e+02
69              	3.13169497e+02
70              	3.13275529e+02
71              	3.13382459e+02
72              	3.13490512e+02
73              	3.13597374e+02
74              	3.13701699e+02
75              	3.13802986e+02
76              	3.13902046e+02
77              	3.13997767e+02
78              	3.14089179e+02
79              	3.14176645e+02
80              	3.14259987e+02
81              	3.14344470e+02
82              	3.14423966e+02
83              	3.14505791e+02
84              	3.14590323e+02
85              	3.14677788e+02
86              	3.14764810e+02
87              	3.14843350e+02
88              	3.14915170e+02
89              	3.14986013e+02
90              	3.15055151e+02
91              	3.15115877e+02
92              	3.15167609e+02
93              	3.15212720e+02
94              	3.15258927e+02
95              	3.15307024e+02
96              	3.15363190e+02
97              	3.15423692e+02
98              	3.15488764e+02
99              	3.15538343e+02
100             	3.15570453e+02
101             	3.15604649e+02
102             	3.15639782e+02
103             	3.15676839e+02
104             	3.15709303e+02
105             	3.15734955e+02
106             	3.15757629e+02
107             	3.15779400e+02
108             	3.15809068e+02
109             	3.15852181e+02
110             	3.15896148e+02
111             	3.15928247e+02
112             	3.15947412e+02
113             	3.15946950e+02
114             	3.15946132e+02
115             	3.15958361e+02
116             	3.15973346e+02
117             	3.15983516e+02
118             	3.15991423e+02
119             	3.16001054e+02
120             	3.16014872e+02
121             	3.16038809e+02
122             	3.16069217e+02
123             	3.16109452e+02
124             	3.16151493e+02
125             	3.16173530e+02
126             	3.16179290e+02
127             	3.16179836e+02
128             	3.16189505e+02
129             	3.16212375e+02
130             	3.16236903e+02
131             	3.16258211e+02
132             	3.16277300e+02
133             	3.16294093e+02
134             	3.16311012e+02
135             	3.16329578e+02
136             	3.16355658e+02
137             	3.16388472e+02
138             	3.16428036e+02
139             	3.16452749e+02
140             	3.16466719e+02
141             	3.16484777e+02
142             	3.16509567e+02
143             	3.16540249e+02
144             	3.16564771e+02
145             	3.16582408e+02
146             	3.16596842e+02
147             	3.16613233e+02
148             	3.16643954e+02
149             	3.16684330e+02
150             	3.16708548e+02
151             	3.16713757e+02
152             	3.16711151e+02
153             	3.16708256e+02
154             	3.16720243e+02
155             	3.16746107e+02
156             	3.16774275e+02
157             	3.16801431e+02
158             	3.16826873e+02
159             	3.16851135e+02
160             	3.16873181e+02
161             	3.16895311e+02
162             	3.16921810e+02
163             	3.16953900e+02
164             	3.16995081e+02
165             	3.17043118e+02
166             	3.17084226e+02
167             	3.17120002e+02
168             	3.17155887e+02
169             	3.17194796e+02
170             	3.17231722e+02
171             	3.17264014e+02
172             	3.17288542e+02
173             	3.17308675e+02
174             	3.17326565e+02
175             	3.17347430e+02
176             	3.17375795e+02
177             	3.17409639e+02
178             	3.17451200e+02
179             	3.17493108e+02
180             	3.17525582e+02
181             	3.17551935e+02
182             	3.17579597e+02
183             	3.17610116e+02
184             	3.17636340e+02
185             	3.17654741e+02
186             	3.17667965e+02
187             	3.17679456e+02
188             	3.17691483e+02
189             	3.17706046e+02
190             	3.17726616e+02
191             	3.17752636e+02
192             	3.17786578e+02
193             	3.17819938e+02
194             	3.17854426e+02
195             	3.17872279e+02
196             	3.17894458e+02
197             	3.17921224e+02
198             	3.17944367e+02
199             	3.17965434e+02
200             	3.17980747e+02
201             	3.17992251e+02
202             	3.18002051e+02
203             	3.18016372e+02
204             	3.18035914e+02
205             	3.18058629e+02
206             	3.18086348e+02
207             	3.18118756e+02
208             	3.18155433e+02
209             	3.18186255e+02
210             	3.18216644e+02
211             	3.18247260e+02
212             	3.18272428e+02
213             	3.18291566e+02
214             	3.18306215e+02
215             	3.18317039e+02
216             	3.18326054e+02
217             	3.18335543e+02
218             	3.18349314e+02
219             	3.18366041e+02
220             	3.18388468e+02
221             	3.18414432e+02
222             	3.18443990e+02
223             	3.18475836e+02
224             	3.18507824e+02
225             	3.18541251e+02
226             	3.18571821e+02
227             	3.18599674e+02
228             	3.18625304e+02
229             	3.18649082e+02
230             	3.18671329e+02
231             	3.18692352e+02
232             	3.18713950e+02
233             	3.18735456e+02
234             	3.18758061e+02
235             	3.18782294e+02
236             	3.18808729e+02
237             	3.18837073e+02
238             	3.18866409e+02
239             	3.18895505e+02
240             	3.18925268e+02
241             	3.18955409e+02
242             	3.18986021e+02
243             	3.19016425e+02
244             	3.19048574e+02
245             	3.19077646e+02
246             	3.19105386e+02
247             	3.19131192e+02
248             	3.19154734e+02
249             	3.19175781e+02
250             	3.19195571e+02
251             	3.19214585e+02
252             	3.19233484e+02
253             	3.19254981e+02
254             	3.19277715e+02
255             	3.19302579e+02
256             	3.19329929e+02
257             	3.19359414e+02
258             	3.19391195e+02
259             	3.19420361e+02
260             	3.19451739e+02
261             	3.19482551e+02
262             	3.19511476e+02
263             	3.19538480e+02
264             	3.19563250e+02
265             	3.19586171e+02
266             	3.19607771e+02
267             	3.19628608e+02
268             	3.19649141e+02
269             	3.19670216e+02
270             	3.19692175e+02
271             	3.19715186e+02
272             	3.19739031e+02
273             	3.19763778e+02
274             	3.19788650e+02
275             	3.19813291e+02
276             	3.19837321e+02
277             	3.19860361e+02
278             	3.19881724e+02
279             	3.19902327e+02
280             	3.19921199e+02
281             	3.19939161e+02
282             	3.19955990e+02
283             	3.19971499e+02
284             	3.19986033e+02
285             	3.20000067e+02
286             	3.20013941e+02
287             	3.20027779e+02
288             	3.20041983e+02
289             	3.20056707e+02
290             	3.20072304e+02
291             	3.20086276e+02
292             	3.20102666e+02
293             	3.20120863e+02
294             	3.20139816e+02
295             	3.20159474e+02
296             	3.20178937e+02
297             	3.20198164e+02
298             	3.20216793e+02
299             	3.20234497e+02
300             	3.20250661e+02
301             	3.20265063e+02
302             	3.20278013e+02
303             	3.20289808e+02
304             	3.20301084e+02
305             	3.20312810e+02
306             	3.20326585e+02
307             	3.20340308e+02
308             	3.20355873e+02
309             	3.20373757e+02
310             	3.20391791e+02
311             	3.20410369e+02
312             	3.20428193e+02
313             	3.20443949e+02
314             	3.20456688e+02
315             	3.20466592e+02
316             	3.20474612e+02
317             	3.20481802e+02
318             	3.20489704e+02
319             	3.20498575e+02
320             	3.20508874e+02
321             	3.20521139e+02
322             	3.20534848e+02
323             	3.20549407e+02
324             	3.20565316e+02
325             	3.20579916e+02
326             	3.20593898e+02
327             	3.20605927e+02
328             	3.20615810e+02
329             	3.20623824e+02
330             	3.20630463e+02
331             	3.20636392e+02
332             	3.20642434e+02
333             	3.20648903e+02
334             	3.20656405e+02
335             	3.20664632e+02
336             	3.20674214e+02
337             	3.20684729e+02
338             	3.20694990e+02
339             	3.20705710e+02
340             	3.20716157e+02
341             	3.20726150e+02
342             	3.20735731e+02
343             	3.20744680e+02
344             	3.20752223e+02
345             	3.20759281e+02
346             	3.20766054e+02
347             	3.20772350e+02
348             	3.20778092e+02
349             	3.20783457e+02
350             	3.20788609e+02
351             	3.20794102e+02
352             	3.20800243e+02
353             	3.20807257e+02
354             	3.20815367e+02
355             	3.20824328e+02
356             	3.20833747e+02
357             	3.20843334e+02
358             	3.20852263e+02
359             	3.20860669e+02
360             	3.20868750e+02
361             	3.20876362e+02
362             	3.20883429e+02
363             	3.20890001e+02
364             	3.20896259e+02
365             	3.20902498e+02
366             	3.20908852e+02
367             	3.20915314e+02
368             	3.20921473e+02
369             	3.20927683e+02
370             	3.20933814e+02
371             	3.20939555e+02
372             	3.20945007e+02
373             	3.20950082e+02
374             	3.20955131e+02
375             	3.20960518e+02
376             	3.20965298e+02
377             	3.20970203e+02
378             	3.20975181e+02
379             	3.20980234e+02
380             	3.20985496e+02
381             	3.20990547e+02
382             	3.20995347e+02
383             	3.20999295e+02
384             	3.21003095e+02
385             	3.21006330e+02
386             	3.21009189e+02
387             	3.21011554e+02
388             	3.21014071e+02
389             	3.21016708e+02
390             	3.21019217e+02
391             	3.21021912e+02
392             	3.21025087e+02
393             	3.21028700e+02
394             	3.21032502e+02
395             	3.21036469e+02
396             	3.21040640e+02
397             	3.21044861e+02
398             	3.21049014e+02
399             	3.21053160e+02
400             	3.21057588e+02
401             	3.21062215e+02
402             	3.21066633e+02
403             	3.21070685e+02
404             	3.21074869e+02
405             	3.21078920e+02
406             	3.21083033e+02
407             	3.21086878e+02
408             	3.21090520e+02
409             	3.21093842e+02
410             	3.21097054e+02
411             	3.21100225e+02
412             	3.21103716e+02
413             	3.21106962e+02
414             	3.21110318e+02
415             	3.21113919e+02
416             	3.21117665e+02
417             	3.21121343e+02
418             	3.21124873e+02
419             	3.21128148e+02
420             	3.21130887e+02
421             	3.21133479e+02
422             	3.21135805e+02
423             	3.21137943e+02
424             	3.21139722e+02
425             	3.21141321e+02
426             	3.21142882e+02
427             	3.21144463e+02
428             	3.21146076e+02
429             	3.21148137e+02
430             	3.21150181e+02
431             	3.21152253e+02
432             	3.21154572e+02
433             	3.21156943e+02
434             	3.21159442e+02
435             	3.21162089e+02
436             	3.21164844e+02
437             	3.21167770e+02
438             	3.21170700e+02
439             	3.21173742e+02
440             	3.21176723e+02
441             	3.21179342e+02
442             	3.21182087e+02
443             	3.21184813e+02
444             	3.21187453e+02
445             	3.21190017e+02
446             	3.21192542e+02
447             	3.21195061e+02
448             	3.21197507e+02
449             	3.21199942e+02
450             	3.21202327e+02
451             	3.21204760e+02
452             	3.21207092e+02
453             	3.21209380e+02
454             	3.21211608e+02
455             	3.21213753e+02
456             	3.21215817e+02
457             	3.21217823e+02
458             	3.21219786e+02
459             	3.21221703e+02
460             	3.21223571e+02
461             	3.21225388e+02
462             	3.21227153e+02
463             	3.21228865e+02
464             	3.21230525e+02
465             	3.21232138e+02
466             	3.21233717e+02
467             	3.21235249e+02
468             	3.21236733e+02
469             	3.21238205e+02
470             	3.21239662e+02
471             	3.21241066e+02
472             	3.21242485e+02
473             	3.21243891e+02
474             	3.21245298e+02
475             	3.21246717e+02
476             	3.21248142e+02
477             	3.21249603e+02
478             	3.21251117e+02
479             	3.21252657e+02
480             	3.21254210e+02
481             	3.21255793e+02
482             	3.21257392e+02
483             	3.21259002e+02
484             	3.21260598e+02
485             	3.21262171e+02
486             	3.21263712e+02
487             	3.21265207e+02
488             	3.21266652e+02
489             	3.21268039e+02
490             	3.21269361e+02
491             	3.21270626e+02
492             	3.21271846e+02
493             	3.21273024e+02
494             	3.21274189e+02
495             	3.21275315e+02
496             	3.21276415e+02
497             	3.21277460e+02
498             	3.21278502e+02
499             	3.21279525e+02
500             	3.21280531e+02
501             	3.21281524e+02
502             	3.21282508e+02
503             	3.21283487e+02
504             	3.21284450e+02
505             	3.21285411e+02
506             	3.21286381e+02
507             	3.21287392e+02
508             	3.21288438e+02
509             	3.21289499e+02
510             	3.21290583e+02
511             	3.21291675e+02
512             	3.21292766e+02
513             	3.21293908e+02
514             	3.21295015e+02
515             	3.21296104e+02
516             	3.21297176e+02
517             	3.21298219e+02
518             	3.21299217e+02
519             	3.21300187e+02
520             	3.21301036e+02
521             	3.21301845e+02
522             	3.21302600e+02
523             	3.21303318e+02
524             	3.21303983e+02
525             	3.21304598e+02
526             	3.21305192e+02
527             	3.21305777e+02
528             	3.21306352e+02
529             	3.21306942e+02
530             	3.21307531e+02
531             	3.21308133e+02
532             	3.21308753e+02
533             	3.21309396e+02
534             	3.21310053e+02
535             	3.21310711e+02
536             	3.21311356e+02
537             	3.21312001e+02
538             	3.21312635e+02
539             	3.21313257e+02
540             	3.21313882e+02
541             	3.21314503e+02
542             	3.21315130e+02
543             	3.21315766e+02
544             	3.21316415e+02
545             	3.21317073e+02
546             	3.21317733e+02
547             	3.21318386e+02
548             	3.21319027e+02
549             	3.21319650e+02
550             	3.21320256e+02
551             	3.21320842e+02
552             	3.21321412e+02
553             	3.21321969e+02
554             	3.21322511e+02
555             	3.21323044e+02
556             	3.21323573e+02
557             	3.21324096e+02
558             	3.21324623e+02
559             	3.21325141e+02
560             	3.21325663e+02
561             	3.21326170e+02
562             	3.21326675e+02
563             	3.21327173e+02
564             	3.21327664e+02
565             	3.21328148e+02
566             	3.21328626e+02
567             	3.21329095e+02
568             	3.21329556e+02
569             	3.21330010e+02
570             	3.21330456e+02
571             	3.21330895e+02
572             	3.21331323e+02
573             	3.21331741e+02
574             	3.21332152e+02
575             	3.21332549e+02
576             	3.21332936e+02
577             	3.21333313e+02
578             	3.21333683e+02
579             	3.21334045e+02
580             	3.21334400e+02
581             	3.21334750e+02
582             	3.21335094e+02
583             	3.21335434e+02
584             	3.21335772e+02
585             	3.21336109e+02
586             	3.21336443e+02
587             	3.21336779e+02
588             	3.21337115e+02
589             	3.21337454e+02
590             	3.21337795e+02
591             	3.21338138e+02
592             	3.21338485e+02
593             	3.21338835e+02
594             	3.21339191e+02
595             	3.21339550e+02
596             	3.21339912e+02
597             	3.21340275e+02
598             	3.21340639e+02
599             	3.21341002e+02
600             	3.21341363e+02
601             	3.21341721e+02
602             	3.21342074e+02
603             	3.21342421e+02
604             	3.21342761e+02
605             	3.21343088e+02
606             	3.21343407e+02
607             	3.21343716e+02
608             	3.21344014e+02
609             	3.21344302e+02
610             	3.21344580e+02
611             	3.21344850e+02
612             	3.21345114e+02
613             	3.21345370e+02
614             	3.21345619e+02
615             	3.21345861e+02
616             	3.21346096e+02
617             	3.21346322e+02
618             	3.21346547e+02
619             	3.21346763e+02
620             	3.21346971e+02
621             	3.21347172e+02
