# Region        : cellZone component_3
# Cells         : 125
# Volume        : 2.10252349e-01
# Time          	volAverage(T)
1               	3.00448342e+02
2               	3.00885257e+02
3               	3.01291644e+02
4               	3.01681230e+02
5               	3.02062247e+02
6               	3.02437476e+02
7               	3.02807944e+02
8               	3.03176250e+02
9               	3.03543699e+02
10              	3.03909402e+02
11              	3.04272718e+02
12              	3.04632764e+02
13              	3.04989918e+02
14              	3.05345079e+02
15              	3.05693796e+02
16              	3.06041093e+02
17              	3.06382680e+02
18              	3.06718642e+02
19              	3.07050593e+02
20              	3.07377074e+02
21              	3.07698748e+02
22              	3.08017024e+02
23              	3.08331419e+02
24              	3.08642115e+02
25              	3.08950303e+02
26              	3.09255553e+02
27              	3.09557123e+02
28              	3.09853370e+02
29              	3.10148974e+02
30              	3.10439930e+02
31              	3.10726151e+02
32              	3.11006922e+02
33              	3.11276013e+02
34              	3.11537765e+02
35              	3.11795296e+02
36              	3.12051638e+02
37              	3.12302244e+02
38              	3.12548099e+02
39              	3.12792303e+02
40              	3.13035947e+02
41              	3.13275321e+02
42              	3.13503006e+02
43              	3.13724888e+02
44              	3.13950288e+02
45              	3.14172056e+02
46              	3.14392990e+02
47              	3.14610569e+02
48              	3.14824995e+02
49              	3.15037927e+02
50              	3.15255811e+02
51              	3.15475027e+02
52              	3.15692818e+02
53              	3.15913490e+02
54              	3.16133121e+02
55              	3.16349025e+02
56              	3.16548771e+02
57              	3.16748982e+02
58              	3.16947312e+02
59              	3.17138303e+02
60              	3.17324135e+02
61              	3.17507708e+02
62              	3.17687262e+02
63              	3.17863496e+02
64              	3.18038508e+02
65              	3.18210549e+02
66              	3.18384153e+02
67              	3.18558953e+02
68              	3.18737576e+02
69              	3.18918475e+02
70              	3.19099820e+02
71              	3.19279840e+02
72              	3.19457062e+02
73              	3.19630022e+02
74              	3.19798425e+02
75              	3.19962032e+02
76              	3.20122752e+02
77              	3.20280540e+02
78              	3.20433140e+02
79              	3.20583845e+02
80              	3.20732469e+02
81              	3.20877528e+02
82              	3.21018001e+02
83              	3.21155881e+02
84              	3.21294128e+02
85              	3.21435007e+02
86              	3.21578478e+02
87              	3.21724969e+02
88              	3.21872601e+02
89              	3.22019335e+02
90              	3.22160443e+02
91              	3.22298450e+02
92              	3.22432022e+02
93              	3.22559599e+02
94              	3.22681329e+02
95              	3.22799116e+02
96              	3.22913721e+02
97              	3.23026755e+02
98              	3.23139507e+02
99              	3.23250123e+02
100             	3.23363526e+02
101             	3.23478019e+02
102             	3.23593603e+02
103             	3.23705639e+02
104             	3.23818313e+02
105             	3.23928057e+02
106             	3.24033943e+02
107             	3.24135873e+02
108             	3.24232158e+02
109             	3.24324641e+02
110             	3.24413749e+02
111             	3.24499237e+02
112             	3.24581742e+02
113             	3.24662409e+02
114             	3.24742122e+02
115             	3.24821647e+02
116             	3.24901986e+02
117             	3.24983325e+02
118             	3.25066727e+02
119             	3.25150630e+02
120             	3.25234383e+02
121             	3.25315721e+02
122             	3.25395532e+02
123             	3.25472369e+02
124             	3.25547121e+02
125             	3.25620448e+02
126             	3.25690849e+02
127             	3.25759394e+02
128             	3.25825849e+02
129             	3.25890795e+02
130             	3.25954718e+02
131             	3.26017558e+02
132             	3.26078795e+02
133             	3.26138700e+02
134             	3.26197778e+02
135             	3.26255990e+02
136             	3.26313478e+02
137             	3.26370421e+02
138             	3.26426854e+02
139             	3.26482533e+02
140             	3.26538104e+02
141             	3.26593071e+02
142             	3.26647484e+02
143             	3.26701771e+02
144             	3.26755830e+02
145             	3.26809329e+02
146             	3.26862834e+02
147             	3.26915453e+02
148             	3.26967626e+02
149             	3.27018857e+02
150             	3.27068852e+02
151             	3.27117938e+02
152             	3.27165264e+02
153             	3.27211775e+02
154             	3.27257051e+02
155             	3.27300528e+02
156             	3.27343406e+02
157             	3.27384148e+02
158             	3.27424725e+02
159             	3.27464309e+02
160             	3.27502697e+02
161             	3.27539979e+02
162             	3.27576328e+02
163             	3.27611900e+02
164             	3.27647281e+02
165             	3.27682823e+02
166             	3.27717672e+02
167             	3.27752531e+02
168             	3.27787654e+02
169             	3.27822702e+02
170             	3.27857366e+02
171             	3.27891848e+02
172             	3.27926005e+02
173             	3.27959718e+02
174             	3.27992649e+02
175             	3.28024871e+02
176             	3.28056369e+02
177             	3.28087260e+02
178             	3.28117570e+02
179             	3.28147060e+02
180             	3.28175823e+02
181             	3.28203684e+02
182             	3.28230361e+02
183             	3.28256798e+02
184             	3.28282477e+02
185             	3.28307458e+02
186             	3.28331741e+02
187             	3.28355506e+02
188             	3.28378684e+02
189             	3.28401279e+02
190             	3.28423514e+02
191             	3.28445541e+02
192             	3.28467390e+02
193             	3.28489117e+02
194             	3.28510756e+02
195             	3.28532319e+02
196             	3.28553845e+02
197             	3.28575249e+02
198             	3.28596444e+02
199             	3.28617233e+02
200             	3.28637960e+02
201             	3.28658243e+02
202             	3.28678341e+02
203             	3.28698229e+02
204             	3.28717906e+02
205             	3.28737350e+02
206             	3.28756570e+02
207             	3.28775568e+02
208             	3.28794098e+02
209             	3.28811931e+02
210             	3.28829743e+02
211             	3.28847117e+02
212             	3.28863949e+02
213             	3.28880369e+02
214             	3.28896564e+02
215             	3.28912596e+02
216             	3.28928280e+02
217             	3.28943852e+02
218             	3.28959303e+02
219             	3.28974554e+02
220             	3.28989746e+02
221             	3.29004966e+02
222             	3.29020068e+02
223             	3.29035152e+02
224             	3.29050215e+02
225             	3.29065150e+02
226             	3.29080024e+02
227             	3.29094728e+02
228             	3.29109267e+02
229             	3.29123582e+02
230             	3.29137699e+02
231             	3.29151592e+02
232             	3.29165048e+02
233             	3.29178069e+02
234             	3.29191027e+02
235             	3.29203765e+02
236             	3.29216085e+02
237             	3.29228213e+02
238             	3.29240201e+02
239             	3.29252076e+02
240             	3.29263853e+02
241             	3.29275878e+02
242             	3.29287639e+02
243             	3.29299417e+02
244             	3.29311452e+02
245             	3.29323466e+02
246             	3.29335470e+02
247             	3.29347494e+02
248             	3.29359438e+02
249             	3.29371189e+02
250             	3.29382637e+02
251             	3.29393941e+02
252             	3.29404956e+02
253             	3.29415612e+02
254             	3.29426098e+02
255             	3.29436372e+02
256             	3.29446332e+02
257             	3.29456226e+02
258             	3.29466063e+02
259             	3.29475752e+02
260             	3.29485351e+02
261             	3.29494848e+02
262             	3.29504218e+02
263             	3.29513517e+02
264             	3.29522718e+02
265             	3.29531904e+02
266             	3.29541183e+02
267             	3.29550299e+02
268             	3.29559449e+02
269             	3.29568663e+02
270             	3.29577926e+02
271             	3.29587167e+02
272             	3.29596315e+02
273             	3.29605310e+02
274             	3.29614112e+02
275             	3.29622793e+02
276             	3.29631250e+02
277             	3.29639499e+02
278             	3.29647580e+02
279             	3.29655553e+02
280             	3.29663450e+02
281             	3.29671259e+02
282             	3.29678907e+02
283             	3.29686511e+02
284             	3.29694003e+02
285             	3.29701518e+02
286             	3.29708932e+02
287             	3.29716241e+02
288             	3.29723466e+02
289             	3.29730735e+02
290             	3.29737894e+02
291             	3.29745124e+02
292             	3.29752277e+02
293             	3.29759442e+02
294             	3.29766644e+02
295             	3.29773845e+02
296             	3.29781021e+02
297             	3.29788141e+02
298             	3.29794924e+02
299             	3.29801790e+02
300             	3.29808545e+02
301             	3.29815109e+02
302             	3.29821505e+02
303             	3.29827768e+02
304             	3.29833939e+02
305             	3.29840033e+02
306             	3.29846068e+02
307             	3.29852027e+02
308             	3.29858016e+02
309             	3.29864077e+02
310             	3.29870216e+02
311             	3.29876292e+02
312             	3.29882378e+02
313             	3.29888490e+02
314             	3.29894591e+02
315             	3.29900622e+02
316             	3.29906597e+02
317             	3.29912464e+02
318             	3.29918254e+02
319             	3.29923948e+02
320             	3.29929544e+02
321             	3.29935074e+02
322             	3.29940540e+02
323             	3.29945921e+02
324             	3.29951209e+02
325             	3.29956483e+02
326             	3.29961703e+02
327             	3.29966862e+02
328             	3.29971970e+02
329             	3.29977045e+02
330             	3.29982113e+02
331             	3.29987163e+02
332             	3.29992172e+02
333             	3.29997187e+02
334             	3.30002190e+02
335             	3.30007166e+02
336             	3.30012129e+02
337             	3.30017068e+02
338             	3.30021974e+02
339             	3.30026852e+02
340             	3.30031674e+02
341             	3.30036465e+02
342             	3.30041195e+02
343             	3.30045880e+02
344             	3.30050547e+02
345             	3.30055203e+02
346             	3.30059803e+02
347             	3.30064360e+02
348             	3.30068812e+02
349             	3.30073269e+02
350             	3.30077640e+02
351             	3.30081961e+02
352             	3.30086221e+02
353             	3.30090412e+02
354             	3.30094527e+02
355             	3.30098610e+02
356             	3.30102662e+02
357             	3.30106680e+02
358             	3.30110699e+02
359             	3.30114727e+02
360             	3.30118762e+02
361             	3.30122793e+02
362             	3.30126808e+02
363             	3.30130820e+02
364             	3.30134828e+02
365             	3.30138803e+02
366             	3.30142758e+02
367             	3.30146676e+02
368             	3.30150569e+02
369             	3.30154426e+02
370             	3.30158243e+02
371             	3.30162037e+02
372             	3.30165812e+02
373             	3.30169567e+02
374             	3.30173303e+02
375             	3.30177020e+02
376             	3.30180715e+02
377             	3.30184380e+02
378             	3.30188021e+02
379             	3.30191631e+02
380             	3.30195197e+02
381             	3.30198741e+02
382             	3.30202246e+02
383             	3.30205715e+02
384             	3.30209146e+02
385             	3.30212538e+02
386             	3.30215892e+02
387             	3.30219221e+02
388             	3.30222525e+02
389             	3.30225805e+02
390             	3.30229066e+02
391             	3.30232315e+02
392             	3.30235543e+02
393             	3.30238756e+02
394             	3.30241950e+02
395             	3.30245121e+02
396             	3.30248270e+02
397             	3.30251393e+02
398             	3.30254488e+02
399             	3.30257551e+02
400             	3.30260586e+02
401             	3.30263602e+02
402             	3.30266592e+02
403             	3.30269560e+02
404             	3.30272510e+02
405             	3.30275442e+02
406             	3.30278358e+02
407             	3.30281256e+02
408             	3.30284139e+02
409             	3.30287007e+02
410             	3.30289863e+02
411             	3.30292702e+02
412             	3.30295522e+02
413             	3.30298318e+02
414             	3.30301099e+02
415             	3.30303862e+02
416             	3.30306603e+02
417             	3.30309313e+02
418             	3.30312002e+02
419             	3.30314668e+02
420             	3.30317310e+02
421             	3.30319935e+02
422             	3.30322537e+02
423             	3.30325128e+02
424             	3.30327699e+02
425             	3.30330257e+02
426             	3.30332802e+02
427             	3.30335334e+02
428             	3.30337842e+02
429             	3.30340333e+02
430             	3.30342803e+02
431             	3.30345252e+02
432             	3.30347679e+02
433             	3.30350087e+02
434             	3.30352479e+02
435             	3.30354847e+02
436             	3.30357202e+02
437             	3.30359543e+02
438             	3.30361872e+02
439             	3.30364189e+02
440             	3.30366492e+02
441             	3.30368781e+02
442             	3.30371053e+02
443             	3.30373309e+02
444             	3.30375539e+02
445             	3.30377744e+02
446             	3.30379934e+02
447             	3.30382102e+02
448             	3.30384250e+02
449             	3.30386385e+02
450             	3.30388508e+02
451             	3.30390612e+02
452             	3.30392708e+02
453             	3.30394786e+02
454             	3.30396860e+02
455             	3.30398921e+02
456             	3.30400967e+02
457             	3.30403003e+02
458             	3.30405026e+02
459             	3.30407043e+02
460             	3.30409042e+02
461             	3.30411030e+02
462             	3.30413008e+02
463             	3.30414974e+02
464             	3.30416929e+02
465             	3.30418871e+02
466             	3.30420797e+02
467             	3.30422707e+02
468             	3.30424599e+02
469             	3.30426474e+02
470             	3.30428333e+02
471             	3.30430176e+02
472             	3.30432002e+02
473             	3.30433811e+02
474             	3.30435608e+02
475             	3.30437391e+02
476             	3.30439162e+02
477             	3.30440920e+02
478             	3.30442667e+02
479             	3.30444397e+02
480             	3.30446117e+02
481             	3.30447823e+02
482             	3.30449514e+02
483             	3.30451191e+02
484             	3.30452855e+02
485             	3.30454508e+02
486             	3.30456147e+02
487             	3.30457776e+02
488             	3.30459393e+02
489             	3.30461001e+02
490             	3.30462599e+02
491             	3.30464187e+02
492             	3.30465766e+02
493             	3.30467335e+02
494             	3.30468895e+02
495             	3.30470444e+02
496             	3.30471982e+02
497             	3.30473510e+02
498             	3.30475027e+02
499             	3.30476534e+02
500             	3.30478032e+02
501             	3.30479518e+02
502             	3.30480994e+02
503             	3.30482460e+02
504             	3.30483916e+02
505             	3.30485362e+02
506             	3.30486797e+02
507             	3.30488221e+02
508             	3.30489635e+02
509             	3.30491039e+02
510             	3.30492432e+02
511             	3.30493815e+02
512             	3.30495187e+02
513             	3.30496550e+02
514             	3.30497903e+02
515             	3.30499247e+02
516             	3.30500581e+02
517             	3.30501904e+02
518             	3.30503221e+02
519             	3.30504528e+02
520             	3.30505826e+02
521             	3.30507116e+02
522             	3.30508396e+02
523             	3.30509669e+02
524             	3.30510934e+02
525             	3.30512191e+02
526             	3.30513440e+02
527             	3.30514681e+02
528             	3.30515914e+02
529             	3.30517141e+02
530             	3.30518360e+02
531             	3.30519572e+02
532             	3.30520776e+02
533             	3.30521972e+02
534             	3.30523161e+02
535             	3.30524344e+02
536             	3.30525519e+02
537             	3.30526687e+02
538             	3.30527849e+02
539             	3.30529005e+02
540             	3.30530154e+02
541             	3.30531295e+02
542             	3.30532430e+02
543             	3.30533557e+02
544             	3.30534677e+02
545             	3.30535790e+02
546             	3.30536894e+02
547             	3.30537992e+02
548             	3.30539082e+02
549             	3.30540165e+02
550             	3.30541241e+02
551             	3.30542310e+02
552             	3.30543372e+02
553             	3.30544428e+02
554             	3.30545476e+02
555             	3.30546519e+02
556             	3.30547554e+02
557             	3.30548584e+02
558             	3.30549607e+02
559             	3.30550623e+02
560             	3.30551633e+02
561             	3.30552636e+02
562             	3.30553632e+02
563             	3.30554621e+02
564             	3.30555602e+02
565             	3.30556576e+02
566             	3.30557543e+02
567             	3.30558502e+02
568             	3.30559454e+02
569             	3.30560399e+02
570             	3.30561336e+02
571             	3.30562267e+02
572             	3.30563190e+02
573             	3.30564108e+02
574             	3.30565019e+02
575             	3.30565923e+02
576             	3.30566820e+02
577             	3.30567712e+02
578             	3.30568597e+02
579             	3.30569476e+02
580             	3.30570349e+02
581             	3.30571215e+02
582             	3.30572075e+02
583             	3.30572928e+02
584             	3.30573775e+02
585             	3.30574615e+02
586             	3.30575449e+02
587             	3.30576277e+02
588             	3.30577099e+02
589             	3.30577916e+02
590             	3.30578728e+02
591             	3.30579535e+02
592             	3.30580337e+02
593             	3.30581134e+02
594             	3.30581927e+02
595             	3.30582715e+02
596             	3.30583499e+02
597             	3.30584278e+02
598             	3.30585053e+02
599             	3.30585822e+02
600             	3.30586587e+02
601             	3.30587346e+02
602             	3.30588099e+02
603             	3.30588847e+02
604             	3.30589589e+02
605             	3.30590326e+02
606             	3.30591057e+02
607             	3.30591782e+02
608             	3.30592501e+02
609             	3.30593215e+02
610             	3.30593924e+02
611             	3.30594628e+02
612             	3.30595327e+02
613             	3.30596020e+02
614             	3.30596708e+02
615             	3.30597392e+02
616             	3.30598072e+02
617             	3.30598746e+02
618             	3.30599414e+02
619             	3.30600079e+02
620             	3.30600740e+02
621             	3.30601396e+02
