# Region        : cellZone component_4
# Cells         : 276
# Volume        : 5.23227507e-01
# Time          	volAverage(T)
1               	3.02240922e+02
2               	3.04433998e+02
3               	3.06249814e+02
4               	3.07800852e+02
5               	3.09296302e+02
6               	3.10801356e+02
7               	3.12280444e+02
8               	3.13690989e+02
9               	3.15032524e+02
10              	3.16342743e+02
11              	3.17621153e+02
12              	3.18857350e+02
13              	3.20062152e+02
14              	3.21252893e+02
15              	3.22338912e+02
16              	3.23481474e+02
17              	3.24576567e+02
18              	3.25628775e+02
19              	3.26619365e+02
20              	3.27598046e+02
21              	3.28567542e+02
22              	3.29550920e+02
23              	3.30433775e+02
24              	3.31260838e+02
25              	3.32055856e+02
26              	3.32844143e+02
27              	3.33632498e+02
28              	3.34387027e+02
29              	3.35075240e+02
30              	3.35748323e+02
31              	3.36418181e+02
32              	3.37065909e+02
33              	3.37675714e+02
34              	3.38227896e+02
35              	3.38774624e+02
36              	3.39386918e+02
37              	3.40021370e+02
38              	3.40383996e+02
39              	3.40642067e+02
40              	3.40889444e+02
41              	3.41268652e+02
42              	3.41677584e+02
43              	3.42031036e+02
44              	3.42355231e+02
45              	3.42679509e+02
46              	3.42988970e+02
47              	3.43273484e+02
48              	3.43593297e+02
49              	3.43925313e+02
50              	3.44288006e+02
51              	3.44665431e+02
52              	3.45049780e+02
53              	3.45429348e+02
54              	3.45798877e+02
55              	3.46159578e+02
56              	3.46502973e+02
57              	3.46820327e+02
58              	3.47128342e+02
59              	3.47413981e+02
60              	3.47655186e+02
61              	3.47864967e+02
62              	3.48055772e+02
63              	3.48231269e+02
64              	3.48389462e+02
65              	3.48534304e+02
66              	3.48665001e+02
67              	3.48811524e+02
68              	3.48956304e+02
69              	3.49096961e+02
70              	3.49239677e+02
71              	3.49382939e+02
72              	3.49536592e+02
73              	3.49702843e+02
74              	3.49874624e+02
75              	3.50039700e+02
76              	3.50198560e+02
77              	3.50345568e+02
78              	3.50487496e+02
79              	3.50624702e+02
80              	3.50756034e+02
81              	3.50883961e+02
82              	3.51008995e+02
83              	3.51128129e+02
84              	3.51243899e+02
85              	3.51355183e+02
86              	3.51463186e+02
87              	3.51565541e+02
88              	3.51670665e+02
89              	3.51770554e+02
90              	3.51867506e+02
91              	3.51962669e+02
92              	3.52055902e+02
93              	3.52150098e+02
94              	3.52241394e+02
95              	3.52336060e+02
96              	3.52432270e+02
97              	3.52525698e+02
98              	3.52619407e+02
99              	3.52709855e+02
100             	3.52804042e+02
101             	3.52890590e+02
102             	3.52971752e+02
103             	3.53047513e+02
104             	3.53122419e+02
105             	3.53195124e+02
106             	3.53266757e+02
107             	3.53338480e+02
108             	3.53406046e+02
109             	3.53473669e+02
110             	3.53540210e+02
111             	3.53605192e+02
112             	3.53669151e+02
113             	3.53729285e+02
114             	3.53786956e+02
115             	3.53844229e+02
116             	3.53898892e+02
117             	3.53953134e+02
118             	3.54008311e+02
119             	3.54064534e+02
120             	3.54119790e+02
121             	3.54178359e+02
122             	3.54236920e+02
123             	3.54295628e+02
124             	3.54356079e+02
125             	3.54417061e+02
126             	3.54475110e+02
127             	3.54529568e+02
128             	3.54580522e+02
129             	3.54628692e+02
130             	3.54675942e+02
131             	3.54720714e+02
132             	3.54763741e+02
133             	3.54806167e+02
134             	3.54850485e+02
135             	3.54893755e+02
136             	3.54937735e+02
137             	3.54980313e+02
138             	3.55023551e+02
139             	3.55067576e+02
140             	3.55112415e+02
141             	3.55156626e+02
142             	3.55199581e+02
143             	3.55240586e+02
144             	3.55282912e+02
145             	3.55326110e+02
146             	3.55370129e+02
147             	3.55408960e+02
148             	3.55444298e+02
149             	3.55476937e+02
150             	3.55507932e+02
151             	3.55536941e+02
152             	3.55563161e+02
153             	3.55589695e+02
154             	3.55619563e+02
155             	3.55650063e+02
156             	3.55681558e+02
157             	3.55713016e+02
158             	3.55744945e+02
159             	3.55779349e+02
160             	3.55815565e+02
161             	3.55851359e+02
162             	3.55884089e+02
163             	3.55913787e+02
164             	3.55941433e+02
165             	3.55967153e+02
166             	3.55990987e+02
167             	3.56013383e+02
168             	3.56034142e+02
169             	3.56054727e+02
170             	3.56075097e+02
171             	3.56094799e+02
172             	3.56114848e+02
173             	3.56134857e+02
174             	3.56155308e+02
175             	3.56175837e+02
176             	3.56195830e+02
177             	3.56215980e+02
178             	3.56237048e+02
179             	3.56260263e+02
180             	3.56283117e+02
181             	3.56305210e+02
182             	3.56326256e+02
183             	3.56346870e+02
184             	3.56366795e+02
185             	3.56384648e+02
186             	3.56400483e+02
187             	3.56415334e+02
188             	3.56429843e+02
189             	3.56444071e+02
190             	3.56457745e+02
191             	3.56470966e+02
192             	3.56484109e+02
193             	3.56499232e+02
194             	3.56513828e+02
195             	3.56528135e+02
196             	3.56542955e+02
197             	3.56557876e+02
198             	3.56572719e+02
199             	3.56587233e+02
200             	3.56601315e+02
201             	3.56615186e+02
202             	3.56629302e+02
203             	3.56644811e+02
204             	3.56661277e+02
205             	3.56678306e+02
206             	3.56629072e+02
207             	3.56541214e+02
208             	3.56455249e+02
209             	3.56383599e+02
210             	3.56326878e+02
211             	3.56281498e+02
212             	3.56246076e+02
213             	3.56215002e+02
214             	3.56184601e+02
215             	3.56157700e+02
216             	3.56134602e+02
217             	3.56120979e+02
218             	3.56110866e+02
219             	3.56108673e+02
220             	3.56112670e+02
221             	3.56119862e+02
222             	3.56124685e+02
223             	3.56125502e+02
224             	3.56122395e+02
225             	3.56115642e+02
226             	3.56108593e+02
227             	3.56102658e+02
228             	3.56098266e+02
229             	3.56095941e+02
230             	3.56096146e+02
231             	3.56097430e+02
232             	3.56097059e+02
233             	3.56093179e+02
234             	3.56080044e+02
235             	3.56061916e+02
236             	3.56039757e+02
237             	3.56016232e+02
238             	3.55993889e+02
239             	3.55973735e+02
240             	3.55954466e+02
241             	3.55941286e+02
242             	3.55935675e+02
243             	3.55934937e+02
244             	3.55936856e+02
245             	3.55938746e+02
246             	3.55937121e+02
247             	3.55936788e+02
248             	3.55937539e+02
249             	3.55934835e+02
250             	3.55932785e+02
251             	3.55935639e+02
252             	3.55943249e+02
253             	3.55949828e+02
254             	3.55955396e+02
255             	3.55961344e+02
256             	3.55967839e+02
257             	3.55973764e+02
258             	3.55979342e+02
259             	3.55983470e+02
260             	3.55984964e+02
261             	3.55986695e+02
262             	3.55996274e+02
263             	3.56013271e+02
264             	3.56029038e+02
265             	3.56042961e+02
266             	3.56055246e+02
267             	3.56065530e+02
268             	3.56071397e+02
269             	3.56074850e+02
270             	3.56075738e+02
271             	3.56074892e+02
272             	3.56075339e+02
273             	3.56079751e+02
274             	3.56087902e+02
275             	3.56098942e+02
276             	3.56111256e+02
277             	3.56124033e+02
278             	3.56134492e+02
279             	3.56142113e+02
280             	3.56150299e+02
281             	3.56157201e+02
282             	3.56165149e+02
283             	3.56175590e+02
284             	3.56188084e+02
285             	3.56199511e+02
286             	3.56211724e+02
287             	3.56224661e+02
288             	3.56237492e+02
289             	3.56249316e+02
290             	3.56260862e+02
291             	3.56268926e+02
292             	3.56274877e+02
293             	3.56281708e+02
294             	3.56289565e+02
295             	3.56296520e+02
296             	3.56301846e+02
297             	3.56307838e+02
298             	3.56311160e+02
299             	3.56314080e+02
300             	3.56317985e+02
301             	3.56321379e+02
302             	3.56324481e+02
303             	3.56327686e+02
304             	3.56329537e+02
305             	3.56328401e+02
306             	3.56324444e+02
307             	3.56321928e+02
308             	3.56320955e+02
309             	3.56324173e+02
310             	3.56331441e+02
311             	3.56343011e+02
312             	3.56358155e+02
313             	3.56374100e+02
314             	3.56388667e+02
315             	3.56392949e+02
316             	3.56395764e+02
317             	3.56400107e+02
318             	3.56403435e+02
319             	3.56404980e+02
320             	3.56405867e+02
321             	3.56406785e+02
322             	3.56409794e+02
323             	3.56414203e+02
324             	3.56419116e+02
325             	3.56423661e+02
326             	3.56427003e+02
327             	3.56430300e+02
328             	3.56434352e+02
329             	3.56437986e+02
330             	3.56441093e+02
331             	3.56444224e+02
332             	3.56448380e+02
333             	3.56452561e+02
334             	3.56458422e+02
335             	3.56463494e+02
336             	3.56470437e+02
337             	3.56477551e+02
338             	3.56482689e+02
339             	3.56485586e+02
340             	3.56485725e+02
341             	3.56485700e+02
342             	3.56486835e+02
343             	3.56485208e+02
344             	3.56481903e+02
345             	3.56477333e+02
346             	3.56472012e+02
347             	3.56466685e+02
348             	3.56464254e+02
349             	3.56463585e+02
350             	3.56463684e+02
351             	3.56464403e+02
352             	3.56465667e+02
353             	3.56466850e+02
354             	3.56467294e+02
355             	3.56467205e+02
356             	3.56467768e+02
357             	3.56468980e+02
358             	3.56470103e+02
359             	3.56470839e+02
360             	3.56471441e+02
361             	3.56472828e+02
362             	3.56472815e+02
363             	3.56471861e+02
364             	3.56472207e+02
365             	3.56474524e+02
366             	3.56476870e+02
367             	3.56480047e+02
368             	3.56484181e+02
369             	3.56488730e+02
370             	3.56491419e+02
371             	3.56491543e+02
372             	3.56491797e+02
373             	3.56493317e+02
374             	3.56493646e+02
375             	3.56491488e+02
376             	3.56487677e+02
377             	3.56483202e+02
378             	3.56477129e+02
379             	3.56470700e+02
380             	3.56464479e+02
381             	3.56458296e+02
382             	3.56453247e+02
383             	3.56453114e+02
384             	3.56452881e+02
385             	3.56455436e+02
386             	3.56462230e+02
387             	3.56471749e+02
388             	3.56482757e+02
389             	3.56491848e+02
390             	3.56497399e+02
391             	3.56503283e+02
392             	3.56504693e+02
393             	3.56502420e+02
394             	3.56498090e+02
395             	3.56491790e+02
396             	3.56484384e+02
397             	3.56476688e+02
398             	3.56469048e+02
399             	3.56462868e+02
400             	3.56459519e+02
401             	3.56458993e+02
402             	3.56458423e+02
403             	3.56465301e+02
404             	3.56476656e+02
405             	3.56487185e+02
406             	3.56496154e+02
407             	3.56504529e+02
408             	3.56511841e+02
409             	3.56511785e+02
410             	3.56503501e+02
411             	3.56489739e+02
412             	3.56473934e+02
413             	3.56458347e+02
414             	3.56442763e+02
415             	3.56430164e+02
416             	3.56423982e+02
417             	3.56424296e+02
418             	3.56432271e+02
419             	3.56446362e+02
420             	3.56460179e+02
421             	3.56472493e+02
422             	3.56482349e+02
423             	3.56491125e+02
424             	3.56494679e+02
425             	3.56497280e+02
426             	3.56495590e+02
427             	3.56491438e+02
428             	3.56486214e+02
429             	3.56480302e+02
430             	3.56473746e+02
431             	3.56465312e+02
432             	3.56455277e+02
433             	3.56448447e+02
434             	3.56444093e+02
435             	3.56444500e+02
436             	3.56449646e+02
437             	3.56458657e+02
438             	3.56467352e+02
439             	3.56477346e+02
440             	3.56483134e+02
441             	3.56488520e+02
442             	3.56493727e+02
443             	3.56497487e+02
444             	3.56497401e+02
445             	3.56496696e+02
446             	3.56491219e+02
447             	3.56483265e+02
448             	3.56474276e+02
449             	3.56465174e+02
450             	3.56455510e+02
451             	3.56446559e+02
452             	3.56439637e+02
453             	3.56433845e+02
454             	3.56432148e+02
455             	3.56433858e+02
456             	3.56438461e+02
457             	3.56445633e+02
458             	3.56452927e+02
459             	3.56458789e+02
460             	3.56462574e+02
461             	3.56464247e+02
462             	3.56464243e+02
463             	3.56463617e+02
464             	3.56462374e+02
465             	3.56460685e+02
466             	3.56459574e+02
467             	3.56459341e+02
468             	3.56456356e+02
469             	3.56453134e+02
470             	3.56450785e+02
471             	3.56449303e+02
472             	3.56446242e+02
473             	3.56441712e+02
474             	3.56437847e+02
475             	3.56435574e+02
476             	3.56433910e+02
477             	3.56435471e+02
478             	3.56439026e+02
479             	3.56445394e+02
480             	3.56455486e+02
481             	3.56464630e+02
482             	3.56469786e+02
483             	3.56472896e+02
484             	3.56475039e+02
485             	3.56475695e+02
486             	3.56475726e+02
487             	3.56475974e+02
488             	3.56476768e+02
489             	3.56479473e+02
490             	3.56483751e+02
491             	3.56488079e+02
492             	3.56491483e+02
493             	3.56494363e+02
494             	3.56496029e+02
495             	3.56496213e+02
496             	3.56495680e+02
497             	3.56495203e+02
498             	3.56495476e+02
499             	3.56497175e+02
500             	3.56500646e+02
501             	3.56502136e+02
502             	3.56499615e+02
503             	3.56499435e+02
504             	3.56502310e+02
505             	3.56505876e+02
506             	3.56508158e+02
507             	3.56508977e+02
508             	3.56509429e+02
509             	3.56510584e+02
510             	3.56513874e+02
511             	3.56510755e+02
512             	3.56505517e+02
513             	3.56503444e+02
514             	3.56501810e+02
515             	3.56497831e+02
516             	3.56491998e+02
517             	3.56485929e+02
518             	3.56479893e+02
519             	3.56474055e+02
520             	3.56469247e+02
521             	3.56466806e+02
522             	3.56465901e+02
523             	3.56465331e+02
524             	3.56465581e+02
525             	3.56464983e+02
526             	3.56465369e+02
527             	3.56466599e+02
528             	3.56467620e+02
529             	3.56469446e+02
530             	3.56472446e+02
531             	3.56476166e+02
532             	3.56478582e+02
533             	3.56481446e+02
534             	3.56484072e+02
535             	3.56486989e+02
536             	3.56491281e+02
537             	3.56496865e+02
538             	3.56502274e+02
539             	3.56508206e+02
540             	3.56514433e+02
541             	3.56519019e+02
542             	3.56520061e+02
543             	3.56520594e+02
544             	3.56522413e+02
545             	3.56523892e+02
546             	3.56524194e+02
547             	3.56524667e+02
548             	3.56525734e+02
549             	3.56527223e+02
550             	3.56529169e+02
551             	3.56531200e+02
552             	3.56532932e+02
553             	3.56534312e+02
554             	3.56535430e+02
555             	3.56537684e+02
556             	3.56541608e+02
557             	3.56544597e+02
558             	3.56546240e+02
559             	3.56548627e+02
560             	3.56553057e+02
561             	3.56558493e+02
562             	3.56563872e+02
563             	3.56567224e+02
564             	3.56570150e+02
565             	3.56570045e+02
566             	3.56568703e+02
567             	3.56566260e+02
568             	3.56564165e+02
569             	3.56560466e+02
570             	3.56553350e+02
571             	3.56545326e+02
572             	3.56537283e+02
573             	3.56529970e+02
574             	3.56522193e+02
575             	3.56514598e+02
576             	3.56508675e+02
577             	3.56503355e+02
578             	3.56499005e+02
579             	3.56495252e+02
580             	3.56492782e+02
581             	3.56493054e+02
582             	3.56494925e+02
583             	3.56497359e+02
584             	3.56499634e+02
585             	3.56501242e+02
586             	3.56501952e+02
587             	3.56502990e+02
588             	3.56502937e+02
589             	3.56501513e+02
590             	3.56499276e+02
591             	3.56496190e+02
592             	3.56492822e+02
593             	3.56489497e+02
594             	3.56485911e+02
595             	3.56481967e+02
596             	3.56478824e+02
597             	3.56477522e+02
598             	3.56478321e+02
599             	3.56480392e+02
600             	3.56482503e+02
601             	3.56485280e+02
602             	3.56488340e+02
603             	3.56491703e+02
604             	3.56495778e+02
605             	3.56499726e+02
606             	3.56503886e+02
607             	3.56508812e+02
608             	3.56514593e+02
609             	3.56521030e+02
610             	3.56527885e+02
611             	3.56534529e+02
612             	3.56539748e+02
613             	3.56544250e+02
614             	3.56548678e+02
615             	3.56553877e+02
616             	3.56559686e+02
617             	3.56566306e+02
618             	3.56574196e+02
619             	3.56584693e+02
620             	3.56598397e+02
621             	3.56612443e+02
