# Region        : cellZone component_1
# Cells         : 65
# Volume        : 1.12528317e-01
# Time          	volAverage(T)
1               	3.00531979e+02
2               	3.01053857e+02
3               	3.01546121e+02
4               	3.02023690e+02
5               	3.02494204e+02
6               	3.02960117e+02
7               	3.03423139e+02
8               	3.03883337e+02
9               	3.04341381e+02
10              	3.04796661e+02
11              	3.05247760e+02
12              	3.05694054e+02
13              	3.06137332e+02
14              	3.06577997e+02
15              	3.07017741e+02
16              	3.07455688e+02
17              	3.07893577e+02
18              	3.08329361e+02
19              	3.08762145e+02
20              	3.09188070e+02
21              	3.09606659e+02
22              	3.10016363e+02
23              	3.10419423e+02
24              	3.10816559e+02
25              	3.11209560e+02
26              	3.11601707e+02
27              	3.11993794e+02
28              	3.12384975e+02
29              	3.12773403e+02
30              	3.13157642e+02
31              	3.13537173e+02
32              	3.13911336e+02
33              	3.14277400e+02
34              	3.14638164e+02
35              	3.14991893e+02
36              	3.15337344e+02
37              	3.15684254e+02
38              	3.16027114e+02
39              	3.16369555e+02
40              	3.16704181e+02
41              	3.17040060e+02
42              	3.17376671e+02
43              	3.17708634e+02
44              	3.18037795e+02
45              	3.18364372e+02
46              	3.18681402e+02
47              	3.18997415e+02
48              	3.19308351e+02
49              	3.19619963e+02
50              	3.19927869e+02
51              	3.20230509e+02
52              	3.20528123e+02
53              	3.20814073e+02
54              	3.21099549e+02
55              	3.21376508e+02
56              	3.21647467e+02
57              	3.21914150e+02
58              	3.22178964e+02
59              	3.22441677e+02
60              	3.22704099e+02
61              	3.22961162e+02
62              	3.23219942e+02
63              	3.23472174e+02
64              	3.23723889e+02
65              	3.23972105e+02
66              	3.24213333e+02
67              	3.24442970e+02
68              	3.24671208e+02
69              	3.24897088e+02
70              	3.25124506e+02
71              	3.25351267e+02
72              	3.25581363e+02
73              	3.25807326e+02
74              	3.26028838e+02
75              	3.26249993e+02
76              	3.26466530e+02
77              	3.26673967e+02
78              	3.26874261e+02
79              	3.27062749e+02
80              	3.27252585e+02
81              	3.27441336e+02
82              	3.27628389e+02
83              	3.27813630e+02
84              	3.27998343e+02
85              	3.28177891e+02
86              	3.28359335e+02
87              	3.28540482e+02
88              	3.28725104e+02
89              	3.28905434e+02
90              	3.29089515e+02
91              	3.29267164e+02
92              	3.29441384e+02
93              	3.29610729e+02
94              	3.29782875e+02
95              	3.29956065e+02
96              	3.30126248e+02
97              	3.30297266e+02
98              	3.30464471e+02
99              	3.30629768e+02
100             	3.30791412e+02
101             	3.30952406e+02
102             	3.31110765e+02
103             	3.31264330e+02
104             	3.31417270e+02
105             	3.31568341e+02
106             	3.31719142e+02
107             	3.31863829e+02
108             	3.32006455e+02
109             	3.32145569e+02
110             	3.32284255e+02
111             	3.32426434e+02
112             	3.32566977e+02
113             	3.32710329e+02
114             	3.32842423e+02
115             	3.32977143e+02
116             	3.33111761e+02
117             	3.33247884e+02
118             	3.33383944e+02
119             	3.33517870e+02
120             	3.33652963e+02
121             	3.33777266e+02
122             	3.33892843e+02
123             	3.34013916e+02
124             	3.34130638e+02
125             	3.34247485e+02
126             	3.34364642e+02
127             	3.34470515e+02
128             	3.34576782e+02
129             	3.34678229e+02
130             	3.34782373e+02
131             	3.34882149e+02
132             	3.34984425e+02
133             	3.35085743e+02
134             	3.35191846e+02
135             	3.35291074e+02
136             	3.35391314e+02
137             	3.35483728e+02
138             	3.35571719e+02
139             	3.35661788e+02
140             	3.35749708e+02
141             	3.35841413e+02
142             	3.35929669e+02
143             	3.36020601e+02
144             	3.36114614e+02
145             	3.36208325e+02
146             	3.36302542e+02
147             	3.36392036e+02
148             	3.36477495e+02
149             	3.36554761e+02
150             	3.36634989e+02
151             	3.36714729e+02
152             	3.36778327e+02
153             	3.36848310e+02
154             	3.36914199e+02
155             	3.36982709e+02
156             	3.37054574e+02
157             	3.37127320e+02
158             	3.37195461e+02
159             	3.37264817e+02
160             	3.37334769e+02
161             	3.37402320e+02
162             	3.37469988e+02
163             	3.37531848e+02
164             	3.37596896e+02
165             	3.37657528e+02
166             	3.37721603e+02
167             	3.37786046e+02
168             	3.37850024e+02
169             	3.37912202e+02
170             	3.37977137e+02
171             	3.38034034e+02
172             	3.38088976e+02
173             	3.38146274e+02
174             	3.38202503e+02
175             	3.38255410e+02
176             	3.38305597e+02
177             	3.38358178e+02
178             	3.38408015e+02
179             	3.38459198e+02
180             	3.38511850e+02
181             	3.38562458e+02
182             	3.38609526e+02
183             	3.38658868e+02
184             	3.38708672e+02
185             	3.38756839e+02
186             	3.38806872e+02
187             	3.38848505e+02
188             	3.38895241e+02
189             	3.38933575e+02
190             	3.38965442e+02
191             	3.39000814e+02
192             	3.39037187e+02
193             	3.39077822e+02
194             	3.39114922e+02
195             	3.39157140e+02
196             	3.39200652e+02
197             	3.39244016e+02
198             	3.39285771e+02
199             	3.39325817e+02
200             	3.39364944e+02
201             	3.39403599e+02
202             	3.39440970e+02
203             	3.39474681e+02
204             	3.39503483e+02
205             	3.39533282e+02
206             	3.39563366e+02
207             	3.39593158e+02
208             	3.39623346e+02
209             	3.39655837e+02
210             	3.39686017e+02
211             	3.39716409e+02
212             	3.39747599e+02
213             	3.39779790e+02
214             	3.39812896e+02
215             	3.39846337e+02
216             	3.39872641e+02
217             	3.39903986e+02
218             	3.39932583e+02
219             	3.39965646e+02
220             	3.39997420e+02
221             	3.40028114e+02
222             	3.40058748e+02
223             	3.40089358e+02
224             	3.40119373e+02
225             	3.40148103e+02
226             	3.40174890e+02
227             	3.40197145e+02
228             	3.40218455e+02
229             	3.40242112e+02
230             	3.40266973e+02
231             	3.40292358e+02
232             	3.40320798e+02
233             	3.40344313e+02
234             	3.40367762e+02
235             	3.40392933e+02
236             	3.40418243e+02
237             	3.40443682e+02
238             	3.40469073e+02
239             	3.40495226e+02
240             	3.40519581e+02
241             	3.40540691e+02
242             	3.40564390e+02
243             	3.40587614e+02
244             	3.40610852e+02
245             	3.40632638e+02
246             	3.40653042e+02
247             	3.40672047e+02
248             	3.40690190e+02
249             	3.40708933e+02
250             	3.40728622e+02
251             	3.40746648e+02
252             	3.40769103e+02
253             	3.40785351e+02
254             	3.40801383e+02
255             	3.40819032e+02
256             	3.40836390e+02
257             	3.40856870e+02
258             	3.40877122e+02
259             	3.40893920e+02
260             	3.40909562e+02
261             	3.40923696e+02
262             	3.40941070e+02
263             	3.40959741e+02
264             	3.40977377e+02
265             	3.40993912e+02
266             	3.41009279e+02
267             	3.41023907e+02
268             	3.41039869e+02
269             	3.41053742e+02
270             	3.41064592e+02
271             	3.41074662e+02
272             	3.41084836e+02
273             	3.41094698e+02
274             	3.41106016e+02
275             	3.41117460e+02
276             	3.41128677e+02
277             	3.41140018e+02
278             	3.41151735e+02
279             	3.41164142e+02
280             	3.41175577e+02
281             	3.41188114e+02
282             	3.41201409e+02
283             	3.41214967e+02
284             	3.41228695e+02
285             	3.41244422e+02
286             	3.41258117e+02
287             	3.41271052e+02
288             	3.41283678e+02
289             	3.41295865e+02
290             	3.41307021e+02
291             	3.41317056e+02
292             	3.41326543e+02
293             	3.41335335e+02
294             	3.41343076e+02
295             	3.41351251e+02
296             	3.41357433e+02
297             	3.41362709e+02
298             	3.41367593e+02
299             	3.41372375e+02
300             	3.41376409e+02
301             	3.41381720e+02
302             	3.41387579e+02
303             	3.41393464e+02
304             	3.41399205e+02
305             	3.41404879e+02
306             	3.41408953e+02
307             	3.41415459e+02
308             	3.41422440e+02
309             	3.41428948e+02
310             	3.41435153e+02
311             	3.41441136e+02
312             	3.41447164e+02
313             	3.41453097e+02
314             	3.41458946e+02
315             	3.41465228e+02
316             	3.41471056e+02
317             	3.41476864e+02
318             	3.41483077e+02
319             	3.41489830e+02
320             	3.41497126e+02
321             	3.41504944e+02
322             	3.41512463e+02
323             	3.41519494e+02
324             	3.41527382e+02
325             	3.41535734e+02
326             	3.41544191e+02
327             	3.41552676e+02
328             	3.41561193e+02
329             	3.41569660e+02
330             	3.41578143e+02
331             	3.41587560e+02
332             	3.41597325e+02
333             	3.41607077e+02
334             	3.41616802e+02
335             	3.41626576e+02
336             	3.41635799e+02
337             	3.41644643e+02
338             	3.41653187e+02
339             	3.41661495e+02
340             	3.41669164e+02
341             	3.41676214e+02
342             	3.41682690e+02
343             	3.41688631e+02
344             	3.41693903e+02
345             	3.41698569e+02
346             	3.41700748e+02
347             	3.41705428e+02
348             	3.41710658e+02
349             	3.41714941e+02
350             	3.41718535e+02
351             	3.41721406e+02
352             	3.41724705e+02
353             	3.41728405e+02
354             	3.41732223e+02
355             	3.41737886e+02
356             	3.41745058e+02
357             	3.41748800e+02
358             	3.41752161e+02
359             	3.41754582e+02
360             	3.41760133e+02
361             	3.41766998e+02
362             	3.41773301e+02
363             	3.41778837e+02
364             	3.41779995e+02
365             	3.41780249e+02
366             	3.41783646e+02
367             	3.41789484e+02
368             	3.41794055e+02
369             	3.41797691e+02
370             	3.41801230e+02
371             	3.41804637e+02
372             	3.41807744e+02
373             	3.41811547e+02
374             	3.41814114e+02
375             	3.41814903e+02
376             	3.41815297e+02
377             	3.41815953e+02
378             	3.41817074e+02
379             	3.41817763e+02
380             	3.41820079e+02
381             	3.41822982e+02
382             	3.41823654e+02
383             	3.41825622e+02
384             	3.41830054e+02
385             	3.41834656e+02
386             	3.41838460e+02
387             	3.41842101e+02
388             	3.41846695e+02
389             	3.41851139e+02
390             	3.41854380e+02
391             	3.41857119e+02
392             	3.41860470e+02
393             	3.41863331e+02
394             	3.41864793e+02
395             	3.41865455e+02
396             	3.41865531e+02
397             	3.41865596e+02
398             	3.41865545e+02
399             	3.41864881e+02
400             	3.41864829e+02
401             	3.41864663e+02
402             	3.41863923e+02
403             	3.41862137e+02
404             	3.41861281e+02
405             	3.41860590e+02
406             	3.41859841e+02
407             	3.41859238e+02
408             	3.41858825e+02
409             	3.41858846e+02
410             	3.41859534e+02
411             	3.41860410e+02
412             	3.41861527e+02
413             	3.41862794e+02
414             	3.41864073e+02
415             	3.41865363e+02
416             	3.41866706e+02
417             	3.41868100e+02
418             	3.41869528e+02
419             	3.41871001e+02
420             	3.41872591e+02
421             	3.41874096e+02
422             	3.41875450e+02
423             	3.41878165e+02
424             	3.41879791e+02
425             	3.41881052e+02
426             	3.41882390e+02
427             	3.41883856e+02
428             	3.41884685e+02
429             	3.41886534e+02
430             	3.41888978e+02
431             	3.41891787e+02
432             	3.41895013e+02
433             	3.41898795e+02
434             	3.41902909e+02
435             	3.41907753e+02
436             	3.41913184e+02
437             	3.41919037e+02
438             	3.41925141e+02
439             	3.41931442e+02
440             	3.41937919e+02
441             	3.41944553e+02
442             	3.41951361e+02
443             	3.41958369e+02
444             	3.41965534e+02
445             	3.41972801e+02
446             	3.41980049e+02
447             	3.41987128e+02
448             	3.41993963e+02
449             	3.42000522e+02
450             	3.42006724e+02
451             	3.42012501e+02
452             	3.42017815e+02
453             	3.42022721e+02
454             	3.42027252e+02
455             	3.42031420e+02
456             	3.42035257e+02
457             	3.42038823e+02
458             	3.42042133e+02
459             	3.42044814e+02
460             	3.42047752e+02
461             	3.42050645e+02
462             	3.42053506e+02
463             	3.42056197e+02
464             	3.42058750e+02
465             	3.42061280e+02
466             	3.42063873e+02
467             	3.42066597e+02
468             	3.42069528e+02
469             	3.42072706e+02
470             	3.42076159e+02
471             	3.42079890e+02
472             	3.42083923e+02
473             	3.42088285e+02
474             	3.42092933e+02
475             	3.42097792e+02
476             	3.42102805e+02
477             	3.42107921e+02
478             	3.42113112e+02
479             	3.42118286e+02
480             	3.42123344e+02
481             	3.42128216e+02
482             	3.42132862e+02
483             	3.42137289e+02
484             	3.42141436e+02
485             	3.42145253e+02
486             	3.42148680e+02
487             	3.42151746e+02
488             	3.42154464e+02
489             	3.42156825e+02
490             	3.42158815e+02
491             	3.42160415e+02
492             	3.42161683e+02
493             	3.42162653e+02
494             	3.42163363e+02
495             	3.42163815e+02
496             	3.42164026e+02
497             	3.42164046e+02
498             	3.42163912e+02
499             	3.42163611e+02
500             	3.42163154e+02
501             	3.42162558e+02
502             	3.42161817e+02
503             	3.42160966e+02
504             	3.42160030e+02
505             	3.42159026e+02
506             	3.42157995e+02
507             	3.42156962e+02
508             	3.42155931e+02
509             	3.42154943e+02
510             	3.42154017e+02
511             	3.42153168e+02
512             	3.42152427e+02
513             	3.42151830e+02
514             	3.42151371e+02
515             	3.42151061e+02
516             	3.42150899e+02
517             	3.42150870e+02
518             	3.42150987e+02
519             	3.42151250e+02
520             	3.42151631e+02
521             	3.42152124e+02
522             	3.42152707e+02
523             	3.42153340e+02
524             	3.42154007e+02
525             	3.42154685e+02
526             	3.42155335e+02
527             	3.42155947e+02
528             	3.42156505e+02
529             	3.42156981e+02
530             	3.42157372e+02
531             	3.42157678e+02
532             	3.42157937e+02
533             	3.42158429e+02
534             	3.42158393e+02
535             	3.42158141e+02
536             	3.42157863e+02
537             	3.42157611e+02
538             	3.42157383e+02
539             	3.42157201e+02
540             	3.42157061e+02
541             	3.42156957e+02
542             	3.42156922e+02
543             	3.42157011e+02
544             	3.42157234e+02
545             	3.42157629e+02
546             	3.42158234e+02
547             	3.42159030e+02
548             	3.42160034e+02
549             	3.42161243e+02
550             	3.42162632e+02
551             	3.42164211e+02
552             	3.42165969e+02
553             	3.42167875e+02
554             	3.42169917e+02
555             	3.42172073e+02
556             	3.42174293e+02
557             	3.42176554e+02
558             	3.42178823e+02
559             	3.42181047e+02
560             	3.42183205e+02
561             	3.42185280e+02
562             	3.42187235e+02
563             	3.42189070e+02
564             	3.42190780e+02
565             	3.42192346e+02
566             	3.42193771e+02
567             	3.42195053e+02
568             	3.42196185e+02
569             	3.42197196e+02
570             	3.42198124e+02
571             	3.42198987e+02
572             	3.42199936e+02
573             	3.42200707e+02
574             	3.42201438e+02
575             	3.42202235e+02
576             	3.42203116e+02
577             	3.42204107e+02
578             	3.42205245e+02
579             	3.42206531e+02
580             	3.42207997e+02
581             	3.42209674e+02
582             	3.42211561e+02
583             	3.42213692e+02
584             	3.42216086e+02
585             	3.42218734e+02
586             	3.42221658e+02
587             	3.42224858e+02
588             	3.42228300e+02
589             	3.42232020e+02
590             	3.42235990e+02
591             	3.42240145e+02
592             	3.42244465e+02
593             	3.42248927e+02
594             	3.42253485e+02
595             	3.42258109e+02
596             	3.42262762e+02
597             	3.42267377e+02
598             	3.42271919e+02
599             	3.42276353e+02
600             	3.42280624e+02
601             	3.42284718e+02
602             	3.42288632e+02
603             	3.42292339e+02
604             	3.42295805e+02
605             	3.42299006e+02
606             	3.42301960e+02
607             	3.42304703e+02
608             	3.42307486e+02
609             	3.42309766e+02
610             	3.42311756e+02
611             	3.42313633e+02
612             	3.42315442e+02
613             	3.42317171e+02
614             	3.42318840e+02
615             	3.42320501e+02
616             	3.42322172e+02
617             	3.42323861e+02
618             	3.42325588e+02
619             	3.42327416e+02
620             	3.42329396e+02
621             	3.42331536e+02
