# Region        : cellZone component_1
# Cells         : 248
# Volume        : 5.23282099e-01
# Time          	volAverage(T)
1               	3.00112556e+02
2               	3.00224069e+02
3               	3.00329133e+02
4               	3.00429191e+02
5               	3.00526620e+02
6               	3.00621944e+02
7               	3.00715342e+02
8               	3.00806976e+02
9               	3.00897191e+02
10              	3.00985906e+02
11              	3.01072241e+02
12              	3.01157987e+02
13              	3.01242860e+02
14              	3.01327219e+02
15              	3.01411529e+02
16              	3.01494568e+02
17              	3.01576485e+02
18              	3.01657527e+02
19              	3.01738044e+02
20              	3.01814927e+02
21              	3.01892543e+02
22              	3.01968710e+02
23              	3.02043621e+02
24              	3.02116067e+02
25              	3.02186251e+02
26              	3.02253965e+02
27              	3.02319263e+02
28              	3.02383930e+02
29              	3.02445192e+02
30              	3.02505751e+02
31              	3.02565484e+02
32              	3.02623379e+02
33              	3.02680823e+02
34              	3.02737052e+02
35              	3.02793089e+02
36              	3.02848181e+02
37              	3.02903325e+02
38              	3.02958768e+02
39              	3.03013575e+02
40              	3.03068187e+02
41              	3.03120201e+02
42              	3.03170957e+02
43              	3.03219383e+02
44              	3.03268508e+02
45              	3.03315992e+02
46              	3.03361688e+02
47              	3.03406395e+02
48              	3.03450736e+02
49              	3.03495255e+02
50              	3.03540057e+02
51              	3.03584415e+02
52              	3.03628218e+02
53              	3.03672129e+02
54              	3.03714961e+02
55              	3.03758243e+02
56              	3.03801562e+02
57              	3.03845448e+02
58              	3.03890316e+02
59              	3.03933241e+02
60              	3.03973524e+02
61              	3.04010100e+02
62              	3.04046543e+02
63              	3.04081873e+02
64              	3.04115687e+02
65              	3.04148419e+02
66              	3.04182591e+02
67              	3.04216172e+02
68              	3.04249478e+02
69              	3.04282366e+02
70              	3.04313363e+02
71              	3.04344835e+02
72              	3.04374446e+02
73              	3.04403361e+02
74              	3.04431997e+02
75              	3.04459651e+02
76              	3.04487052e+02
77              	3.04513546e+02
78              	3.04540701e+02
79              	3.04566229e+02
80              	3.04591627e+02
81              	3.04616523e+02
82              	3.04641519e+02
83              	3.04666735e+02
84              	3.04691346e+02
85              	3.04716723e+02
86              	3.04740771e+02
87              	3.04764511e+02
88              	3.04787511e+02
89              	3.04810243e+02
90              	3.04832515e+02
91              	3.04854381e+02
92              	3.04876954e+02
93              	3.04898204e+02
94              	3.04919348e+02
95              	3.04939998e+02
96              	3.04960496e+02
97              	3.04980514e+02
98              	3.05000046e+02
99              	3.05020019e+02
100             	3.05038629e+02
101             	3.05056981e+02
102             	3.05074763e+02
103             	3.05092405e+02
104             	3.05109589e+02
105             	3.05126573e+02
106             	3.05144136e+02
107             	3.05160608e+02
108             	3.05176975e+02
109             	3.05192929e+02
110             	3.05208838e+02
111             	3.05224353e+02
112             	3.05239753e+02
113             	3.05254945e+02
114             	3.05269745e+02
115             	3.05285017e+02
116             	3.05299343e+02
117             	3.05313626e+02
118             	3.05327501e+02
119             	3.05341303e+02
120             	3.05355098e+02
121             	3.05368469e+02
122             	3.05382237e+02
123             	3.05395111e+02
124             	3.05407902e+02
125             	3.05420358e+02
126             	3.05432816e+02
127             	3.05445222e+02
128             	3.05457365e+02
129             	3.05469909e+02
130             	3.05481680e+02
131             	3.05493345e+02
132             	3.05504591e+02
133             	3.05515732e+02
134             	3.05526804e+02
135             	3.05537513e+02
136             	3.05548534e+02
137             	3.05558895e+02
138             	3.05569153e+02
139             	3.05579068e+02
140             	3.05588848e+02
141             	3.05598403e+02
142             	3.05607832e+02
143             	3.05617243e+02
144             	3.05626322e+02
145             	3.05635269e+02
146             	3.05643995e+02
147             	3.05652696e+02
148             	3.05661351e+02
149             	3.05669936e+02
150             	3.05678846e+02
151             	3.05687146e+02
152             	3.05695326e+02
153             	3.05703328e+02
154             	3.05711398e+02
155             	3.05719393e+02
156             	3.05727384e+02
157             	3.05735406e+02
158             	3.05743249e+02
159             	3.05751080e+02
160             	3.05758742e+02
161             	3.05766377e+02
162             	3.05773766e+02
163             	3.05780988e+02
164             	3.05788191e+02
165             	3.05795256e+02
166             	3.05802281e+02
167             	3.05809104e+02
168             	3.05815843e+02
169             	3.05822403e+02
170             	3.05828953e+02
171             	3.05835492e+02
172             	3.05841918e+02
173             	3.05848294e+02
174             	3.05854493e+02
175             	3.05860691e+02
176             	3.05866725e+02
177             	3.05872735e+02
178             	3.05878668e+02
179             	3.05884460e+02
180             	3.05890215e+02
181             	3.05895820e+02
182             	3.05901320e+02
183             	3.05906690e+02
184             	3.05912074e+02
185             	3.05917472e+02
186             	3.05922736e+02
187             	3.05928190e+02
188             	3.05933311e+02
189             	3.05938422e+02
190             	3.05943414e+02
191             	3.05948449e+02
192             	3.05953443e+02
193             	3.05958374e+02
194             	3.05963283e+02
195             	3.05968060e+02
196             	3.05972775e+02
197             	3.05977357e+02
198             	3.05981872e+02
199             	3.05986287e+02
200             	3.05990617e+02
201             	3.05994893e+02
202             	3.05999048e+02
203             	3.06003157e+02
204             	3.06007140e+02
205             	3.06011107e+02
206             	3.06014978e+02
207             	3.06018801e+02
208             	3.06022508e+02
209             	3.06026139e+02
210             	3.06029753e+02
211             	3.06033256e+02
212             	3.06036728e+02
213             	3.06040089e+02
214             	3.06043399e+02
215             	3.06046661e+02
216             	3.06049832e+02
217             	3.06052982e+02
218             	3.06056054e+02
219             	3.06059129e+02
220             	3.06062142e+02
221             	3.06065167e+02
222             	3.06068222e+02
223             	3.06071221e+02
224             	3.06074233e+02
225             	3.06077185e+02
226             	3.06080151e+02
227             	3.06083082e+02
228             	3.06086030e+02
229             	3.06088969e+02
230             	3.06091864e+02
231             	3.06094762e+02
232             	3.06097591e+02
233             	3.06100431e+02
234             	3.06103199e+02
235             	3.06105965e+02
236             	3.06108726e+02
237             	3.06111398e+02
238             	3.06114013e+02
239             	3.06116521e+02
240             	3.06118970e+02
241             	3.06121324e+02
242             	3.06123611e+02
243             	3.06125860e+02
244             	3.06128077e+02
245             	3.06130274e+02
246             	3.06132415e+02
247             	3.06134536e+02
248             	3.06136581e+02
249             	3.06138610e+02
250             	3.06140604e+02
251             	3.06142592e+02
252             	3.06144579e+02
253             	3.06146532e+02
254             	3.06148487e+02
255             	3.06150418e+02
256             	3.06152368e+02
257             	3.06154292e+02
258             	3.06156228e+02
259             	3.06158177e+02
260             	3.06160093e+02
261             	3.06162006e+02
262             	3.06163885e+02
263             	3.06165743e+02
264             	3.06167576e+02
265             	3.06169415e+02
266             	3.06171243e+02
267             	3.06173027e+02
268             	3.06174790e+02
269             	3.06176494e+02
270             	3.06178174e+02
271             	3.06179784e+02
272             	3.06181374e+02
273             	3.06182946e+02
274             	3.06184480e+02
275             	3.06185981e+02
276             	3.06187436e+02
277             	3.06188889e+02
278             	3.06190309e+02
279             	3.06191737e+02
280             	3.06193157e+02
281             	3.06194555e+02
282             	3.06195941e+02
283             	3.06197297e+02
284             	3.06198650e+02
285             	3.06199970e+02
286             	3.06201288e+02
287             	3.06202592e+02
288             	3.06203851e+02
289             	3.06205090e+02
290             	3.06206291e+02
291             	3.06207485e+02
292             	3.06208659e+02
293             	3.06209844e+02
294             	3.06210990e+02
295             	3.06212119e+02
296             	3.06213251e+02
297             	3.06214370e+02
298             	3.06215487e+02
299             	3.06216576e+02
300             	3.06217674e+02
301             	3.06218774e+02
302             	3.06219874e+02
303             	3.06220960e+02
304             	3.06222015e+02
305             	3.06223035e+02
306             	3.06224035e+02
307             	3.06225034e+02
308             	3.06226008e+02
309             	3.06226993e+02
310             	3.06227984e+02
311             	3.06228952e+02
312             	3.06229921e+02
313             	3.06230872e+02
314             	3.06231825e+02
315             	3.06232745e+02
316             	3.06233642e+02
317             	3.06234519e+02
318             	3.06235387e+02
319             	3.06236258e+02
320             	3.06237109e+02
321             	3.06237955e+02
322             	3.06238776e+02
323             	3.06239588e+02
324             	3.06240393e+02
325             	3.06241168e+02
326             	3.06241938e+02
327             	3.06242696e+02
328             	3.06243455e+02
329             	3.06244194e+02
330             	3.06244933e+02
331             	3.06245663e+02
332             	3.06246385e+02
333             	3.06247102e+02
334             	3.06247800e+02
335             	3.06248495e+02
336             	3.06249171e+02
337             	3.06249850e+02
338             	3.06250530e+02
339             	3.06251205e+02
340             	3.06251874e+02
341             	3.06252532e+02
342             	3.06253194e+02
343             	3.06253848e+02
344             	3.06254511e+02
345             	3.06255146e+02
346             	3.06255795e+02
347             	3.06256448e+02
348             	3.06257079e+02
349             	3.06257691e+02
350             	3.06258271e+02
351             	3.06258842e+02
352             	3.06259389e+02
353             	3.06259921e+02
354             	3.06260445e+02
355             	3.06260951e+02
356             	3.06261450e+02
357             	3.06261941e+02
358             	3.06262439e+02
359             	3.06262927e+02
360             	3.06263421e+02
361             	3.06263921e+02
362             	3.06264398e+02
363             	3.06264867e+02
364             	3.06265328e+02
365             	3.06265797e+02
366             	3.06266260e+02
367             	3.06266727e+02
368             	3.06267188e+02
369             	3.06267638e+02
370             	3.06268084e+02
371             	3.06268525e+02
372             	3.06268978e+02
373             	3.06269423e+02
374             	3.06269865e+02
375             	3.06270300e+02
376             	3.06270718e+02
377             	3.06271130e+02
378             	3.06271524e+02
379             	3.06271915e+02
380             	3.06272296e+02
381             	3.06272670e+02
382             	3.06273045e+02
383             	3.06273423e+02
384             	3.06273811e+02
385             	3.06274196e+02
386             	3.06274574e+02
387             	3.06274957e+02
388             	3.06275351e+02
389             	3.06275738e+02
390             	3.06276113e+02
391             	3.06276485e+02
392             	3.06276846e+02
393             	3.06277200e+02
394             	3.06277541e+02
395             	3.06277879e+02
396             	3.06278213e+02
397             	3.06278544e+02
398             	3.06278875e+02
399             	3.06279201e+02
400             	3.06279529e+02
401             	3.06279848e+02
402             	3.06280163e+02
403             	3.06280462e+02
404             	3.06280751e+02
405             	3.06281041e+02
406             	3.06281335e+02
407             	3.06281624e+02
408             	3.06281905e+02
409             	3.06282187e+02
410             	3.06282459e+02
411             	3.06282729e+02
412             	3.06282998e+02
413             	3.06283254e+02
414             	3.06283507e+02
415             	3.06283746e+02
416             	3.06283986e+02
417             	3.06284219e+02
418             	3.06284453e+02
419             	3.06284688e+02
420             	3.06284920e+02
421             	3.06285153e+02
422             	3.06285379e+02
423             	3.06285602e+02
424             	3.06285817e+02
425             	3.06286033e+02
426             	3.06286246e+02
427             	3.06286453e+02
428             	3.06286653e+02
429             	3.06286848e+02
430             	3.06287044e+02
431             	3.06287238e+02
432             	3.06287434e+02
433             	3.06287629e+02
434             	3.06287824e+02
435             	3.06288026e+02
436             	3.06288223e+02
437             	3.06288424e+02
438             	3.06288624e+02
439             	3.06288832e+02
440             	3.06289045e+02
441             	3.06289261e+02
442             	3.06289476e+02
443             	3.06289681e+02
444             	3.06289878e+02
445             	3.06290055e+02
446             	3.06290220e+02
447             	3.06290379e+02
448             	3.06290539e+02
449             	3.06290702e+02
450             	3.06290864e+02
451             	3.06291029e+02
452             	3.06291192e+02
453             	3.06291353e+02
454             	3.06291505e+02
455             	3.06291652e+02
456             	3.06291789e+02
457             	3.06291908e+02
458             	3.06292020e+02
459             	3.06292133e+02
460             	3.06292249e+02
461             	3.06292367e+02
462             	3.06292491e+02
463             	3.06292625e+02
464             	3.06292764e+02
465             	3.06292903e+02
466             	3.06293038e+02
467             	3.06293175e+02
468             	3.06293313e+02
469             	3.06293450e+02
470             	3.06293585e+02
471             	3.06293723e+02
472             	3.06293867e+02
473             	3.06294009e+02
474             	3.06294150e+02
475             	3.06294287e+02
476             	3.06294428e+02
477             	3.06294564e+02
478             	3.06294693e+02
479             	3.06294821e+02
480             	3.06294942e+02
481             	3.06295058e+02
482             	3.06295169e+02
483             	3.06295284e+02
484             	3.06295394e+02
485             	3.06295500e+02
486             	3.06295608e+02
487             	3.06295712e+02
488             	3.06295812e+02
489             	3.06295907e+02
490             	3.06296005e+02
491             	3.06296107e+02
492             	3.06296210e+02
493             	3.06296309e+02
494             	3.06296402e+02
495             	3.06296493e+02
496             	3.06296582e+02
497             	3.06296676e+02
498             	3.06296773e+02
499             	3.06296872e+02
500             	3.06296976e+02
501             	3.06297078e+02
502             	3.06297180e+02
503             	3.06297283e+02
504             	3.06297384e+02
505             	3.06297480e+02
506             	3.06297575e+02
507             	3.06297669e+02
508             	3.06297761e+02
509             	3.06297852e+02
510             	3.06297943e+02
511             	3.06298036e+02
512             	3.06298124e+02
513             	3.06298206e+02
514             	3.06298290e+02
515             	3.06298369e+02
516             	3.06298442e+02
517             	3.06298510e+02
518             	3.06298576e+02
519             	3.06298637e+02
520             	3.06298697e+02
521             	3.06298754e+02
522             	3.06298807e+02
523             	3.06298859e+02
524             	3.06298909e+02
525             	3.06298963e+02
526             	3.06299010e+02
527             	3.06299055e+02
528             	3.06299103e+02
529             	3.06299153e+02
530             	3.06299208e+02
531             	3.06299265e+02
532             	3.06299327e+02
533             	3.06299393e+02
534             	3.06299465e+02
535             	3.06299536e+02
536             	3.06299608e+02
537             	3.06299680e+02
538             	3.06299751e+02
539             	3.06299819e+02
540             	3.06299881e+02
541             	3.06299937e+02
542             	3.06299987e+02
543             	3.06300033e+02
544             	3.06300076e+02
545             	3.06300119e+02
546             	3.06300166e+02
547             	3.06300213e+02
548             	3.06300261e+02
549             	3.06300306e+02
550             	3.06300348e+02
551             	3.06300385e+02
552             	3.06300421e+02
553             	3.06300456e+02
554             	3.06300491e+02
555             	3.06300528e+02
556             	3.06300566e+02
557             	3.06300604e+02
558             	3.06300644e+02
559             	3.06300684e+02
560             	3.06300724e+02
561             	3.06300765e+02
562             	3.06300807e+02
563             	3.06300848e+02
564             	3.06300893e+02
565             	3.06300940e+02
566             	3.06300986e+02
567             	3.06301034e+02
568             	3.06301084e+02
569             	3.06301138e+02
570             	3.06301192e+02
571             	3.06301246e+02
572             	3.06301298e+02
573             	3.06301347e+02
574             	3.06301393e+02
575             	3.06301440e+02
576             	3.06301481e+02
577             	3.06301522e+02
578             	3.06301562e+02
579             	3.06301598e+02
580             	3.06301631e+02
581             	3.06301658e+02
582             	3.06301681e+02
583             	3.06301699e+02
584             	3.06301714e+02
585             	3.06301725e+02
586             	3.06301736e+02
587             	3.06301749e+02
588             	3.06301762e+02
589             	3.06301778e+02
590             	3.06301798e+02
591             	3.06301821e+02
592             	3.06301849e+02
593             	3.06301881e+02
594             	3.06301915e+02
595             	3.06301951e+02
596             	3.06301986e+02
597             	3.06302026e+02
598             	3.06302065e+02
599             	3.06302105e+02
600             	3.06302143e+02
601             	3.06302181e+02
602             	3.06302220e+02
603             	3.06302257e+02
604             	3.06302293e+02
605             	3.06302327e+02
606             	3.06302355e+02
607             	3.06302380e+02
608             	3.06302404e+02
609             	3.06302426e+02
610             	3.06302449e+02
611             	3.06302472e+02
612             	3.06302496e+02
613             	3.06302519e+02
614             	3.06302541e+02
615             	3.06302563e+02
616             	3.06302584e+02
617             	3.06302604e+02
618             	3.06302624e+02
619             	3.06302646e+02
620             	3.06302671e+02
621             	3.06302694e+02
