# Region        : cellZone fluid
# Cells         : 8492
# Volume        : 1.64714038e+01
# Time          	volAverage(T)
1               	3.00000162e+02
2               	3.00000299e+02
3               	3.00001336e+02
4               	3.00002974e+02
5               	3.00003844e+02
6               	3.00004628e+02
7               	3.00005630e+02
8               	3.00006771e+02
9               	3.00008135e+02
10              	3.00009879e+02
11              	3.00011639e+02
12              	3.00013829e+02
13              	3.00015631e+02
14              	3.00017482e+02
15              	3.00019426e+02
16              	3.00021284e+02
17              	3.00023550e+02
18              	3.00026002e+02
19              	3.00029040e+02
20              	3.00031562e+02
21              	3.00034766e+02
22              	3.00038715e+02
23              	3.00041853e+02
24              	3.00045106e+02
25              	3.00047601e+02
26              	3.00049563e+02
27              	3.00053241e+02
28              	3.00056265e+02
29              	3.00058761e+02
30              	3.00061702e+02
31              	3.00064196e+02
32              	3.00067545e+02
33              	3.00071519e+02
34              	3.00074842e+02
35              	3.00078079e+02
36              	3.00081417e+02
37              	3.00084996e+02
38              	3.00089606e+02
39              	3.00094264e+02
40              	3.00098206e+02
41              	3.00102074e+02
42              	3.00106277e+02
43              	3.00110267e+02
44              	3.00114872e+02
45              	3.00117638e+02
46              	3.00121395e+02
47              	3.00125446e+02
48              	3.00129994e+02
49              	3.00134038e+02
50              	3.00137444e+02
51              	3.00142658e+02
52              	3.00147256e+02
53              	3.00152627e+02
54              	3.00156809e+02
55              	3.00162524e+02
56              	3.00167828e+02
57              	3.00175574e+02
58              	3.00179894e+02
59              	3.00183367e+02
60              	3.00187582e+02
61              	3.00192785e+02
62              	3.00196146e+02
63              	3.00200163e+02
64              	3.00203586e+02
65              	3.00208123e+02
66              	3.00212304e+02
67              	3.00215993e+02
68              	3.00219652e+02
69              	3.00223158e+02
70              	3.00227156e+02
71              	3.00232951e+02
72              	3.00238817e+02
73              	3.00244938e+02
74              	3.00250085e+02
75              	3.00253957e+02
76              	3.00260691e+02
77              	3.00269440e+02
78              	3.00274884e+02
79              	3.00279727e+02
80              	3.00284230e+02
81              	3.00287571e+02
82              	3.00289979e+02
83              	3.00295781e+02
84              	3.00301906e+02
85              	3.00304417e+02
86              	3.00308936e+02
87              	3.00310558e+02
88              	3.00317393e+02
89              	3.00322144e+02
90              	3.00325883e+02
91              	3.00331143e+02
92              	3.00336518e+02
93              	3.00341458e+02
94              	3.00345818e+02
95              	3.00349161e+02
96              	3.00352462e+02
97              	3.00353819e+02
98              	3.00357669e+02
99              	3.00362388e+02
100             	3.00367748e+02
101             	3.00372606e+02
102             	3.00377428e+02
103             	3.00381707e+02
104             	3.00388030e+02
105             	3.00391261e+02
106             	3.00393622e+02
107             	3.00396225e+02
108             	3.00399893e+02
109             	3.00402240e+02
110             	3.00405411e+02
111             	3.00407614e+02
112             	3.00411051e+02
113             	3.00412560e+02
114             	3.00414289e+02
115             	3.00416162e+02
116             	3.00418044e+02
117             	3.00419927e+02
118             	3.00420845e+02
119             	3.00422692e+02
120             	3.00424015e+02
121             	3.00426016e+02
122             	3.00428517e+02
123             	3.00431614e+02
124             	3.00435071e+02
125             	3.00437698e+02
126             	3.00439655e+02
127             	3.00441959e+02
128             	3.00443763e+02
129             	3.00446378e+02
130             	3.00447830e+02
131             	3.00451717e+02
132             	3.00456108e+02
133             	3.00458638e+02
134             	3.00461643e+02
135             	3.00464089e+02
136             	3.00467053e+02
137             	3.00468474e+02
138             	3.00468795e+02
139             	3.00474192e+02
140             	3.00476213e+02
141             	3.00476891e+02
142             	3.00478561e+02
143             	3.00481067e+02
144             	3.00484436e+02
145             	3.00488150e+02
146             	3.00490609e+02
147             	3.00492682e+02
148             	3.00493628e+02
149             	3.00495888e+02
150             	3.00497199e+02
151             	3.00498497e+02
152             	3.00499743e+02
153             	3.00501422e+02
154             	3.00502607e+02
155             	3.00503886e+02
156             	3.00504837e+02
157             	3.00506308e+02
158             	3.00506566e+02
159             	3.00507146e+02
160             	3.00507428e+02
161             	3.00507310e+02
162             	3.00507643e+02
163             	3.00509773e+02
164             	3.00510873e+02
165             	3.00512264e+02
166             	3.00514041e+02
167             	3.00515988e+02
168             	3.00517864e+02
169             	3.00517424e+02
170             	3.00518545e+02
171             	3.00521084e+02
172             	3.00523124e+02
173             	3.00524776e+02
174             	3.00526209e+02
175             	3.00527372e+02
176             	3.00529479e+02
177             	3.00529774e+02
178             	3.00530313e+02
179             	3.00530649e+02
180             	3.00532482e+02
181             	3.00532888e+02
182             	3.00536150e+02
183             	3.00536144e+02
184             	3.00537110e+02
185             	3.00538396e+02
186             	3.00540330e+02
187             	3.00542588e+02
188             	3.00543326e+02
189             	3.00544754e+02
190             	3.00547598e+02
191             	3.00550143e+02
192             	3.00552083e+02
193             	3.00553859e+02
194             	3.00555304e+02
195             	3.00556554e+02
196             	3.00557644e+02
197             	3.00558546e+02
198             	3.00560851e+02
199             	3.00560895e+02
200             	3.00562416e+02
201             	3.00563964e+02
202             	3.00565200e+02
203             	3.00566831e+02
204             	3.00568145e+02
205             	3.00569582e+02
206             	3.00569594e+02
207             	3.00572389e+02
208             	3.00574908e+02
209             	3.00575790e+02
210             	3.00577391e+02
211             	3.00578942e+02
212             	3.00579659e+02
213             	3.00580576e+02
214             	3.00584209e+02
215             	3.00583907e+02
216             	3.00584456e+02
217             	3.00585408e+02
218             	3.00587119e+02
219             	3.00588245e+02
220             	3.00589150e+02
221             	3.00590522e+02
222             	3.00592117e+02
223             	3.00593220e+02
224             	3.00593670e+02
225             	3.00593990e+02
226             	3.00596886e+02
227             	3.00598567e+02
228             	3.00599883e+02
229             	3.00600134e+02
230             	3.00600735e+02
231             	3.00603566e+02
232             	3.00603593e+02
233             	3.00604136e+02
234             	3.00605100e+02
235             	3.00605971e+02
236             	3.00607116e+02
237             	3.00608115e+02
238             	3.00609201e+02
239             	3.00610368e+02
240             	3.00612080e+02
241             	3.00613523e+02
242             	3.00615102e+02
243             	3.00616310e+02
244             	3.00617911e+02
245             	3.00617755e+02
246             	3.00619742e+02
247             	3.00621453e+02
248             	3.00622783e+02
249             	3.00623402e+02
250             	3.00623747e+02
251             	3.00624885e+02
252             	3.00625894e+02
253             	3.00628542e+02
254             	3.00627969e+02
255             	3.00628046e+02
256             	3.00629311e+02
257             	3.00630857e+02
258             	3.00631292e+02
259             	3.00632251e+02
260             	3.00633569e+02
261             	3.00635117e+02
262             	3.00636852e+02
263             	3.00637338e+02
264             	3.00637192e+02
265             	3.00638755e+02
266             	3.00640528e+02
267             	3.00641702e+02
268             	3.00642260e+02
269             	3.00642651e+02
270             	3.00642687e+02
271             	3.00644564e+02
272             	3.00647532e+02
273             	3.00647101e+02
274             	3.00648023e+02
275             	3.00648819e+02
276             	3.00650023e+02
277             	3.00650667e+02
278             	3.00650642e+02
279             	3.00651976e+02
280             	3.00652932e+02
281             	3.00653994e+02
282             	3.00655394e+02
283             	3.00657245e+02
284             	3.00659331e+02
285             	3.00660961e+02
286             	3.00661889e+02
287             	3.00662471e+02
288             	3.00662531e+02
289             	3.00663221e+02
290             	3.00662997e+02
291             	3.00663949e+02
292             	3.00664893e+02
293             	3.00665498e+02
294             	3.00666198e+02
295             	3.00667207e+02
296             	3.00667598e+02
297             	3.00668262e+02
298             	3.00668805e+02
299             	3.00669335e+02
300             	3.00669714e+02
301             	3.00669985e+02
302             	3.00670209e+02
303             	3.00670716e+02
304             	3.00671230e+02
305             	3.00672079e+02
306             	3.00673073e+02
307             	3.00673689e+02
308             	3.00673882e+02
309             	3.00673984e+02
310             	3.00674066e+02
311             	3.00674427e+02
312             	3.00675251e+02
313             	3.00675378e+02
314             	3.00675926e+02
315             	3.00676869e+02
316             	3.00677972e+02
317             	3.00679071e+02
318             	3.00680116e+02
319             	3.00680702e+02
320             	3.00681213e+02
321             	3.00680417e+02
322             	3.00681713e+02
323             	3.00682430e+02
324             	3.00682783e+02
325             	3.00683086e+02
326             	3.00683745e+02
327             	3.00685642e+02
328             	3.00685374e+02
329             	3.00685816e+02
330             	3.00686175e+02
331             	3.00686560e+02
332             	3.00686697e+02
333             	3.00686698e+02
334             	3.00687043e+02
335             	3.00687712e+02
336             	3.00688201e+02
337             	3.00689058e+02
338             	3.00690363e+02
339             	3.00690584e+02
340             	3.00690346e+02
341             	3.00690911e+02
342             	3.00691306e+02
343             	3.00691997e+02
344             	3.00692735e+02
345             	3.00692114e+02
346             	3.00692890e+02
347             	3.00692833e+02
348             	3.00693726e+02
349             	3.00694242e+02
350             	3.00695215e+02
351             	3.00695645e+02
352             	3.00695790e+02
353             	3.00696151e+02
354             	3.00697414e+02
355             	3.00698372e+02
356             	3.00697496e+02
357             	3.00697432e+02
358             	3.00697535e+02
359             	3.00698323e+02
360             	3.00699654e+02
361             	3.00699827e+02
362             	3.00700870e+02
363             	3.00703054e+02
364             	3.00704249e+02
365             	3.00705581e+02
366             	3.00706013e+02
367             	3.00705041e+02
368             	3.00704465e+02
369             	3.00704968e+02
370             	3.00705342e+02
371             	3.00705467e+02
372             	3.00705494e+02
373             	3.00705866e+02
374             	3.00706859e+02
375             	3.00706681e+02
376             	3.00706715e+02
377             	3.00706841e+02
378             	3.00707078e+02
379             	3.00707360e+02
380             	3.00707713e+02
381             	3.00708152e+02
382             	3.00708655e+02
383             	3.00709157e+02
384             	3.00709281e+02
385             	3.00710222e+02
386             	3.00710428e+02
387             	3.00710442e+02
388             	3.00710304e+02
389             	3.00710595e+02
390             	3.00710763e+02
391             	3.00711030e+02
392             	3.00711338e+02
393             	3.00711706e+02
394             	3.00711976e+02
395             	3.00712182e+02
396             	3.00712048e+02
397             	3.00712978e+02
398             	3.00713921e+02
399             	3.00714623e+02
400             	3.00715202e+02
401             	3.00715160e+02
402             	3.00715746e+02
403             	3.00716258e+02
404             	3.00716652e+02
405             	3.00716664e+02
406             	3.00717193e+02
407             	3.00717371e+02
408             	3.00717542e+02
409             	3.00718858e+02
410             	3.00718297e+02
411             	3.00718252e+02
412             	3.00718485e+02
413             	3.00719141e+02
414             	3.00720023e+02
415             	3.00720895e+02
416             	3.00721292e+02
417             	3.00721938e+02
418             	3.00722359e+02
419             	3.00722303e+02
420             	3.00722481e+02
421             	3.00722823e+02
422             	3.00722441e+02
423             	3.00722882e+02
424             	3.00723469e+02
425             	3.00723860e+02
426             	3.00724095e+02
427             	3.00724240e+02
428             	3.00724349e+02
429             	3.00724610e+02
430             	3.00724806e+02
431             	3.00725038e+02
432             	3.00725301e+02
433             	3.00725531e+02
434             	3.00725710e+02
435             	3.00725760e+02
436             	3.00725884e+02
437             	3.00726050e+02
438             	3.00726196e+02
439             	3.00726269e+02
440             	3.00726401e+02
441             	3.00726525e+02
442             	3.00726637e+02
443             	3.00726716e+02
444             	3.00726815e+02
445             	3.00726932e+02
446             	3.00727069e+02
447             	3.00727139e+02
448             	3.00727347e+02
449             	3.00727533e+02
450             	3.00727696e+02
451             	3.00727854e+02
452             	3.00728275e+02
453             	3.00728235e+02
454             	3.00728372e+02
455             	3.00728662e+02
456             	3.00729172e+02
457             	3.00729599e+02
458             	3.00729991e+02
459             	3.00730508e+02
460             	3.00730870e+02
461             	3.00731055e+02
462             	3.00731600e+02
463             	3.00732139e+02
464             	3.00732422e+02
465             	3.00732782e+02
466             	3.00733249e+02
467             	3.00733511e+02
468             	3.00734304e+02
469             	3.00734661e+02
470             	3.00734853e+02
471             	3.00735094e+02
472             	3.00735542e+02
473             	3.00735447e+02
474             	3.00735285e+02
475             	3.00735840e+02
476             	3.00735642e+02
477             	3.00735482e+02
478             	3.00735626e+02
479             	3.00735800e+02
480             	3.00736076e+02
481             	3.00736618e+02
482             	3.00736796e+02
483             	3.00737025e+02
484             	3.00737200e+02
485             	3.00737116e+02
486             	3.00737005e+02
487             	3.00736940e+02
488             	3.00736918e+02
489             	3.00736948e+02
490             	3.00737013e+02
491             	3.00737098e+02
492             	3.00737200e+02
493             	3.00737204e+02
494             	3.00737127e+02
495             	3.00737397e+02
496             	3.00737480e+02
497             	3.00737668e+02
498             	3.00737630e+02
499             	3.00737758e+02
500             	3.00737874e+02
501             	3.00738011e+02
502             	3.00738166e+02
503             	3.00738330e+02
504             	3.00738486e+02
505             	3.00738640e+02
506             	3.00738789e+02
507             	3.00738927e+02
508             	3.00739056e+02
509             	3.00739182e+02
510             	3.00739335e+02
511             	3.00739522e+02
512             	3.00739750e+02
513             	3.00740018e+02
514             	3.00740240e+02
515             	3.00740364e+02
516             	3.00740698e+02
517             	3.00740824e+02
518             	3.00740988e+02
519             	3.00741178e+02
520             	3.00741384e+02
521             	3.00741615e+02
522             	3.00741842e+02
523             	3.00742080e+02
524             	3.00742287e+02
525             	3.00742569e+02
526             	3.00742620e+02
527             	3.00743084e+02
528             	3.00743120e+02
529             	3.00743206e+02
530             	3.00743327e+02
531             	3.00743471e+02
532             	3.00743595e+02
533             	3.00743736e+02
534             	3.00743897e+02
535             	3.00744040e+02
536             	3.00744226e+02
537             	3.00744222e+02
538             	3.00744219e+02
539             	3.00744211e+02
540             	3.00744208e+02
541             	3.00744205e+02
542             	3.00744162e+02
543             	3.00744125e+02
544             	3.00744211e+02
545             	3.00744274e+02
546             	3.00744322e+02
547             	3.00744459e+02
548             	3.00744483e+02
549             	3.00744534e+02
550             	3.00744589e+02
551             	3.00744624e+02
552             	3.00744654e+02
553             	3.00744485e+02
554             	3.00744589e+02
555             	3.00744677e+02
556             	3.00744781e+02
557             	3.00744853e+02
558             	3.00744913e+02
559             	3.00745118e+02
560             	3.00745128e+02
561             	3.00745296e+02
562             	3.00745419e+02
563             	3.00745524e+02
564             	3.00745641e+02
565             	3.00745751e+02
566             	3.00745892e+02
567             	3.00746029e+02
568             	3.00746254e+02
569             	3.00746381e+02
570             	3.00746573e+02
571             	3.00746709e+02
572             	3.00746899e+02
573             	3.00746991e+02
574             	3.00747408e+02
575             	3.00747408e+02
576             	3.00747450e+02
577             	3.00748211e+02
578             	3.00748068e+02
579             	3.00748093e+02
580             	3.00748184e+02
581             	3.00748349e+02
582             	3.00748513e+02
583             	3.00748722e+02
584             	3.00748747e+02
585             	3.00748775e+02
586             	3.00748776e+02
587             	3.00748837e+02
588             	3.00749077e+02
589             	3.00749188e+02
590             	3.00749100e+02
591             	3.00749128e+02
592             	3.00749225e+02
593             	3.00749323e+02
594             	3.00749338e+02
595             	3.00749394e+02
596             	3.00749432e+02
597             	3.00749448e+02
598             	3.00749458e+02
599             	3.00749413e+02
600             	3.00749401e+02
601             	3.00749493e+02
602             	3.00749537e+02
603             	3.00749407e+02
604             	3.00749271e+02
605             	3.00749403e+02
606             	3.00749464e+02
607             	3.00749469e+02
608             	3.00749447e+02
609             	3.00749439e+02
610             	3.00749429e+02
611             	3.00749447e+02
612             	3.00749487e+02
613             	3.00749522e+02
614             	3.00749286e+02
615             	3.00749432e+02
616             	3.00749529e+02
617             	3.00749581e+02
618             	3.00749627e+02
619             	3.00749709e+02
620             	3.00749853e+02
621             	3.00750130e+02
