# Region        : cellZone component_4
# Cells         : 256
# Volume        : 5.12892986e-01
# Time          	volAverage(T)
1               	3.00155296e+02
2               	3.00309519e+02
3               	3.00457460e+02
4               	3.00601374e+02
5               	3.00743005e+02
6               	3.00882921e+02
7               	3.01021322e+02
8               	3.01158458e+02
9               	3.01294475e+02
10              	3.01429363e+02
11              	3.01563390e+02
12              	3.01696857e+02
13              	3.01829368e+02
14              	3.01960470e+02
15              	3.02088372e+02
16              	3.02214092e+02
17              	3.02341793e+02
18              	3.02466606e+02
19              	3.02587527e+02
20              	3.02705455e+02
21              	3.02821275e+02
22              	3.02936261e+02
23              	3.03050600e+02
24              	3.03164194e+02
25              	3.03276788e+02
26              	3.03389075e+02
27              	3.03500418e+02
28              	3.03612533e+02
29              	3.03724629e+02
30              	3.03835959e+02
31              	3.03946393e+02
32              	3.04051004e+02
33              	3.04158549e+02
34              	3.04264968e+02
35              	3.04370071e+02
36              	3.04473191e+02
37              	3.04574580e+02
38              	3.04671954e+02
39              	3.04767376e+02
40              	3.04861043e+02
41              	3.04953764e+02
42              	3.05045525e+02
43              	3.05134664e+02
44              	3.05223329e+02
45              	3.05311119e+02
46              	3.05398501e+02
47              	3.05482801e+02
48              	3.05572195e+02
49              	3.05660100e+02
50              	3.05749771e+02
51              	3.05837391e+02
52              	3.05924066e+02
53              	3.06014420e+02
54              	3.06096299e+02
55              	3.06177400e+02
56              	3.06256229e+02
57              	3.06333187e+02
58              	3.06408724e+02
59              	3.06487868e+02
60              	3.06565641e+02
61              	3.06645840e+02
62              	3.06726500e+02
63              	3.06806096e+02
64              	3.06885775e+02
65              	3.06958772e+02
66              	3.07033539e+02
67              	3.07109048e+02
68              	3.07184846e+02
69              	3.07262209e+02
70              	3.07337136e+02
71              	3.07411420e+02
72              	3.07486598e+02
73              	3.07559258e+02
74              	3.07629923e+02
75              	3.07701756e+02
76              	3.07771841e+02
77              	3.07841342e+02
78              	3.07908595e+02
79              	3.07975844e+02
80              	3.08043560e+02
81              	3.08111270e+02
82              	3.08178657e+02
83              	3.08246197e+02
84              	3.08315069e+02
85              	3.08382626e+02
86              	3.08450367e+02
87              	3.08520370e+02
88              	3.08590593e+02
89              	3.08659814e+02
90              	3.08727720e+02
91              	3.08794710e+02
92              	3.08863263e+02
93              	3.08930973e+02
94              	3.08997495e+02
95              	3.09063745e+02
96              	3.09129448e+02
97              	3.09194313e+02
98              	3.09256152e+02
99              	3.09316863e+02
100             	3.09377549e+02
101             	3.09434043e+02
102             	3.09490921e+02
103             	3.09547702e+02
104             	3.09603565e+02
105             	3.09659724e+02
106             	3.09716529e+02
107             	3.09773816e+02
108             	3.09831627e+02
109             	3.09888958e+02
110             	3.09948321e+02
111             	3.10006711e+02
112             	3.10065546e+02
113             	3.10125686e+02
114             	3.10184573e+02
115             	3.10242355e+02
116             	3.10299929e+02
117             	3.10356707e+02
118             	3.10413212e+02
119             	3.10469512e+02
120             	3.10522869e+02
121             	3.10575037e+02
122             	3.10627077e+02
123             	3.10678982e+02
124             	3.10731500e+02
125             	3.10783572e+02
126             	3.10836589e+02
127             	3.10890052e+02
128             	3.10944717e+02
129             	3.11002125e+02
130             	3.11057797e+02
131             	3.11112328e+02
132             	3.11165561e+02
133             	3.11217289e+02
134             	3.11267988e+02
135             	3.11317914e+02
136             	3.11364435e+02
137             	3.11410475e+02
138             	3.11457096e+02
139             	3.11502859e+02
140             	3.11548798e+02
141             	3.11595810e+02
142             	3.11644125e+02
143             	3.11693810e+02
144             	3.11741885e+02
145             	3.11788997e+02
146             	3.11834962e+02
147             	3.11880738e+02
148             	3.11926572e+02
149             	3.11971247e+02
150             	3.12015008e+02
151             	3.12058744e+02
152             	3.12101808e+02
153             	3.12143871e+02
154             	3.12184424e+02
155             	3.12225731e+02
156             	3.12269023e+02
157             	3.12313431e+02
158             	3.12358641e+02
159             	3.12404369e+02
160             	3.12450393e+02
161             	3.12496212e+02
162             	3.12539875e+02
163             	3.12582567e+02
164             	3.12624638e+02
165             	3.12666840e+02
166             	3.12706672e+02
167             	3.12746353e+02
168             	3.12784813e+02
169             	3.12823257e+02
170             	3.12860591e+02
171             	3.12898706e+02
172             	3.12935455e+02
173             	3.12972493e+02
174             	3.13009784e+02
175             	3.13047219e+02
176             	3.13084776e+02
177             	3.13122397e+02
178             	3.13159919e+02
179             	3.13197614e+02
180             	3.13235859e+02
181             	3.13273914e+02
182             	3.13312566e+02
183             	3.13351802e+02
184             	3.13391989e+02
185             	3.13432851e+02
186             	3.13474390e+02
187             	3.13514359e+02
188             	3.13553534e+02
189             	3.13590004e+02
190             	3.13624593e+02
191             	3.13658015e+02
192             	3.13691405e+02
193             	3.13724558e+02
194             	3.13758305e+02
195             	3.13792701e+02
196             	3.13824682e+02
197             	3.13858419e+02
198             	3.13891938e+02
199             	3.13924606e+02
200             	3.13957599e+02
201             	3.13990527e+02
202             	3.14022366e+02
203             	3.14054005e+02
204             	3.14083828e+02
205             	3.14114087e+02
206             	3.14142580e+02
207             	3.14170880e+02
208             	3.14199550e+02
209             	3.14229504e+02
210             	3.14258360e+02
211             	3.14287279e+02
212             	3.14315125e+02
213             	3.14343396e+02
214             	3.14371911e+02
215             	3.14400497e+02
216             	3.14429437e+02
217             	3.14458429e+02
218             	3.14486464e+02
219             	3.14514260e+02
220             	3.14541875e+02
221             	3.14569568e+02
222             	3.14596949e+02
223             	3.14623724e+02
224             	3.14650357e+02
225             	3.14675293e+02
226             	3.14700188e+02
227             	3.14724926e+02
228             	3.14750226e+02
229             	3.14774975e+02
230             	3.14800403e+02
231             	3.14826536e+02
232             	3.14851868e+02
233             	3.14878310e+02
234             	3.14903555e+02
235             	3.14930055e+02
236             	3.14957545e+02
237             	3.14985140e+02
238             	3.15012036e+02
239             	3.15039202e+02
240             	3.15064926e+02
241             	3.15089907e+02
242             	3.15113503e+02
243             	3.15137198e+02
244             	3.15160759e+02
245             	3.15183499e+02
246             	3.15207154e+02
247             	3.15231420e+02
248             	3.15255569e+02
249             	3.15280663e+02
250             	3.15306172e+02
251             	3.15331105e+02
252             	3.15356733e+02
253             	3.15383146e+02
254             	3.15409421e+02
255             	3.15435386e+02
256             	3.15459881e+02
257             	3.15484356e+02
258             	3.15506891e+02
259             	3.15528571e+02
260             	3.15549642e+02
261             	3.15570066e+02
262             	3.15589646e+02
263             	3.15609024e+02
264             	3.15627708e+02
265             	3.15646824e+02
266             	3.15666061e+02
267             	3.15684795e+02
268             	3.15704798e+02
269             	3.15725544e+02
270             	3.15747069e+02
271             	3.15768266e+02
272             	3.15790090e+02
273             	3.15811604e+02
274             	3.15835135e+02
275             	3.15859090e+02
276             	3.15883182e+02
277             	3.15906698e+02
278             	3.15929259e+02
279             	3.15950579e+02
280             	3.15970807e+02
281             	3.15989842e+02
282             	3.16008755e+02
283             	3.16027460e+02
284             	3.16044775e+02
285             	3.16062403e+02
286             	3.16078991e+02
287             	3.16095826e+02
288             	3.16113249e+02
289             	3.16130621e+02
290             	3.16148242e+02
291             	3.16165199e+02
292             	3.16182375e+02
293             	3.16199829e+02
294             	3.16217764e+02
295             	3.16236027e+02
296             	3.16254382e+02
297             	3.16272751e+02
298             	3.16291539e+02
299             	3.16310699e+02
300             	3.16329762e+02
301             	3.16348607e+02
302             	3.16367005e+02
303             	3.16384650e+02
304             	3.16401778e+02
305             	3.16418384e+02
306             	3.16434273e+02
307             	3.16449889e+02
308             	3.16465165e+02
309             	3.16480198e+02
310             	3.16495091e+02
311             	3.16510254e+02
312             	3.16525056e+02
313             	3.16540205e+02
314             	3.16555613e+02
315             	3.16570417e+02
316             	3.16584816e+02
317             	3.16599263e+02
318             	3.16613285e+02
319             	3.16626926e+02
320             	3.16641035e+02
321             	3.16655328e+02
322             	3.16669821e+02
323             	3.16684482e+02
324             	3.16699570e+02
325             	3.16715506e+02
326             	3.16731337e+02
327             	3.16747136e+02
328             	3.16762607e+02
329             	3.16776603e+02
330             	3.16789455e+02
331             	3.16801345e+02
332             	3.16812122e+02
333             	3.16822167e+02
334             	3.16831554e+02
335             	3.16840999e+02
336             	3.16851026e+02
337             	3.16861553e+02
338             	3.16872862e+02
339             	3.16885043e+02
340             	3.16897728e+02
341             	3.16910451e+02
342             	3.16923034e+02
343             	3.16935356e+02
344             	3.16947220e+02
345             	3.16959163e+02
346             	3.16971575e+02
347             	3.16983964e+02
348             	3.16996863e+02
349             	3.17010868e+02
350             	3.17025588e+02
351             	3.17040002e+02
352             	3.17054138e+02
353             	3.17067642e+02
354             	3.17080289e+02
355             	3.17091847e+02
356             	3.17101935e+02
357             	3.17111568e+02
358             	3.17120753e+02
359             	3.17130041e+02
360             	3.17139297e+02
361             	3.17149138e+02
362             	3.17159293e+02
363             	3.17170295e+02
364             	3.17182090e+02
365             	3.17194211e+02
366             	3.17206723e+02
367             	3.17219257e+02
368             	3.17231472e+02
369             	3.17243614e+02
370             	3.17255244e+02
371             	3.17266033e+02
372             	3.17276667e+02
373             	3.17287410e+02
374             	3.17297962e+02
375             	3.17308412e+02
376             	3.17318693e+02
377             	3.17329176e+02
378             	3.17339135e+02
379             	3.17348930e+02
380             	3.17358332e+02
381             	3.17367683e+02
382             	3.17376805e+02
383             	3.17385859e+02
384             	3.17394796e+02
385             	3.17403388e+02
386             	3.17411967e+02
387             	3.17420497e+02
388             	3.17428941e+02
389             	3.17437227e+02
390             	3.17445597e+02
391             	3.17453935e+02
392             	3.17462203e+02
393             	3.17470516e+02
394             	3.17478764e+02
395             	3.17487334e+02
396             	3.17496443e+02
397             	3.17505544e+02
398             	3.17514109e+02
399             	3.17522165e+02
400             	3.17529665e+02
401             	3.17536921e+02
402             	3.17543990e+02
403             	3.17551121e+02
404             	3.17558368e+02
405             	3.17565765e+02
406             	3.17573330e+02
407             	3.17581395e+02
408             	3.17589635e+02
409             	3.17598115e+02
410             	3.17606183e+02
411             	3.17614022e+02
412             	3.17621620e+02
413             	3.17629155e+02
414             	3.17636622e+02
415             	3.17644175e+02
416             	3.17651925e+02
417             	3.17659818e+02
418             	3.17668249e+02
419             	3.17676756e+02
420             	3.17685339e+02
421             	3.17693820e+02
422             	3.17702212e+02
423             	3.17710109e+02
424             	3.17717960e+02
425             	3.17725018e+02
426             	3.17731520e+02
427             	3.17737407e+02
428             	3.17742995e+02
429             	3.17748353e+02
430             	3.17753553e+02
431             	3.17758972e+02
432             	3.17764772e+02
433             	3.17771104e+02
434             	3.17777916e+02
435             	3.17784772e+02
436             	3.17791782e+02
437             	3.17798641e+02
438             	3.17805790e+02
439             	3.17812692e+02
440             	3.17819566e+02
441             	3.17826468e+02
442             	3.17833331e+02
443             	3.17839749e+02
444             	3.17845752e+02
445             	3.17851893e+02
446             	3.17858309e+02
447             	3.17864781e+02
448             	3.17871237e+02
449             	3.17877283e+02
450             	3.17883135e+02
451             	3.17888781e+02
452             	3.17894111e+02
453             	3.17898966e+02
454             	3.17903345e+02
455             	3.17907632e+02
456             	3.17911832e+02
457             	3.17916091e+02
458             	3.17920538e+02
459             	3.17925248e+02
460             	3.17930145e+02
461             	3.17935375e+02
462             	3.17940933e+02
463             	3.17946855e+02
464             	3.17953078e+02
465             	3.17959391e+02
466             	3.17965528e+02
467             	3.17971615e+02
468             	3.17977617e+02
469             	3.17983629e+02
470             	3.17989491e+02
471             	3.17995223e+02
472             	3.18000743e+02
473             	3.18005867e+02
474             	3.18010603e+02
475             	3.18015179e+02
476             	3.18019637e+02
477             	3.18023996e+02
478             	3.18028103e+02
479             	3.18032112e+02
480             	3.18035564e+02
481             	3.18038952e+02
482             	3.18042369e+02
483             	3.18045893e+02
484             	3.18049522e+02
485             	3.18053305e+02
486             	3.18057258e+02
487             	3.18061348e+02
488             	3.18065474e+02
489             	3.18069757e+02
490             	3.18074099e+02
491             	3.18078475e+02
492             	3.18082737e+02
493             	3.18086784e+02
494             	3.18090979e+02
495             	3.18095408e+02
496             	3.18099927e+02
497             	3.18104671e+02
498             	3.18109464e+02
499             	3.18114455e+02
500             	3.18119638e+02
501             	3.18124846e+02
502             	3.18129909e+02
503             	3.18134986e+02
504             	3.18139670e+02
505             	3.18144072e+02
506             	3.18148335e+02
507             	3.18152526e+02
508             	3.18156646e+02
509             	3.18160463e+02
510             	3.18164168e+02
511             	3.18167958e+02
512             	3.18171636e+02
513             	3.18175327e+02
514             	3.18179080e+02
515             	3.18182884e+02
516             	3.18186475e+02
517             	3.18189992e+02
518             	3.18193459e+02
519             	3.18196885e+02
520             	3.18200364e+02
521             	3.18203947e+02
522             	3.18207537e+02
523             	3.18211276e+02
524             	3.18215154e+02
525             	3.18219178e+02
526             	3.18223475e+02
527             	3.18227531e+02
528             	3.18231371e+02
529             	3.18235272e+02
530             	3.18239166e+02
531             	3.18242830e+02
532             	3.18246188e+02
533             	3.18249330e+02
534             	3.18252225e+02
535             	3.18254949e+02
536             	3.18257597e+02
537             	3.18260206e+02
538             	3.18262679e+02
539             	3.18265072e+02
540             	3.18267472e+02
541             	3.18270130e+02
542             	3.18273009e+02
543             	3.18275950e+02
544             	3.18279029e+02
545             	3.18282255e+02
546             	3.18285516e+02
547             	3.18288991e+02
548             	3.18292590e+02
549             	3.18296314e+02
550             	3.18300175e+02
551             	3.18304208e+02
552             	3.18308171e+02
553             	3.18312126e+02
554             	3.18315860e+02
555             	3.18319302e+02
556             	3.18322472e+02
557             	3.18325493e+02
558             	3.18328325e+02
559             	3.18331000e+02
560             	3.18333525e+02
561             	3.18335723e+02
562             	3.18337641e+02
563             	3.18339373e+02
564             	3.18341083e+02
565             	3.18342948e+02
566             	3.18345006e+02
567             	3.18347217e+02
568             	3.18349587e+02
569             	3.18352125e+02
570             	3.18354788e+02
571             	3.18357478e+02
572             	3.18360311e+02
573             	3.18363242e+02
574             	3.18366278e+02
575             	3.18369300e+02
576             	3.18372232e+02
577             	3.18374860e+02
578             	3.18377485e+02
579             	3.18379939e+02
580             	3.18382224e+02
581             	3.18384427e+02
582             	3.18386492e+02
583             	3.18388399e+02
584             	3.18390145e+02
585             	3.18391832e+02
586             	3.18393574e+02
587             	3.18395306e+02
588             	3.18397006e+02
589             	3.18398821e+02
590             	3.18400766e+02
591             	3.18402705e+02
592             	3.18404865e+02
593             	3.18407144e+02
594             	3.18409418e+02
595             	3.18411857e+02
596             	3.18414469e+02
597             	3.18417104e+02
598             	3.18419599e+02
599             	3.18421926e+02
600             	3.18424181e+02
601             	3.18426342e+02
602             	3.18428336e+02
603             	3.18430161e+02
604             	3.18431832e+02
605             	3.18433415e+02
606             	3.18435041e+02
607             	3.18436553e+02
608             	3.18437982e+02
609             	3.18439449e+02
610             	3.18441037e+02
611             	3.18442723e+02
612             	3.18444537e+02
613             	3.18446362e+02
614             	3.18448229e+02
615             	3.18450118e+02
616             	3.18451733e+02
617             	3.18453308e+02
618             	3.18454967e+02
619             	3.18456845e+02
620             	3.18458790e+02
621             	3.18460710e+02
