# Region        : cellZone component_3
# Cells         : 120
# Volume        : 2.36053775e-01
# Time          	volAverage(T)
1               	3.00184852e+02
2               	3.00368638e+02
3               	3.00541994e+02
4               	3.00709373e+02
5               	3.00873926e+02
6               	3.01036703e+02
7               	3.01198171e+02
8               	3.01359041e+02
9               	3.01520162e+02
10              	3.01680752e+02
11              	3.01840316e+02
12              	3.01998322e+02
13              	3.02155292e+02
14              	3.02310110e+02
15              	3.02464632e+02
16              	3.02618368e+02
17              	3.02770681e+02
18              	3.02920036e+02
19              	3.03066926e+02
20              	3.03210780e+02
21              	3.03353221e+02
22              	3.03493130e+02
23              	3.03631729e+02
24              	3.03768250e+02
25              	3.03904677e+02
26              	3.04042676e+02
27              	3.04180762e+02
28              	3.04317426e+02
29              	3.04444916e+02
30              	3.04565972e+02
31              	3.04684863e+02
32              	3.04804223e+02
33              	3.04925711e+02
34              	3.05044049e+02
35              	3.05159405e+02
36              	3.05271982e+02
37              	3.05379392e+02
38              	3.05491286e+02
39              	3.05605447e+02
40              	3.05715806e+02
41              	3.05824977e+02
42              	3.05930047e+02
43              	3.06031281e+02
44              	3.06134415e+02
45              	3.06237473e+02
46              	3.06338531e+02
47              	3.06435114e+02
48              	3.06529836e+02
49              	3.06625837e+02
50              	3.06724451e+02
51              	3.06825528e+02
52              	3.06927625e+02
53              	3.07029889e+02
54              	3.07128756e+02
55              	3.07225719e+02
56              	3.07319430e+02
57              	3.07412730e+02
58              	3.07501726e+02
59              	3.07590250e+02
60              	3.07680311e+02
61              	3.07772992e+02
62              	3.07859995e+02
63              	3.07948056e+02
64              	3.08034017e+02
65              	3.08119156e+02
66              	3.08201094e+02
67              	3.08277552e+02
68              	3.08351712e+02
69              	3.08428250e+02
70              	3.08505317e+02
71              	3.08588179e+02
72              	3.08664976e+02
73              	3.08733189e+02
74              	3.08799859e+02
75              	3.08869640e+02
76              	3.08939856e+02
77              	3.09006443e+02
78              	3.09069494e+02
79              	3.09129510e+02
80              	3.09187557e+02
81              	3.09247284e+02
82              	3.09309466e+02
83              	3.09371335e+02
84              	3.09433171e+02
85              	3.09497221e+02
86              	3.09563479e+02
87              	3.09633114e+02
88              	3.09704218e+02
89              	3.09770935e+02
90              	3.09834881e+02
91              	3.09896481e+02
92              	3.09955948e+02
93              	3.10013225e+02
94              	3.10070972e+02
95              	3.10124146e+02
96              	3.10173768e+02
97              	3.10226016e+02
98              	3.10278265e+02
99              	3.10331725e+02
100             	3.10387495e+02
101             	3.10445037e+02
102             	3.10505327e+02
103             	3.10563526e+02
104             	3.10620559e+02
105             	3.10675059e+02
106             	3.10726198e+02
107             	3.10774865e+02
108             	3.10823717e+02
109             	3.10868466e+02
110             	3.10912171e+02
111             	3.10957741e+02
112             	3.11003206e+02
113             	3.11049397e+02
114             	3.11096222e+02
115             	3.11143568e+02
116             	3.11189903e+02
117             	3.11236028e+02
118             	3.11279868e+02
119             	3.11320799e+02
120             	3.11359731e+02
121             	3.11395929e+02
122             	3.11430367e+02
123             	3.11464820e+02
124             	3.11500123e+02
125             	3.11535545e+02
126             	3.11571809e+02
127             	3.11608997e+02
128             	3.11646456e+02
129             	3.11683575e+02
130             	3.11720961e+02
131             	3.11756654e+02
132             	3.11789419e+02
133             	3.11819996e+02
134             	3.11848722e+02
135             	3.11875815e+02
136             	3.11901375e+02
137             	3.11926793e+02
138             	3.11952909e+02
139             	3.11980007e+02
140             	3.12007807e+02
141             	3.12036619e+02
142             	3.12066131e+02
143             	3.12094766e+02
144             	3.12122989e+02
145             	3.12150339e+02
146             	3.12176390e+02
147             	3.12201928e+02
148             	3.12225059e+02
149             	3.12247786e+02
150             	3.12268700e+02
151             	3.12289249e+02
152             	3.12309730e+02
153             	3.12330641e+02
154             	3.12352028e+02
155             	3.12374028e+02
156             	3.12396511e+02
157             	3.12419240e+02
158             	3.12441948e+02
159             	3.12463254e+02
160             	3.12484173e+02
161             	3.12504460e+02
162             	3.12523793e+02
163             	3.12541969e+02
164             	3.12559037e+02
165             	3.12574949e+02
166             	3.12590071e+02
167             	3.12605355e+02
168             	3.12620909e+02
169             	3.12636952e+02
170             	3.12653870e+02
171             	3.12671131e+02
172             	3.12688309e+02
173             	3.12705540e+02
174             	3.12721485e+02
175             	3.12737154e+02
176             	3.12752376e+02
177             	3.12766504e+02
178             	3.12780055e+02
179             	3.12792692e+02
180             	3.12804972e+02
181             	3.12816424e+02
182             	3.12827181e+02
183             	3.12837297e+02
184             	3.12847087e+02
185             	3.12856788e+02
186             	3.12867222e+02
187             	3.12878143e+02
188             	3.12889385e+02
189             	3.12901164e+02
190             	3.12913428e+02
191             	3.12925995e+02
192             	3.12937858e+02
193             	3.12949643e+02
194             	3.12961085e+02
195             	3.12971436e+02
196             	3.12980911e+02
197             	3.12989866e+02
198             	3.12998170e+02
199             	3.13005860e+02
200             	3.13012992e+02
201             	3.13019640e+02
202             	3.13026486e+02
203             	3.13033742e+02
204             	3.13041351e+02
205             	3.13049513e+02
206             	3.13058290e+02
207             	3.13066400e+02
208             	3.13074710e+02
209             	3.13082911e+02
210             	3.13090845e+02
211             	3.13097954e+02
212             	3.13104420e+02
213             	3.13110269e+02
214             	3.13115728e+02
215             	3.13121016e+02
216             	3.13126328e+02
217             	3.13131794e+02
218             	3.13137491e+02
219             	3.13143344e+02
220             	3.13149359e+02
221             	3.13155761e+02
222             	3.13162478e+02
223             	3.13169360e+02
224             	3.13176398e+02
225             	3.13183601e+02
226             	3.13190705e+02
227             	3.13197211e+02
228             	3.13203535e+02
229             	3.13209497e+02
230             	3.13215051e+02
231             	3.13220226e+02
232             	3.13224983e+02
233             	3.13229351e+02
234             	3.13233447e+02
235             	3.13237540e+02
236             	3.13242043e+02
237             	3.13246499e+02
238             	3.13251147e+02
239             	3.13255982e+02
240             	3.13260908e+02
241             	3.13265969e+02
242             	3.13271084e+02
243             	3.13276298e+02
244             	3.13281398e+02
245             	3.13286271e+02
246             	3.13291244e+02
247             	3.13296043e+02
248             	3.13300735e+02
249             	3.13305187e+02
250             	3.13309607e+02
251             	3.13313926e+02
252             	3.13318213e+02
253             	3.13322439e+02
254             	3.13326579e+02
255             	3.13330656e+02
256             	3.13334634e+02
257             	3.13338470e+02
258             	3.13342104e+02
259             	3.13345513e+02
260             	3.13348911e+02
261             	3.13352323e+02
262             	3.13355694e+02
263             	3.13359152e+02
264             	3.13362680e+02
265             	3.13366339e+02
266             	3.13370071e+02
267             	3.13373818e+02
268             	3.13377538e+02
269             	3.13381240e+02
270             	3.13384857e+02
271             	3.13388354e+02
272             	3.13391809e+02
273             	3.13395062e+02
274             	3.13398284e+02
275             	3.13401506e+02
276             	3.13404730e+02
277             	3.13407941e+02
278             	3.13411060e+02
279             	3.13414024e+02
280             	3.13416941e+02
281             	3.13419780e+02
282             	3.13422508e+02
283             	3.13425121e+02
284             	3.13427797e+02
285             	3.13430627e+02
286             	3.13433496e+02
287             	3.13436446e+02
288             	3.13439439e+02
289             	3.13442406e+02
290             	3.13445346e+02
291             	3.13448259e+02
292             	3.13451166e+02
293             	3.13454044e+02
294             	3.13456895e+02
295             	3.13459681e+02
296             	3.13462414e+02
297             	3.13465120e+02
298             	3.13467708e+02
299             	3.13470278e+02
300             	3.13472798e+02
301             	3.13475271e+02
302             	3.13477669e+02
303             	3.13480080e+02
304             	3.13482433e+02
305             	3.13484717e+02
306             	3.13487021e+02
307             	3.13489301e+02
308             	3.13491536e+02
309             	3.13493773e+02
310             	3.13496007e+02
311             	3.13498254e+02
312             	3.13500544e+02
313             	3.13502879e+02
314             	3.13505253e+02
315             	3.13507611e+02
316             	3.13509947e+02
317             	3.13512277e+02
318             	3.13514494e+02
319             	3.13516680e+02
320             	3.13518810e+02
321             	3.13520879e+02
322             	3.13522882e+02
323             	3.13524835e+02
324             	3.13526806e+02
325             	3.13528756e+02
326             	3.13530701e+02
327             	3.13532637e+02
328             	3.13534553e+02
329             	3.13536493e+02
330             	3.13538479e+02
331             	3.13540480e+02
332             	3.13542508e+02
333             	3.13544551e+02
334             	3.13546584e+02
335             	3.13548604e+02
336             	3.13550536e+02
337             	3.13552453e+02
338             	3.13554320e+02
339             	3.13556140e+02
340             	3.13557935e+02
341             	3.13559721e+02
342             	3.13561502e+02
343             	3.13563290e+02
344             	3.13565054e+02
345             	3.13566830e+02
346             	3.13568636e+02
347             	3.13570435e+02
348             	3.13572213e+02
349             	3.13573954e+02
350             	3.13575700e+02
351             	3.13577425e+02
352             	3.13579131e+02
353             	3.13580803e+02
354             	3.13582426e+02
355             	3.13584007e+02
356             	3.13585593e+02
357             	3.13587158e+02
358             	3.13588736e+02
359             	3.13590324e+02
360             	3.13591926e+02
361             	3.13593539e+02
362             	3.13595149e+02
363             	3.13596780e+02
364             	3.13598390e+02
365             	3.13600005e+02
366             	3.13601594e+02
367             	3.13603141e+02
368             	3.13604688e+02
369             	3.13606194e+02
370             	3.13607678e+02
371             	3.13609132e+02
372             	3.13610584e+02
373             	3.13612049e+02
374             	3.13613527e+02
375             	3.13615022e+02
376             	3.13616529e+02
377             	3.13618002e+02
378             	3.13619445e+02
379             	3.13620902e+02
380             	3.13622345e+02
381             	3.13623755e+02
382             	3.13625128e+02
383             	3.13626465e+02
384             	3.13627769e+02
385             	3.13629056e+02
386             	3.13630326e+02
387             	3.13631610e+02
388             	3.13632903e+02
389             	3.13634198e+02
390             	3.13635506e+02
391             	3.13636820e+02
392             	3.13638113e+02
393             	3.13639389e+02
394             	3.13640669e+02
395             	3.13641918e+02
396             	3.13643138e+02
397             	3.13644325e+02
398             	3.13645507e+02
399             	3.13646671e+02
400             	3.13647846e+02
401             	3.13649021e+02
402             	3.13650192e+02
403             	3.13651360e+02
404             	3.13652515e+02
405             	3.13653663e+02
406             	3.13654824e+02
407             	3.13655967e+02
408             	3.13657102e+02
409             	3.13658226e+02
410             	3.13659341e+02
411             	3.13660458e+02
412             	3.13661586e+02
413             	3.13662709e+02
414             	3.13663825e+02
415             	3.13664929e+02
416             	3.13666023e+02
417             	3.13667108e+02
418             	3.13668189e+02
419             	3.13669262e+02
420             	3.13670326e+02
421             	3.13671384e+02
422             	3.13672433e+02
423             	3.13673479e+02
424             	3.13674528e+02
425             	3.13675556e+02
426             	3.13676574e+02
427             	3.13677584e+02
428             	3.13678595e+02
429             	3.13679599e+02
430             	3.13680617e+02
431             	3.13681624e+02
432             	3.13682614e+02
433             	3.13683590e+02
434             	3.13684556e+02
435             	3.13685518e+02
436             	3.13686488e+02
437             	3.13687439e+02
438             	3.13688389e+02
439             	3.13689331e+02
440             	3.13690271e+02
441             	3.13691212e+02
442             	3.13692169e+02
443             	3.13693114e+02
444             	3.13694053e+02
445             	3.13694981e+02
446             	3.13695901e+02
447             	3.13696809e+02
448             	3.13697721e+02
449             	3.13698609e+02
450             	3.13699480e+02
451             	3.13700336e+02
452             	3.13701173e+02
453             	3.13701998e+02
454             	3.13702828e+02
455             	3.13703643e+02
456             	3.13704448e+02
457             	3.13705242e+02
458             	3.13706033e+02
459             	3.13706822e+02
460             	3.13707613e+02
461             	3.13708390e+02
462             	3.13709152e+02
463             	3.13709905e+02
464             	3.13710652e+02
465             	3.13711399e+02
466             	3.13712138e+02
467             	3.13712877e+02
468             	3.13713611e+02
469             	3.13714350e+02
470             	3.13715079e+02
471             	3.13715802e+02
472             	3.13716518e+02
473             	3.13717233e+02
474             	3.13717943e+02
475             	3.13718664e+02
476             	3.13719374e+02
477             	3.13720079e+02
478             	3.13720779e+02
479             	3.13721482e+02
480             	3.13722182e+02
481             	3.13722892e+02
482             	3.13723590e+02
483             	3.13724281e+02
484             	3.13724964e+02
485             	3.13725644e+02
486             	3.13726314e+02
487             	3.13726988e+02
488             	3.13727644e+02
489             	3.13728291e+02
490             	3.13728928e+02
491             	3.13729562e+02
492             	3.13730188e+02
493             	3.13730819e+02
494             	3.13731436e+02
495             	3.13732047e+02
496             	3.13732650e+02
497             	3.13733252e+02
498             	3.13733848e+02
499             	3.13734451e+02
500             	3.13735040e+02
501             	3.13735625e+02
502             	3.13736203e+02
503             	3.13736782e+02
504             	3.13737355e+02
505             	3.13737935e+02
506             	3.13738501e+02
507             	3.13739065e+02
508             	3.13739621e+02
509             	3.13740178e+02
510             	3.13740731e+02
511             	3.13741288e+02
512             	3.13741832e+02
513             	3.13742374e+02
514             	3.13742910e+02
515             	3.13743448e+02
516             	3.13743982e+02
517             	3.13744522e+02
518             	3.13745050e+02
519             	3.13745578e+02
520             	3.13746101e+02
521             	3.13746627e+02
522             	3.13747149e+02
523             	3.13747676e+02
524             	3.13748193e+02
525             	3.13748708e+02
526             	3.13749218e+02
527             	3.13749732e+02
528             	3.13750242e+02
529             	3.13750756e+02
530             	3.13751260e+02
531             	3.13751763e+02
532             	3.13752261e+02
533             	3.13752761e+02
534             	3.13753257e+02
535             	3.13753757e+02
536             	3.13754246e+02
537             	3.13754733e+02
538             	3.13755214e+02
539             	3.13755698e+02
540             	3.13756178e+02
541             	3.13756661e+02
542             	3.13757134e+02
543             	3.13757608e+02
544             	3.13758077e+02
545             	3.13758550e+02
546             	3.13759020e+02
547             	3.13759493e+02
548             	3.13759957e+02
549             	3.13760422e+02
550             	3.13760880e+02
551             	3.13761342e+02
552             	3.13761800e+02
553             	3.13762258e+02
554             	3.13762708e+02
555             	3.13763156e+02
556             	3.13763598e+02
557             	3.13764041e+02
558             	3.13764480e+02
559             	3.13764919e+02
560             	3.13765349e+02
561             	3.13765777e+02
562             	3.13766198e+02
563             	3.13766621e+02
564             	3.13767040e+02
565             	3.13767460e+02
566             	3.13767872e+02
567             	3.13768284e+02
568             	3.13768691e+02
569             	3.13769101e+02
570             	3.13769510e+02
571             	3.13769922e+02
572             	3.13770328e+02
573             	3.13770736e+02
574             	3.13771140e+02
575             	3.13771547e+02
576             	3.13771954e+02
577             	3.13772362e+02
578             	3.13772764e+02
579             	3.13773167e+02
580             	3.13773563e+02
581             	3.13773962e+02
582             	3.13774357e+02
583             	3.13774752e+02
584             	3.13775139e+02
585             	3.13775525e+02
586             	3.13775903e+02
587             	3.13776283e+02
588             	3.13776659e+02
589             	3.13777034e+02
590             	3.13777402e+02
591             	3.13777771e+02
592             	3.13778133e+02
593             	3.13778498e+02
594             	3.13778860e+02
595             	3.13779222e+02
596             	3.13779579e+02
597             	3.13779936e+02
598             	3.13780287e+02
599             	3.13780641e+02
600             	3.13780991e+02
601             	3.13781341e+02
602             	3.13781685e+02
603             	3.13782029e+02
604             	3.13782366e+02
605             	3.13782704e+02
606             	3.13783040e+02
607             	3.13783374e+02
608             	3.13783702e+02
609             	3.13784031e+02
610             	3.13784353e+02
611             	3.13784678e+02
612             	3.13785000e+02
613             	3.13785322e+02
614             	3.13785641e+02
615             	3.13785961e+02
616             	3.13786276e+02
617             	3.13786593e+02
618             	3.13786911e+02
619             	3.13787228e+02
620             	3.13787542e+02
621             	3.13787857e+02
