# Region        : cellZone component_3
# Cells         : 34
# Volume        : 4.49198383e-02
# Time          	volAverage(T)
1               	3.01536910e+02
2               	3.03035921e+02
3               	3.04291164e+02
4               	3.05388299e+02
5               	3.06386132e+02
6               	3.07311708e+02
7               	3.08176747e+02
8               	3.08982425e+02
9               	3.09761052e+02
10              	3.10496118e+02
11              	3.11146837e+02
12              	3.11717463e+02
13              	3.12225829e+02
14              	3.12711013e+02
15              	3.13181703e+02
16              	3.13615263e+02
17              	3.14050516e+02
18              	3.14499010e+02
19              	3.14995535e+02
20              	3.15485301e+02
21              	3.15859222e+02
22              	3.16149037e+02
23              	3.16442622e+02
24              	3.16697136e+02
25              	3.16916869e+02
26              	3.17064929e+02
27              	3.17225437e+02
28              	3.17222265e+02
29              	3.16995286e+02
30              	3.16689613e+02
31              	3.16382526e+02
32              	3.16056464e+02
33              	3.15776700e+02
34              	3.15594309e+02
35              	3.15377803e+02
36              	3.15142103e+02
37              	3.14913237e+02
38              	3.14727663e+02
39              	3.14567224e+02
40              	3.14391990e+02
41              	3.14126191e+02
42              	3.13921362e+02
43              	3.13577347e+02
44              	3.13126513e+02
45              	3.12757522e+02
46              	3.12408333e+02
47              	3.12135526e+02
48              	3.11898952e+02
49              	3.11700164e+02
50              	3.11531902e+02
51              	3.11377323e+02
52              	3.11239348e+02
53              	3.11123288e+02
54              	3.11040277e+02
55              	3.10983816e+02
56              	3.11014461e+02
57              	3.11015276e+02
58              	3.10944754e+02
59              	3.10828677e+02
60              	3.10758688e+02
61              	3.10758440e+02
62              	3.10882705e+02
63              	3.11021565e+02
64              	3.11192416e+02
65              	3.11213198e+02
66              	3.11168141e+02
67              	3.11095372e+02
68              	3.11075606e+02
69              	3.11058492e+02
70              	3.11022377e+02
71              	3.11076224e+02
72              	3.11058054e+02
73              	3.10906711e+02
74              	3.10703514e+02
75              	3.10605325e+02
76              	3.10529420e+02
77              	3.10544862e+02
78              	3.10563290e+02
79              	3.10494093e+02
80              	3.10424102e+02
81              	3.10371970e+02
82              	3.10376405e+02
83              	3.10431165e+02
84              	3.10483734e+02
85              	3.10413884e+02
86              	3.10354162e+02
87              	3.10340880e+02
88              	3.10398231e+02
89              	3.10483640e+02
90              	3.10621265e+02
91              	3.10704890e+02
92              	3.10745413e+02
93              	3.10806999e+02
94              	3.10914941e+02
95              	3.11071659e+02
96              	3.11199441e+02
97              	3.11286571e+02
98              	3.11277947e+02
99              	3.11224729e+02
100             	3.11121844e+02
101             	3.11051643e+02
102             	3.11015366e+02
103             	3.10994893e+02
104             	3.10983748e+02
105             	3.10968731e+02
106             	3.10953839e+02
107             	3.10900076e+02
108             	3.10853496e+02
109             	3.10813202e+02
110             	3.10802061e+02
111             	3.10761698e+02
112             	3.10799058e+02
113             	3.10813067e+02
114             	3.10815015e+02
115             	3.10771887e+02
116             	3.10749043e+02
117             	3.10751893e+02
118             	3.10845284e+02
119             	3.10964330e+02
120             	3.11135250e+02
121             	3.11299794e+02
122             	3.11407423e+02
123             	3.11495136e+02
124             	3.11568055e+02
125             	3.11608445e+02
126             	3.11707741e+02
127             	3.11794873e+02
128             	3.11833146e+02
129             	3.11901596e+02
130             	3.11952687e+02
131             	3.12020394e+02
132             	3.12084206e+02
133             	3.12192619e+02
134             	3.12301105e+02
135             	3.12445297e+02
136             	3.12540747e+02
137             	3.12593662e+02
138             	3.12652711e+02
139             	3.12721892e+02
140             	3.12772077e+02
141             	3.12820515e+02
142             	3.12913100e+02
143             	3.12974393e+02
144             	3.12998081e+02
145             	3.13004176e+02
146             	3.13040568e+02
147             	3.13129237e+02
148             	3.13221089e+02
149             	3.13329969e+02
150             	3.13437740e+02
151             	3.13514572e+02
152             	3.13574688e+02
153             	3.13637564e+02
154             	3.13707604e+02
155             	3.13793356e+02
156             	3.13852709e+02
157             	3.13894926e+02
158             	3.14007057e+02
159             	3.14121454e+02
160             	3.14238422e+02
161             	3.14330367e+02
162             	3.14419882e+02
163             	3.14482379e+02
164             	3.14543067e+02
165             	3.14616359e+02
166             	3.14688924e+02
167             	3.14740643e+02
168             	3.14761527e+02
169             	3.14803955e+02
170             	3.14854894e+02
171             	3.14934768e+02
172             	3.15016533e+02
173             	3.15117120e+02
174             	3.15229543e+02
175             	3.15361497e+02
176             	3.15509305e+02
177             	3.15674979e+02
178             	3.15837678e+02
179             	3.15950629e+02
180             	3.16087147e+02
181             	3.16235575e+02
182             	3.16366056e+02
183             	3.16483472e+02
184             	3.16586593e+02
185             	3.16689981e+02
186             	3.16811178e+02
187             	3.16949761e+02
188             	3.17075119e+02
189             	3.17143961e+02
190             	3.17179951e+02
191             	3.17195411e+02
192             	3.17179909e+02
193             	3.17165694e+02
194             	3.17186348e+02
195             	3.17224551e+02
196             	3.17271866e+02
197             	3.17330401e+02
198             	3.17368560e+02
199             	3.17427120e+02
200             	3.17502025e+02
201             	3.17573674e+02
202             	3.17629439e+02
203             	3.17673804e+02
204             	3.17708671e+02
205             	3.17738261e+02
206             	3.17786512e+02
207             	3.17849483e+02
208             	3.17878997e+02
209             	3.17936855e+02
210             	3.18015391e+02
211             	3.18104760e+02
212             	3.18176153e+02
213             	3.18240488e+02
214             	3.18289656e+02
215             	3.18361913e+02
216             	3.18408113e+02
217             	3.18444129e+02
218             	3.18442249e+02
219             	3.18447596e+02
220             	3.18441536e+02
221             	3.18440801e+02
222             	3.18425743e+02
223             	3.18391681e+02
224             	3.18319846e+02
225             	3.18227325e+02
226             	3.18134081e+02
227             	3.18067204e+02
228             	3.18038689e+02
229             	3.18030791e+02
230             	3.18035957e+02
231             	3.18050575e+02
232             	3.18087108e+02
233             	3.18129685e+02
234             	3.18196575e+02
235             	3.18251291e+02
236             	3.18335881e+02
237             	3.18437220e+02
238             	3.18555829e+02
239             	3.18690146e+02
240             	3.18829494e+02
241             	3.18968110e+02
242             	3.19102012e+02
243             	3.19238842e+02
244             	3.19377881e+02
245             	3.19519532e+02
246             	3.19663949e+02
247             	3.19805928e+02
248             	3.19946978e+02
249             	3.20079875e+02
250             	3.20181520e+02
251             	3.20280236e+02
252             	3.20378187e+02
253             	3.20471995e+02
254             	3.20559961e+02
255             	3.20639345e+02
256             	3.20723551e+02
257             	3.20805102e+02
258             	3.20863309e+02
259             	3.20931318e+02
260             	3.20989150e+02
261             	3.21055544e+02
262             	3.21102497e+02
263             	3.21155238e+02
264             	3.21192050e+02
265             	3.21239997e+02
266             	3.21273581e+02
267             	3.21322348e+02
268             	3.21363801e+02
269             	3.21424062e+02
270             	3.21474430e+02
271             	3.21498018e+02
272             	3.21532020e+02
273             	3.21556776e+02
274             	3.21570190e+02
275             	3.21560255e+02
276             	3.21556777e+02
277             	3.21530813e+02
278             	3.21508291e+02
279             	3.21518960e+02
280             	3.21542093e+02
281             	3.21582158e+02
282             	3.21619667e+02
283             	3.21663149e+02
284             	3.21727432e+02
285             	3.21776330e+02
286             	3.21836047e+02
287             	3.21871425e+02
288             	3.21931151e+02
289             	3.21957504e+02
290             	3.22001046e+02
291             	3.22057541e+02
292             	3.22120170e+02
293             	3.22180897e+02
294             	3.22224820e+02
295             	3.22259393e+02
296             	3.22291253e+02
297             	3.22300085e+02
298             	3.22315758e+02
299             	3.22340913e+02
300             	3.22373886e+02
301             	3.22415522e+02
302             	3.22464060e+02
303             	3.22502815e+02
304             	3.22559316e+02
305             	3.22633563e+02
306             	3.22673598e+02
307             	3.22734841e+02
308             	3.22766046e+02
309             	3.22817220e+02
310             	3.22841324e+02
311             	3.22875775e+02
312             	3.22890529e+02
313             	3.22908383e+02
314             	3.22921398e+02
315             	3.22927025e+02
316             	3.22917831e+02
317             	3.22906003e+02
318             	3.22899377e+02
319             	3.22888564e+02
320             	3.22902992e+02
321             	3.22934459e+02
322             	3.22978943e+02
323             	3.23004926e+02
324             	3.23055070e+02
325             	3.23095490e+02
326             	3.23156496e+02
327             	3.23194657e+02
328             	3.23250267e+02
329             	3.23283140e+02
330             	3.23330657e+02
331             	3.23362159e+02
332             	3.23383390e+02
333             	3.23414066e+02
334             	3.23447608e+02
335             	3.23449502e+02
336             	3.23455314e+02
337             	3.23444729e+02
338             	3.23448156e+02
339             	3.23442290e+02
340             	3.23442637e+02
341             	3.23448937e+02
342             	3.23469196e+02
343             	3.23469913e+02
344             	3.23490683e+02
345             	3.23502429e+02
346             	3.23534172e+02
347             	3.23552632e+02
348             	3.23592414e+02
349             	3.23608330e+02
350             	3.23646621e+02
351             	3.23668482e+02
352             	3.23710588e+02
353             	3.23736003e+02
354             	3.23778822e+02
355             	3.23800366e+02
356             	3.23834079e+02
357             	3.23842811e+02
358             	3.23865388e+02
359             	3.23875531e+02
360             	3.23901030e+02
361             	3.23909875e+02
362             	3.23932416e+02
363             	3.23936495e+02
364             	3.23948631e+02
365             	3.23971392e+02
366             	3.23982430e+02
367             	3.24007254e+02
368             	3.24016149e+02
369             	3.24043587e+02
370             	3.24061616e+02
371             	3.24095006e+02
372             	3.24118247e+02
373             	3.24139249e+02
374             	3.24183161e+02
375             	3.24200495e+02
376             	3.24242051e+02
377             	3.24243555e+02
378             	3.24263428e+02
379             	3.24257705e+02
380             	3.24259441e+02
381             	3.24263362e+02
382             	3.24254172e+02
383             	3.24252123e+02
384             	3.24239813e+02
385             	3.24241761e+02
386             	3.24277265e+02
387             	3.24294849e+02
388             	3.24340865e+02
389             	3.24365569e+02
390             	3.24383593e+02
391             	3.24426175e+02
392             	3.24434621e+02
393             	3.24455689e+02
394             	3.24440921e+02
395             	3.24437605e+02
396             	3.24415488e+02
397             	3.24411832e+02
398             	3.24399506e+02
399             	3.24402869e+02
400             	3.24387405e+02
401             	3.24389739e+02
402             	3.24383631e+02
403             	3.24386317e+02
404             	3.24367981e+02
405             	3.24361049e+02
406             	3.24338840e+02
407             	3.24339949e+02
408             	3.24329517e+02
409             	3.24332925e+02
410             	3.24330587e+02
411             	3.24345750e+02
412             	3.24356612e+02
413             	3.24362803e+02
414             	3.24388088e+02
415             	3.24390992e+02
416             	3.24406669e+02
417             	3.24399150e+02
418             	3.24406938e+02
419             	3.24397034e+02
420             	3.24408047e+02
421             	3.24399439e+02
422             	3.24413420e+02
423             	3.24412996e+02
424             	3.24431743e+02
425             	3.24433991e+02
426             	3.24455537e+02
427             	3.24454473e+02
428             	3.24472170e+02
429             	3.24473159e+02
430             	3.24495441e+02
431             	3.24500710e+02
432             	3.24523685e+02
433             	3.24534080e+02
434             	3.24561838e+02
435             	3.24576099e+02
436             	3.24606429e+02
437             	3.24617507e+02
438             	3.24645850e+02
439             	3.24658964e+02
440             	3.24690491e+02
441             	3.24704063e+02
442             	3.24734268e+02
443             	3.24748414e+02
444             	3.24779024e+02
445             	3.24785871e+02
446             	3.24808311e+02
447             	3.24807834e+02
448             	3.24821519e+02
449             	3.24815478e+02
450             	3.24826757e+02
451             	3.24814525e+02
452             	3.24819123e+02
453             	3.24803835e+02
454             	3.24807557e+02
455             	3.24793741e+02
456             	3.24800473e+02
457             	3.24788476e+02
458             	3.24795634e+02
459             	3.24784847e+02
460             	3.24788436e+02
461             	3.24772727e+02
462             	3.24777252e+02
463             	3.24761273e+02
464             	3.24763087e+02
465             	3.24748238e+02
466             	3.24751807e+02
467             	3.24737750e+02
468             	3.24741226e+02
469             	3.24730836e+02
470             	3.24738233e+02
471             	3.24729835e+02
472             	3.24738937e+02
473             	3.24732886e+02
474             	3.24744381e+02
475             	3.24737971e+02
476             	3.24747852e+02
477             	3.24742153e+02
478             	3.24756386e+02
479             	3.24752504e+02
480             	3.24768192e+02
481             	3.24767071e+02
482             	3.24785659e+02
483             	3.24785978e+02
484             	3.24807328e+02
485             	3.24810072e+02
486             	3.24831551e+02
487             	3.24834507e+02
488             	3.24856462e+02
489             	3.24858975e+02
490             	3.24881551e+02
491             	3.24884564e+02
492             	3.24906617e+02
493             	3.24907828e+02
494             	3.24928100e+02
495             	3.24930818e+02
496             	3.24952280e+02
497             	3.24953787e+02
498             	3.24973085e+02
499             	3.24972322e+02
500             	3.24989550e+02
501             	3.24985914e+02
502             	3.24988656e+02
503             	3.25019430e+02
504             	3.25013945e+02
505             	3.25004507e+02
506             	3.25032027e+02
507             	3.25023156e+02
508             	3.25031171e+02
509             	3.25022264e+02
510             	3.25033069e+02
511             	3.25024319e+02
512             	3.25034133e+02
513             	3.25022612e+02
514             	3.25028597e+02
515             	3.25013757e+02
516             	3.25016395e+02
517             	3.25002122e+02
518             	3.25005142e+02
519             	3.24991356e+02
520             	3.24997492e+02
521             	3.24986567e+02
522             	3.24992795e+02
523             	3.24982823e+02
524             	3.24990082e+02
525             	3.24979213e+02
526             	3.24986523e+02
527             	3.24976182e+02
528             	3.24983941e+02
529             	3.24974487e+02
530             	3.24983564e+02
531             	3.24974763e+02
532             	3.24984940e+02
533             	3.24977594e+02
534             	3.24987897e+02
535             	3.24979651e+02
536             	3.24989914e+02
537             	3.24984474e+02
538             	3.24997495e+02
539             	3.24991111e+02
540             	3.25004772e+02
541             	3.25001668e+02
542             	3.25019083e+02
543             	3.25017103e+02
544             	3.25035194e+02
545             	3.25032824e+02
546             	3.25051351e+02
547             	3.25046060e+02
548             	3.25059421e+02
549             	3.25053221e+02
550             	3.25065679e+02
551             	3.25059109e+02
552             	3.25070982e+02
553             	3.25064489e+02
554             	3.25076621e+02
555             	3.25070476e+02
556             	3.25083801e+02
557             	3.25078322e+02
558             	3.25090960e+02
559             	3.25083978e+02
560             	3.25095316e+02
561             	3.25086737e+02
562             	3.25096569e+02
563             	3.25086879e+02
564             	3.25095495e+02
565             	3.25086067e+02
566             	3.25093822e+02
567             	3.25082854e+02
568             	3.25097914e+02
569             	3.25085755e+02
570             	3.25091813e+02
571             	3.25099545e+02
572             	3.25084310e+02
573             	3.25099085e+02
574             	3.25083845e+02
575             	3.25066234e+02
576             	3.25052795e+02
577             	3.25041969e+02
578             	3.25053306e+02
579             	3.25064658e+02
580             	3.25073049e+02
581             	3.25061048e+02
582             	3.25069870e+02
583             	3.25080719e+02
584             	3.25069681e+02
585             	3.25058098e+02
586             	3.25083773e+02
587             	3.25109610e+02
588             	3.25130425e+02
589             	3.25110166e+02
590             	3.25109654e+02
591             	3.25095919e+02
592             	3.25105275e+02
593             	3.25097631e+02
594             	3.25108790e+02
595             	3.25100902e+02
596             	3.25112675e+02
597             	3.25104954e+02
598             	3.25116973e+02
599             	3.25110506e+02
600             	3.25122442e+02
601             	3.25115343e+02
602             	3.25126770e+02
603             	3.25119758e+02
604             	3.25130802e+02
605             	3.25124008e+02
606             	3.25136563e+02
607             	3.25128772e+02
608             	3.25139213e+02
609             	3.25130900e+02
610             	3.25140737e+02
611             	3.25131868e+02
612             	3.25141743e+02
613             	3.25132283e+02
614             	3.25142060e+02
615             	3.25130992e+02
616             	3.25139419e+02
617             	3.25128117e+02
618             	3.25135494e+02
619             	3.25122726e+02
620             	3.25126856e+02
621             	3.25112731e+02
