# Region        : cellZone component_4
# Cells         : 84
# Volume        : 1.54319830e-01
# Time          	volAverage(T)
1               	3.00349681e+02
2               	3.00692023e+02
3               	3.01011623e+02
4               	3.01317120e+02
5               	3.01614330e+02
6               	3.01905683e+02
7               	3.02192341e+02
8               	3.02475277e+02
9               	3.02755889e+02
10              	3.03033300e+02
11              	3.03308084e+02
12              	3.03580343e+02
13              	3.03849873e+02
14              	3.04116993e+02
15              	3.04381106e+02
16              	3.04642112e+02
17              	3.04899835e+02
18              	3.05155585e+02
19              	3.05411592e+02
20              	3.05665786e+02
21              	3.05913600e+02
22              	3.06151086e+02
23              	3.06385441e+02
24              	3.06613898e+02
25              	3.06839049e+02
26              	3.07059850e+02
27              	3.07276001e+02
28              	3.07487192e+02
29              	3.07692582e+02
30              	3.07892404e+02
31              	3.08086404e+02
32              	3.08274974e+02
33              	3.08458932e+02
34              	3.08638249e+02
35              	3.08813888e+02
36              	3.08987930e+02
37              	3.09162575e+02
38              	3.09340883e+02
39              	3.09522839e+02
40              	3.09692533e+02
41              	3.09851179e+02
42              	3.10005547e+02
43              	3.10155158e+02
44              	3.10301369e+02
45              	3.10443673e+02
46              	3.10583531e+02
47              	3.10722654e+02
48              	3.10861889e+02
49              	3.11000318e+02
50              	3.11139752e+02
51              	3.11279084e+02
52              	3.11420180e+02
53              	3.11561850e+02
54              	3.11703284e+02
55              	3.11843179e+02
56              	3.11980700e+02
57              	3.12116035e+02
58              	3.12249741e+02
59              	3.12383381e+02
60              	3.12515414e+02
61              	3.12648242e+02
62              	3.12775585e+02
63              	3.12901800e+02
64              	3.13022135e+02
65              	3.13138867e+02
66              	3.13249752e+02
67              	3.13356368e+02
68              	3.13457705e+02
69              	3.13557559e+02
70              	3.13654598e+02
71              	3.13752192e+02
72              	3.13851025e+02
73              	3.13950404e+02
74              	3.14052876e+02
75              	3.14157423e+02
76              	3.14264901e+02
77              	3.14371622e+02
78              	3.14476953e+02
79              	3.14579106e+02
80              	3.14675011e+02
81              	3.14764759e+02
82              	3.14848832e+02
83              	3.14928556e+02
84              	3.15005033e+02
85              	3.15079381e+02
86              	3.15151767e+02
87              	3.15224756e+02
88              	3.15297780e+02
89              	3.15372697e+02
90              	3.15448740e+02
91              	3.15525716e+02
92              	3.15603459e+02
93              	3.15681899e+02
94              	3.15761175e+02
95              	3.15841477e+02
96              	3.15922317e+02
97              	3.16002998e+02
98              	3.16084028e+02
99              	3.16164401e+02
100             	3.16242865e+02
101             	3.16318510e+02
102             	3.16391874e+02
103             	3.16461799e+02
104             	3.16527928e+02
105             	3.16590511e+02
106             	3.16649824e+02
107             	3.16707307e+02
108             	3.16764479e+02
109             	3.16821057e+02
110             	3.16878536e+02
111             	3.16936550e+02
112             	3.16995322e+02
113             	3.17054879e+02
114             	3.17114687e+02
115             	3.17172377e+02
116             	3.17227848e+02
117             	3.17280632e+02
118             	3.17331545e+02
119             	3.17380533e+02
120             	3.17427653e+02
121             	3.17473377e+02
122             	3.17517202e+02
123             	3.17560244e+02
124             	3.17602739e+02
125             	3.17644880e+02
126             	3.17686517e+02
127             	3.17727712e+02
128             	3.17768744e+02
129             	3.17809976e+02
130             	3.17851627e+02
131             	3.17893715e+02
132             	3.17935442e+02
133             	3.17976942e+02
134             	3.18015719e+02
135             	3.18055444e+02
136             	3.18094173e+02
137             	3.18131587e+02
138             	3.18167381e+02
139             	3.18201709e+02
140             	3.18234472e+02
141             	3.18265635e+02
142             	3.18295353e+02
143             	3.18323968e+02
144             	3.18352224e+02
145             	3.18380538e+02
146             	3.18408391e+02
147             	3.18437031e+02
148             	3.18465685e+02
149             	3.18495258e+02
150             	3.18525352e+02
151             	3.18553953e+02
152             	3.18581583e+02
153             	3.18608655e+02
154             	3.18634012e+02
155             	3.18658038e+02
156             	3.18680408e+02
157             	3.18701172e+02
158             	3.18720536e+02
159             	3.18739124e+02
160             	3.18757657e+02
161             	3.18776897e+02
162             	3.18795974e+02
163             	3.18815385e+02
164             	3.18835512e+02
165             	3.18856121e+02
166             	3.18877451e+02
167             	3.18898454e+02
168             	3.18919206e+02
169             	3.18938499e+02
170             	3.18957125e+02
171             	3.18974906e+02
172             	3.18991762e+02
173             	3.19007280e+02
174             	3.19022038e+02
175             	3.19036011e+02
176             	3.19049285e+02
177             	3.19062005e+02
178             	3.19074235e+02
179             	3.19086147e+02
180             	3.19097937e+02
181             	3.19109682e+02
182             	3.19121688e+02
183             	3.19134040e+02
184             	3.19146707e+02
185             	3.19159570e+02
186             	3.19172468e+02
187             	3.19185302e+02
188             	3.19197970e+02
189             	3.19209526e+02
190             	3.19220868e+02
191             	3.19231328e+02
192             	3.19241244e+02
193             	3.19250402e+02
194             	3.19258807e+02
195             	3.19266615e+02
196             	3.19273898e+02
197             	3.19280718e+02
198             	3.19287227e+02
199             	3.19293519e+02
200             	3.19299694e+02
201             	3.19306256e+02
202             	3.19313346e+02
203             	3.19320656e+02
204             	3.19328027e+02
205             	3.19335883e+02
206             	3.19343516e+02
207             	3.19350861e+02
208             	3.19357764e+02
209             	3.19363871e+02
210             	3.19369390e+02
211             	3.19373767e+02
212             	3.19377365e+02
213             	3.19380477e+02
214             	3.19383531e+02
215             	3.19386775e+02
216             	3.19390324e+02
217             	3.19394672e+02
218             	3.19399598e+02
219             	3.19404419e+02
220             	3.19409003e+02
221             	3.19414103e+02
222             	3.19418788e+02
223             	3.19422988e+02
224             	3.19426558e+02
225             	3.19429488e+02
226             	3.19431859e+02
227             	3.19434107e+02
228             	3.19436488e+02
229             	3.19438841e+02
230             	3.19441612e+02
231             	3.19445015e+02
232             	3.19448839e+02
233             	3.19452100e+02
234             	3.19455958e+02
235             	3.19459461e+02
236             	3.19462585e+02
237             	3.19465140e+02
238             	3.19467250e+02
239             	3.19468960e+02
240             	3.19470817e+02
241             	3.19472183e+02
242             	3.19473610e+02
243             	3.19475486e+02
244             	3.19478183e+02
245             	3.19480338e+02
246             	3.19482319e+02
247             	3.19484801e+02
248             	3.19487096e+02
249             	3.19488676e+02
250             	3.19489779e+02
251             	3.19490206e+02
252             	3.19490018e+02
253             	3.19489471e+02
254             	3.19489494e+02
255             	3.19489123e+02
256             	3.19489126e+02
257             	3.19489491e+02
258             	3.19490414e+02
259             	3.19491765e+02
260             	3.19493547e+02
261             	3.19495330e+02
262             	3.19497194e+02
263             	3.19498417e+02
264             	3.19499178e+02
265             	3.19499330e+02
266             	3.19498818e+02
267             	3.19497737e+02
268             	3.19496569e+02
269             	3.19494986e+02
270             	3.19493700e+02
271             	3.19492950e+02
272             	3.19492671e+02
273             	3.19493247e+02
274             	3.19494185e+02
275             	3.19495546e+02
276             	3.19497828e+02
277             	3.19499645e+02
278             	3.19501357e+02
279             	3.19502717e+02
280             	3.19503599e+02
281             	3.19503956e+02
282             	3.19503808e+02
283             	3.19503176e+02
284             	3.19502131e+02
285             	3.19501050e+02
286             	3.19500046e+02
287             	3.19499040e+02
288             	3.19498416e+02
289             	3.19498206e+02
290             	3.19498474e+02
291             	3.19499297e+02
292             	3.19500541e+02
293             	3.19501869e+02
294             	3.19502965e+02
295             	3.19504012e+02
296             	3.19504808e+02
297             	3.19505130e+02
298             	3.19504856e+02
299             	3.19504058e+02
300             	3.19503067e+02
301             	3.19502086e+02
302             	3.19501140e+02
303             	3.19500477e+02
304             	3.19500335e+02
305             	3.19500794e+02
306             	3.19501666e+02
307             	3.19502378e+02
308             	3.19503269e+02
309             	3.19504155e+02
310             	3.19504920e+02
311             	3.19505384e+02
312             	3.19505572e+02
313             	3.19505418e+02
314             	3.19505017e+02
315             	3.19504673e+02
316             	3.19504196e+02
317             	3.19503747e+02
318             	3.19503549e+02
319             	3.19503618e+02
320             	3.19504039e+02
321             	3.19504806e+02
322             	3.19505695e+02
323             	3.19506657e+02
324             	3.19507717e+02
325             	3.19508603e+02
326             	3.19509363e+02
327             	3.19509767e+02
328             	3.19509905e+02
329             	3.19509744e+02
330             	3.19509367e+02
331             	3.19508815e+02
332             	3.19508281e+02
333             	3.19507664e+02
334             	3.19507238e+02
335             	3.19506879e+02
336             	3.19506673e+02
337             	3.19506699e+02
338             	3.19506919e+02
339             	3.19507289e+02
340             	3.19507744e+02
341             	3.19508241e+02
342             	3.19508715e+02
343             	3.19509019e+02
344             	3.19509212e+02
345             	3.19509259e+02
346             	3.19509144e+02
347             	3.19508853e+02
348             	3.19508475e+02
349             	3.19508081e+02
350             	3.19507661e+02
351             	3.19507377e+02
352             	3.19507208e+02
353             	3.19507210e+02
354             	3.19507412e+02
355             	3.19507854e+02
356             	3.19508410e+02
357             	3.19509119e+02
358             	3.19509751e+02
359             	3.19510355e+02
360             	3.19510868e+02
361             	3.19511230e+02
362             	3.19511419e+02
363             	3.19511449e+02
364             	3.19511361e+02
365             	3.19511224e+02
366             	3.19511087e+02
367             	3.19511043e+02
368             	3.19511098e+02
369             	3.19511283e+02
370             	3.19511604e+02
371             	3.19512026e+02
372             	3.19512487e+02
373             	3.19512899e+02
374             	3.19513222e+02
375             	3.19513489e+02
376             	3.19513629e+02
377             	3.19513619e+02
378             	3.19513507e+02
379             	3.19513372e+02
380             	3.19513250e+02
381             	3.19513132e+02
382             	3.19513078e+02
383             	3.19513139e+02
384             	3.19513358e+02
385             	3.19513674e+02
386             	3.19514042e+02
387             	3.19514390e+02
388             	3.19514687e+02
389             	3.19514923e+02
390             	3.19515029e+02
391             	3.19514953e+02
392             	3.19514761e+02
393             	3.19514528e+02
394             	3.19514258e+02
395             	3.19514062e+02
396             	3.19513908e+02
397             	3.19513872e+02
398             	3.19513976e+02
399             	3.19514224e+02
400             	3.19514556e+02
401             	3.19514838e+02
402             	3.19515167e+02
403             	3.19515476e+02
404             	3.19515665e+02
405             	3.19515756e+02
406             	3.19515719e+02
407             	3.19515564e+02
408             	3.19515379e+02
409             	3.19515108e+02
410             	3.19514888e+02
411             	3.19514712e+02
412             	3.19514643e+02
413             	3.19514706e+02
414             	3.19514913e+02
415             	3.19515165e+02
416             	3.19515461e+02
417             	3.19515717e+02
418             	3.19515940e+02
419             	3.19516085e+02
420             	3.19516150e+02
421             	3.19516122e+02
422             	3.19516022e+02
423             	3.19515927e+02
424             	3.19515843e+02
425             	3.19515796e+02
426             	3.19515812e+02
427             	3.19515914e+02
428             	3.19516115e+02
429             	3.19516328e+02
430             	3.19516498e+02
431             	3.19516680e+02
432             	3.19516824e+02
433             	3.19516888e+02
434             	3.19516882e+02
435             	3.19516783e+02
436             	3.19516610e+02
437             	3.19516423e+02
438             	3.19516276e+02
439             	3.19516134e+02
440             	3.19516041e+02
441             	3.19516023e+02
442             	3.19516070e+02
443             	3.19516155e+02
444             	3.19516251e+02
445             	3.19516345e+02
446             	3.19516425e+02
447             	3.19516470e+02
448             	3.19516491e+02
449             	3.19516489e+02
450             	3.19516457e+02
451             	3.19516416e+02
452             	3.19516372e+02
453             	3.19516320e+02
454             	3.19516254e+02
455             	3.19516176e+02
456             	3.19516101e+02
457             	3.19516011e+02
458             	3.19515933e+02
459             	3.19515883e+02
460             	3.19515874e+02
461             	3.19515913e+02
462             	3.19515997e+02
463             	3.19516125e+02
464             	3.19516275e+02
465             	3.19516405e+02
466             	3.19516505e+02
467             	3.19516550e+02
468             	3.19516550e+02
469             	3.19516495e+02
470             	3.19516383e+02
471             	3.19516230e+02
472             	3.19516067e+02
473             	3.19515938e+02
474             	3.19515841e+02
475             	3.19515786e+02
476             	3.19515795e+02
477             	3.19515872e+02
478             	3.19515981e+02
479             	3.19516101e+02
480             	3.19516195e+02
481             	3.19516252e+02
482             	3.19516262e+02
483             	3.19516201e+02
484             	3.19516089e+02
485             	3.19515952e+02
486             	3.19515811e+02
487             	3.19515701e+02
488             	3.19515608e+02
489             	3.19515570e+02
490             	3.19515591e+02
491             	3.19515645e+02
492             	3.19515714e+02
493             	3.19515773e+02
494             	3.19515798e+02
495             	3.19515789e+02
496             	3.19515723e+02
497             	3.19515623e+02
498             	3.19515505e+02
499             	3.19515358e+02
500             	3.19515238e+02
501             	3.19515131e+02
502             	3.19515058e+02
503             	3.19515021e+02
504             	3.19515027e+02
505             	3.19515050e+02
506             	3.19515074e+02
507             	3.19515086e+02
508             	3.19515091e+02
509             	3.19515070e+02
510             	3.19515020e+02
511             	3.19514942e+02
512             	3.19514850e+02
513             	3.19514754e+02
514             	3.19514656e+02
515             	3.19514568e+02
516             	3.19514491e+02
517             	3.19514431e+02
518             	3.19514397e+02
519             	3.19514389e+02
520             	3.19514401e+02
521             	3.19514429e+02
522             	3.19514437e+02
523             	3.19514443e+02
524             	3.19514427e+02
525             	3.19514381e+02
526             	3.19514307e+02
527             	3.19514213e+02
528             	3.19514103e+02
529             	3.19513988e+02
530             	3.19513880e+02
531             	3.19513791e+02
532             	3.19513731e+02
533             	3.19513688e+02
534             	3.19513666e+02
535             	3.19513667e+02
536             	3.19513689e+02
537             	3.19513707e+02
538             	3.19513713e+02
539             	3.19513704e+02
540             	3.19513669e+02
541             	3.19513600e+02
542             	3.19513505e+02
543             	3.19513405e+02
544             	3.19513301e+02
545             	3.19513203e+02
546             	3.19513121e+02
547             	3.19513065e+02
548             	3.19513039e+02
549             	3.19513033e+02
550             	3.19513035e+02
551             	3.19513031e+02
552             	3.19513027e+02
553             	3.19513008e+02
554             	3.19512963e+02
555             	3.19512892e+02
556             	3.19512808e+02
557             	3.19512728e+02
558             	3.19512652e+02
559             	3.19512583e+02
560             	3.19512537e+02
561             	3.19512520e+02
562             	3.19512520e+02
563             	3.19512525e+02
564             	3.19512526e+02
565             	3.19512527e+02
566             	3.19512512e+02
567             	3.19512481e+02
568             	3.19512439e+02
569             	3.19512386e+02
570             	3.19512319e+02
571             	3.19512250e+02
572             	3.19512187e+02
573             	3.19512139e+02
574             	3.19512115e+02
575             	3.19512109e+02
576             	3.19512108e+02
577             	3.19512106e+02
578             	3.19512099e+02
579             	3.19512085e+02
580             	3.19512054e+02
581             	3.19512000e+02
582             	3.19511925e+02
583             	3.19511855e+02
584             	3.19511782e+02
585             	3.19511718e+02
586             	3.19511664e+02
587             	3.19511630e+02
588             	3.19511615e+02
589             	3.19511618e+02
590             	3.19511631e+02
591             	3.19511639e+02
592             	3.19511635e+02
593             	3.19511626e+02
594             	3.19511605e+02
595             	3.19511564e+02
596             	3.19511506e+02
597             	3.19511439e+02
598             	3.19511369e+02
599             	3.19511304e+02
600             	3.19511242e+02
601             	3.19511198e+02
602             	3.19511168e+02
603             	3.19511152e+02
604             	3.19511145e+02
605             	3.19511150e+02
606             	3.19511162e+02
607             	3.19511172e+02
608             	3.19511170e+02
609             	3.19511167e+02
610             	3.19511153e+02
611             	3.19511126e+02
612             	3.19511096e+02
613             	3.19511062e+02
614             	3.19511015e+02
615             	3.19510965e+02
616             	3.19510914e+02
617             	3.19510866e+02
618             	3.19510824e+02
619             	3.19510795e+02
620             	3.19510767e+02
621             	3.19510740e+02
