# Region        : cellZone component_3
# Cells         : 232
# Volume        : 4.28017378e-01
# Time          	volAverage(T)
1               	3.00756955e+02
2               	3.01506855e+02
3               	3.02216286e+02
4               	3.02904286e+02
5               	3.03582934e+02
6               	3.04255169e+02
7               	3.04921015e+02
8               	3.05582022e+02
9               	3.06240184e+02
10              	3.06895203e+02
11              	3.07548441e+02
12              	3.08197872e+02
13              	3.08843887e+02
14              	3.09486392e+02
15              	3.10121219e+02
16              	3.10755627e+02
17              	3.11386327e+02
18              	3.12013487e+02
19              	3.12638985e+02
20              	3.13260327e+02
21              	3.13878674e+02
22              	3.14493181e+02
23              	3.15105574e+02
24              	3.15714566e+02
25              	3.16317824e+02
26              	3.16914659e+02
27              	3.17503189e+02
28              	3.18085021e+02
29              	3.18662746e+02
30              	3.19236924e+02
31              	3.19805979e+02
32              	3.20370756e+02
33              	3.20932307e+02
34              	3.21491554e+02
35              	3.22047046e+02
36              	3.22595064e+02
37              	3.23140417e+02
38              	3.23682552e+02
39              	3.24219987e+02
40              	3.24748298e+02
41              	3.25262105e+02
42              	3.25771550e+02
43              	3.26287772e+02
44              	3.26798834e+02
45              	3.27309120e+02
46              	3.27819885e+02
47              	3.28325477e+02
48              	3.28824395e+02
49              	3.29316173e+02
50              	3.29803346e+02
51              	3.30284553e+02
52              	3.30765641e+02
53              	3.31247241e+02
54              	3.31729487e+02
55              	3.32206698e+02
56              	3.32682395e+02
57              	3.33147013e+02
58              	3.33611261e+02
59              	3.34069187e+02
60              	3.34519579e+02
61              	3.34961893e+02
62              	3.35398628e+02
63              	3.35831156e+02
64              	3.36259515e+02
65              	3.36680831e+02
66              	3.37100240e+02
67              	3.37520348e+02
68              	3.37939580e+02
69              	3.38354021e+02
70              	3.38764372e+02
71              	3.39177975e+02
72              	3.39595011e+02
73              	3.40006906e+02
74              	3.40413904e+02
75              	3.40818157e+02
76              	3.41219981e+02
77              	3.41618553e+02
78              	3.42015218e+02
79              	3.42408930e+02
80              	3.42797270e+02
81              	3.43185739e+02
82              	3.43577382e+02
83              	3.43970514e+02
84              	3.44362088e+02
85              	3.44750370e+02
86              	3.45144592e+02
87              	3.45533423e+02
88              	3.45921439e+02
89              	3.46305710e+02
90              	3.46674205e+02
91              	3.47037769e+02
92              	3.47386268e+02
93              	3.47735127e+02
94              	3.48079668e+02
95              	3.48427593e+02
96              	3.48774573e+02
97              	3.49120373e+02
98              	3.49464502e+02
99              	3.49812356e+02
100             	3.50156358e+02
101             	3.50498040e+02
102             	3.50838977e+02
103             	3.51176935e+02
104             	3.51514491e+02
105             	3.51848627e+02
106             	3.52179050e+02
107             	3.52506083e+02
108             	3.52829996e+02
109             	3.53152959e+02
110             	3.53476223e+02
111             	3.53796113e+02
112             	3.54110936e+02
113             	3.54419209e+02
114             	3.54727334e+02
115             	3.55029995e+02
116             	3.55329707e+02
117             	3.55627641e+02
118             	3.55924067e+02
119             	3.56215820e+02
120             	3.56504338e+02
121             	3.56789481e+02
122             	3.57072809e+02
123             	3.57357293e+02
124             	3.57644360e+02
125             	3.57928989e+02
126             	3.58214366e+02
127             	3.58502227e+02
128             	3.58787840e+02
129             	3.59074654e+02
130             	3.59354253e+02
131             	3.59629988e+02
132             	3.59902116e+02
133             	3.60172283e+02
134             	3.60440833e+02
135             	3.60707276e+02
136             	3.60971610e+02
137             	3.61231973e+02
138             	3.61490225e+02
139             	3.61747518e+02
140             	3.62000291e+02
141             	3.62249701e+02
142             	3.62498796e+02
143             	3.62744163e+02
144             	3.62986174e+02
145             	3.63224255e+02
146             	3.63458024e+02
147             	3.63688065e+02
148             	3.63915119e+02
149             	3.64141435e+02
150             	3.64367030e+02
151             	3.64590542e+02
152             	3.64813508e+02
153             	3.65036948e+02
154             	3.65261390e+02
155             	3.65486626e+02
156             	3.65711528e+02
157             	3.65936146e+02
158             	3.66158740e+02
159             	3.66377837e+02
160             	3.66594282e+02
161             	3.66807050e+02
162             	3.67016553e+02
163             	3.67223263e+02
164             	3.67431060e+02
165             	3.67642187e+02
166             	3.67853491e+02
167             	3.68065958e+02
168             	3.68277700e+02
169             	3.68490457e+02
170             	3.68702215e+02
171             	3.68914880e+02
172             	3.69126658e+02
173             	3.69336820e+02
174             	3.69544828e+02
175             	3.69747568e+02
176             	3.69945489e+02
177             	3.70139568e+02
178             	3.70329612e+02
179             	3.70516271e+02
180             	3.70700359e+02
181             	3.70882309e+02
182             	3.71062364e+02
183             	3.71240315e+02
184             	3.71416690e+02
185             	3.71591139e+02
186             	3.71763527e+02
187             	3.71933899e+02
188             	3.72102404e+02
189             	3.72269500e+02
190             	3.72435279e+02
191             	3.72601015e+02
192             	3.72766228e+02
193             	3.72929522e+02
194             	3.73089425e+02
195             	3.73248435e+02
196             	3.73405960e+02
197             	3.73559904e+02
198             	3.73712525e+02
199             	3.73863239e+02
200             	3.74011951e+02
201             	3.74158777e+02
202             	3.74304278e+02
203             	3.74450951e+02
204             	3.74598271e+02
205             	3.74745492e+02
206             	3.74892952e+02
207             	3.75040838e+02
208             	3.75189432e+02
209             	3.75338729e+02
210             	3.75488823e+02
211             	3.75639462e+02
212             	3.75790446e+02
213             	3.75941747e+02
214             	3.76092805e+02
215             	3.76242922e+02
216             	3.76390077e+02
217             	3.76534129e+02
218             	3.76674203e+02
219             	3.76810544e+02
220             	3.76943184e+02
221             	3.77076446e+02
222             	3.77205969e+02
223             	3.77333189e+02
224             	3.77459228e+02
225             	3.77585257e+02
226             	3.77713349e+02
227             	3.77842793e+02
228             	3.77972074e+02
229             	3.78101515e+02
230             	3.78228264e+02
231             	3.78353905e+02
232             	3.78476919e+02
233             	3.78595689e+02
234             	3.78711398e+02
235             	3.78825420e+02
236             	3.78937358e+02
237             	3.79048078e+02
238             	3.79158232e+02
239             	3.79268499e+02
240             	3.79378497e+02
241             	3.79487624e+02
242             	3.79596271e+02
243             	3.79703406e+02
244             	3.79807979e+02
245             	3.79911207e+02
246             	3.80016063e+02
247             	3.80121967e+02
248             	3.80226580e+02
249             	3.80330919e+02
250             	3.80435630e+02
251             	3.80541641e+02
252             	3.80647634e+02
253             	3.80753956e+02
254             	3.80861836e+02
255             	3.80970890e+02
256             	3.81081081e+02
257             	3.81192135e+02
258             	3.81303414e+02
259             	3.81413892e+02
260             	3.81523945e+02
261             	3.81632054e+02
262             	3.81736485e+02
263             	3.81838500e+02
264             	3.81937322e+02
265             	3.82034534e+02
266             	3.82129227e+02
267             	3.82224401e+02
268             	3.82318007e+02
269             	3.82411037e+02
270             	3.82504070e+02
271             	3.82597810e+02
272             	3.82692559e+02
273             	3.82786487e+02
274             	3.82880783e+02
275             	3.82975444e+02
276             	3.83069919e+02
277             	3.83163817e+02
278             	3.83256864e+02
279             	3.83348856e+02
280             	3.83439143e+02
281             	3.83528069e+02
282             	3.83612897e+02
283             	3.83698246e+02
284             	3.83782833e+02
285             	3.83866566e+02
286             	3.83949827e+02
287             	3.84033077e+02
288             	3.84116881e+02
289             	3.84201329e+02
290             	3.84286135e+02
291             	3.84368945e+02
292             	3.84448452e+02
293             	3.84528133e+02
294             	3.84606829e+02
295             	3.84683269e+02
296             	3.84760019e+02
297             	3.84834749e+02
298             	3.84907981e+02
299             	3.84981852e+02
300             	3.85054463e+02
301             	3.85127813e+02
302             	3.85202475e+02
303             	3.85276235e+02
304             	3.85349361e+02
305             	3.85422441e+02
306             	3.85495780e+02
307             	3.85569492e+02
308             	3.85644416e+02
309             	3.85717120e+02
310             	3.85792288e+02
311             	3.85869788e+02
312             	3.85949265e+02
313             	3.86025524e+02
314             	3.86099276e+02
315             	3.86173869e+02
316             	3.86243412e+02
317             	3.86308104e+02
318             	3.86369138e+02
319             	3.86427149e+02
320             	3.86484879e+02
321             	3.86545765e+02
322             	3.86607627e+02
323             	3.86673462e+02
324             	3.86741893e+02
325             	3.86812195e+02
326             	3.86882165e+02
327             	3.86946788e+02
328             	3.87006000e+02
329             	3.87066713e+02
330             	3.87125236e+02
331             	3.87180926e+02
332             	3.87235620e+02
333             	3.87288172e+02
334             	3.87337185e+02
335             	3.87384590e+02
336             	3.87434340e+02
337             	3.87488486e+02
338             	3.87543844e+02
339             	3.87602545e+02
340             	3.87661322e+02
341             	3.87720067e+02
342             	3.87780666e+02
343             	3.87844156e+02
344             	3.87909315e+02
345             	3.87970742e+02
346             	3.88032949e+02
347             	3.88091476e+02
348             	3.88146392e+02
349             	3.88199944e+02
350             	3.88254725e+02
351             	3.88312502e+02
352             	3.88365985e+02
353             	3.88418115e+02
354             	3.88471453e+02
355             	3.88524268e+02
356             	3.88580791e+02
357             	3.88641087e+02
358             	3.88704078e+02
359             	3.88766572e+02
360             	3.88824132e+02
361             	3.88875936e+02
362             	3.88927199e+02
363             	3.88977797e+02
364             	3.89028332e+02
365             	3.89081282e+02
366             	3.89135263e+02
367             	3.89191815e+02
368             	3.89247649e+02
369             	3.89302783e+02
370             	3.89354987e+02
371             	3.89406112e+02
372             	3.89453102e+02
373             	3.89500823e+02
374             	3.89545551e+02
375             	3.89587564e+02
376             	3.89629377e+02
377             	3.89674856e+02
378             	3.89723015e+02
379             	3.89767704e+02
380             	3.89808371e+02
381             	3.89849938e+02
382             	3.89893973e+02
383             	3.89933310e+02
384             	3.89971894e+02
385             	3.90010345e+02
386             	3.90047896e+02
387             	3.90087139e+02
388             	3.90127807e+02
389             	3.90172375e+02
390             	3.90218370e+02
391             	3.90264983e+02
392             	3.90310271e+02
393             	3.90354520e+02
394             	3.90399596e+02
395             	3.90442201e+02
396             	3.90481203e+02
397             	3.90518215e+02
398             	3.90554840e+02
399             	3.90593212e+02
400             	3.90635096e+02
401             	3.90678906e+02
402             	3.90722917e+02
403             	3.90768542e+02
404             	3.90815627e+02
405             	3.90861172e+02
406             	3.90905335e+02
407             	3.90947919e+02
408             	3.90988884e+02
409             	3.91026778e+02
410             	3.91064372e+02
411             	3.91100789e+02
412             	3.91137522e+02
413             	3.91176018e+02
414             	3.91215018e+02
415             	3.91256835e+02
416             	3.91300624e+02
417             	3.91343037e+02
418             	3.91381641e+02
419             	3.91416420e+02
420             	3.91448191e+02
421             	3.91476197e+02
422             	3.91502040e+02
423             	3.91527207e+02
424             	3.91552792e+02
425             	3.91579924e+02
426             	3.91608103e+02
427             	3.91637716e+02
428             	3.91670292e+02
429             	3.91702618e+02
430             	3.91734747e+02
431             	3.91766497e+02
432             	3.91796167e+02
433             	3.91824196e+02
434             	3.91851520e+02
435             	3.91881054e+02
436             	3.91913179e+02
437             	3.91947038e+02
438             	3.91981070e+02
439             	3.92017804e+02
440             	3.92057057e+02
441             	3.92099266e+02
442             	3.92142029e+02
443             	3.92183284e+02
444             	3.92223613e+02
445             	3.92263433e+02
446             	3.92299862e+02
447             	3.92336988e+02
448             	3.92370323e+02
449             	3.92400694e+02
450             	3.92428446e+02
451             	3.92454198e+02
452             	3.92480729e+02
453             	3.92508929e+02
454             	3.92537062e+02
455             	3.92566394e+02
456             	3.92596964e+02
457             	3.92627339e+02
458             	3.92659429e+02
459             	3.92693052e+02
460             	3.92727085e+02
461             	3.92759985e+02
462             	3.92790596e+02
463             	3.92818083e+02
464             	3.92842979e+02
465             	3.92866208e+02
466             	3.92888848e+02
467             	3.92912466e+02
468             	3.92938061e+02
469             	3.92964880e+02
470             	3.92993674e+02
471             	3.93023872e+02
472             	3.93053337e+02
473             	3.93084132e+02
474             	3.93114214e+02
475             	3.93144244e+02
476             	3.93173693e+02
477             	3.93200982e+02
478             	3.93224351e+02
479             	3.93246054e+02
480             	3.93267967e+02
481             	3.93288626e+02
482             	3.93309355e+02
483             	3.93330989e+02
484             	3.93354362e+02
485             	3.93379263e+02
486             	3.93405670e+02
487             	3.93434037e+02
488             	3.93464067e+02
489             	3.93495437e+02
490             	3.93526977e+02
491             	3.93558424e+02
492             	3.93590725e+02
493             	3.93623757e+02
494             	3.93657122e+02
495             	3.93690053e+02
496             	3.93722101e+02
497             	3.93752972e+02
498             	3.93782582e+02
499             	3.93810524e+02
500             	3.93837014e+02
501             	3.93862379e+02
502             	3.93886423e+02
503             	3.93908666e+02
504             	3.93932320e+02
505             	3.93954472e+02
506             	3.93975823e+02
507             	3.93996754e+02
508             	3.94017310e+02
509             	3.94037676e+02
510             	3.94057873e+02
511             	3.94077958e+02
512             	3.94098456e+02
513             	3.94119786e+02
514             	3.94143905e+02
515             	3.94169420e+02
516             	3.94196033e+02
517             	3.94223529e+02
518             	3.94251484e+02
519             	3.94278348e+02
520             	3.94305734e+02
521             	3.94333052e+02
522             	3.94358644e+02
523             	3.94380509e+02
524             	3.94400202e+02
525             	3.94419183e+02
526             	3.94438315e+02
527             	3.94455447e+02
528             	3.94471806e+02
529             	3.94487989e+02
530             	3.94504147e+02
531             	3.94520414e+02
532             	3.94536963e+02
533             	3.94553889e+02
534             	3.94571126e+02
535             	3.94588650e+02
536             	3.94606464e+02
537             	3.94624694e+02
538             	3.94643507e+02
539             	3.94662890e+02
540             	3.94683021e+02
541             	3.94704168e+02
542             	3.94726542e+02
543             	3.94749967e+02
544             	3.94774309e+02
545             	3.94799591e+02
546             	3.94825601e+02
547             	3.94852131e+02
548             	3.94877400e+02
549             	3.94903222e+02
550             	3.94929267e+02
551             	3.94954996e+02
552             	3.94980415e+02
553             	3.95005421e+02
554             	3.95029893e+02
555             	3.95053729e+02
556             	3.95076674e+02
557             	3.95098492e+02
558             	3.95118952e+02
559             	3.95137789e+02
560             	3.95154879e+02
561             	3.95170027e+02
562             	3.95183523e+02
563             	3.95195502e+02
564             	3.95206725e+02
565             	3.95217590e+02
566             	3.95228234e+02
567             	3.95238741e+02
568             	3.95249640e+02
569             	3.95261256e+02
570             	3.95273966e+02
571             	3.95288270e+02
572             	3.95304629e+02
573             	3.95323147e+02
574             	3.95343479e+02
575             	3.95365486e+02
576             	3.95388933e+02
577             	3.95411220e+02
578             	3.95432686e+02
579             	3.95454986e+02
580             	3.95477768e+02
581             	3.95499733e+02
582             	3.95521143e+02
583             	3.95542288e+02
584             	3.95563257e+02
585             	3.95583911e+02
586             	3.95603934e+02
587             	3.95622712e+02
588             	3.95639721e+02
589             	3.95657469e+02
590             	3.95673971e+02
591             	3.95689251e+02
592             	3.95704272e+02
593             	3.95718310e+02
594             	3.95731626e+02
595             	3.95744621e+02
596             	3.95757632e+02
597             	3.95771112e+02
598             	3.95785007e+02
599             	3.95799237e+02
600             	3.95813910e+02
601             	3.95829207e+02
602             	3.95845200e+02
603             	3.95861785e+02
604             	3.95878858e+02
605             	3.95896071e+02
606             	3.95913171e+02
607             	3.95929950e+02
608             	3.95946137e+02
609             	3.95961421e+02
610             	3.95975514e+02
611             	3.95988162e+02
612             	3.95999542e+02
613             	3.96010171e+02
614             	3.96020515e+02
615             	3.96030513e+02
616             	3.96040745e+02
617             	3.96051667e+02
618             	3.96064255e+02
619             	3.96078639e+02
620             	3.96095261e+02
621             	3.96113617e+02
