# Region        : cellZone pcb
# Cells         : 540
# Volume        : 8.85435756e-01
# Time          	volAverage(T)
1               	3.00009466e+02
2               	3.00027501e+02
3               	3.00052593e+02
4               	3.00084014e+02
5               	3.00120646e+02
6               	3.00162378e+02
7               	3.00209196e+02
8               	3.00260545e+02
9               	3.00315928e+02
10              	3.00375574e+02
11              	3.00438911e+02
12              	3.00505559e+02
13              	3.00575825e+02
14              	3.00647907e+02
15              	3.00722797e+02
16              	3.00799911e+02
17              	3.00878949e+02
18              	3.00960327e+02
19              	3.01043221e+02
20              	3.01128558e+02
21              	3.01215382e+02
22              	3.01304021e+02
23              	3.01394430e+02
24              	3.01486122e+02
25              	3.01578830e+02
26              	3.01672430e+02
27              	3.01767707e+02
28              	3.01864481e+02
29              	3.01962626e+02
30              	3.02061231e+02
31              	3.02159487e+02
32              	3.02258016e+02
33              	3.02356285e+02
34              	3.02455210e+02
35              	3.02553911e+02
36              	3.02652478e+02
37              	3.02749744e+02
38              	3.02846351e+02
39              	3.02943769e+02
40              	3.03041444e+02
41              	3.03138429e+02
42              	3.03235332e+02
43              	3.03332050e+02
44              	3.03428816e+02
45              	3.03524234e+02
46              	3.03618483e+02
47              	3.03711713e+02
48              	3.03805208e+02
49              	3.03896102e+02
50              	3.03985323e+02
51              	3.04072453e+02
52              	3.04160609e+02
53              	3.04248750e+02
54              	3.04336596e+02
55              	3.04424942e+02
56              	3.04511634e+02
57              	3.04598789e+02
58              	3.04685854e+02
59              	3.04770493e+02
60              	3.04851890e+02
61              	3.04932109e+02
62              	3.05011816e+02
63              	3.05088411e+02
64              	3.05163303e+02
65              	3.05236835e+02
66              	3.05311128e+02
67              	3.05385071e+02
68              	3.05458668e+02
69              	3.05532138e+02
70              	3.05605226e+02
71              	3.05676433e+02
72              	3.05746811e+02
73              	3.05816639e+02
74              	3.05884711e+02
75              	3.05951153e+02
76              	3.06015708e+02
77              	3.06079392e+02
78              	3.06142089e+02
79              	3.06204355e+02
80              	3.06264667e+02
81              	3.06322369e+02
82              	3.06380703e+02
83              	3.06438880e+02
84              	3.06496083e+02
85              	3.06552903e+02
86              	3.06609256e+02
87              	3.06665319e+02
88              	3.06720532e+02
89              	3.06775269e+02
90              	3.06827688e+02
91              	3.06879644e+02
92              	3.06930136e+02
93              	3.06979481e+02
94              	3.07027319e+02
95              	3.07074218e+02
96              	3.07119560e+02
97              	3.07163868e+02
98              	3.07207589e+02
99              	3.07251863e+02
100             	3.07294777e+02
101             	3.07336802e+02
102             	3.07378542e+02
103             	3.07420462e+02
104             	3.07462015e+02
105             	3.07503285e+02
106             	3.07544503e+02
107             	3.07585295e+02
108             	3.07624795e+02
109             	3.07663015e+02
110             	3.07699770e+02
111             	3.07735522e+02
112             	3.07770474e+02
113             	3.07804813e+02
114             	3.07838134e+02
115             	3.07870640e+02
116             	3.07902598e+02
117             	3.07934040e+02
118             	3.07964800e+02
119             	3.07995072e+02
120             	3.08024269e+02
121             	3.08052565e+02
122             	3.08080359e+02
123             	3.08107821e+02
124             	3.08135038e+02
125             	3.08161477e+02
126             	3.08187612e+02
127             	3.08214068e+02
128             	3.08240564e+02
129             	3.08266731e+02
130             	3.08292507e+02
131             	3.08317226e+02
132             	3.08340870e+02
133             	3.08364200e+02
134             	3.08387349e+02
135             	3.08409557e+02
136             	3.08431232e+02
137             	3.08451528e+02
138             	3.08471024e+02
139             	3.08490107e+02
140             	3.08509111e+02
141             	3.08528056e+02
142             	3.08546575e+02
143             	3.08564744e+02
144             	3.08583024e+02
145             	3.08601331e+02
146             	3.08619441e+02
147             	3.08637305e+02
148             	3.08654797e+02
149             	3.08671743e+02
150             	3.08688576e+02
151             	3.08705113e+02
152             	3.08721554e+02
153             	3.08737587e+02
154             	3.08753047e+02
155             	3.08767954e+02
156             	3.08782557e+02
157             	3.08796475e+02
158             	3.08809469e+02
159             	3.08822249e+02
160             	3.08835470e+02
161             	3.08848528e+02
162             	3.08861359e+02
163             	3.08874047e+02
164             	3.08886798e+02
165             	3.08899522e+02
166             	3.08912077e+02
167             	3.08924368e+02
168             	3.08936237e+02
169             	3.08947908e+02
170             	3.08959852e+02
171             	3.08971624e+02
172             	3.08983293e+02
173             	3.08994606e+02
174             	3.09005591e+02
175             	3.09016363e+02
176             	3.09025751e+02
177             	3.09034313e+02
178             	3.09043119e+02
179             	3.09052012e+02
180             	3.09061134e+02
181             	3.09070477e+02
182             	3.09080314e+02
183             	3.09090428e+02
184             	3.09100527e+02
185             	3.09109967e+02
186             	3.09118838e+02
187             	3.09127394e+02
188             	3.09134839e+02
189             	3.09141374e+02
190             	3.09148009e+02
191             	3.09154948e+02
192             	3.09162049e+02
193             	3.09169312e+02
194             	3.09176502e+02
195             	3.09183751e+02
196             	3.09191255e+02
197             	3.09198793e+02
198             	3.09206093e+02
199             	3.09213045e+02
200             	3.09219822e+02
201             	3.09226107e+02
202             	3.09232081e+02
203             	3.09237947e+02
204             	3.09243614e+02
205             	3.09249075e+02
206             	3.09254563e+02
207             	3.09260120e+02
208             	3.09265724e+02
209             	3.09271381e+02
210             	3.09277079e+02
211             	3.09282791e+02
212             	3.09288367e+02
213             	3.09293930e+02
214             	3.09299464e+02
215             	3.09304789e+02
216             	3.09310107e+02
217             	3.09315300e+02
218             	3.09320339e+02
219             	3.09325178e+02
220             	3.09329804e+02
221             	3.09334220e+02
222             	3.09338523e+02
223             	3.09342645e+02
224             	3.09346609e+02
225             	3.09350582e+02
226             	3.09354650e+02
227             	3.09358786e+02
228             	3.09362964e+02
229             	3.09367141e+02
230             	3.09371182e+02
231             	3.09375210e+02
232             	3.09379310e+02
233             	3.09383339e+02
234             	3.09387212e+02
235             	3.09390891e+02
236             	3.09394507e+02
237             	3.09398148e+02
238             	3.09401236e+02
239             	3.09404040e+02
240             	3.09406898e+02
241             	3.09409897e+02
242             	3.09412987e+02
243             	3.09416139e+02
244             	3.09419295e+02
245             	3.09422423e+02
246             	3.09425505e+02
247             	3.09428562e+02
248             	3.09431540e+02
249             	3.09434384e+02
250             	3.09437088e+02
251             	3.09439722e+02
252             	3.09442297e+02
253             	3.09444857e+02
254             	3.09447212e+02
255             	3.09449473e+02
256             	3.09451775e+02
257             	3.09454127e+02
258             	3.09456526e+02
259             	3.09458926e+02
260             	3.09461315e+02
261             	3.09463672e+02
262             	3.09465996e+02
263             	3.09468314e+02
264             	3.09470559e+02
265             	3.09472706e+02
266             	3.09474766e+02
267             	3.09476746e+02
268             	3.09478647e+02
269             	3.09480472e+02
270             	3.09482232e+02
271             	3.09483978e+02
272             	3.09485787e+02
273             	3.09487465e+02
274             	3.09489132e+02
275             	3.09490857e+02
276             	3.09492635e+02
277             	3.09494439e+02
278             	3.09496223e+02
279             	3.09497927e+02
280             	3.09499676e+02
281             	3.09501398e+02
282             	3.09503048e+02
283             	3.09504593e+02
284             	3.09506021e+02
285             	3.09507395e+02
286             	3.09508747e+02
287             	3.09510074e+02
288             	3.09511369e+02
289             	3.09512751e+02
290             	3.09513964e+02
291             	3.09515141e+02
292             	3.09516340e+02
293             	3.09517570e+02
294             	3.09518830e+02
295             	3.09520090e+02
296             	3.09521334e+02
297             	3.09522549e+02
298             	3.09523742e+02
299             	3.09524954e+02
300             	3.09526172e+02
301             	3.09527365e+02
302             	3.09528534e+02
303             	3.09529632e+02
304             	3.09530665e+02
305             	3.09531652e+02
306             	3.09532598e+02
307             	3.09533518e+02
308             	3.09534414e+02
309             	3.09535300e+02
310             	3.09536170e+02
311             	3.09537048e+02
312             	3.09537925e+02
313             	3.09538765e+02
314             	3.09539607e+02
315             	3.09540453e+02
316             	3.09541320e+02
317             	3.09542209e+02
318             	3.09543088e+02
319             	3.09543974e+02
320             	3.09544840e+02
321             	3.09545667e+02
322             	3.09546467e+02
323             	3.09547246e+02
324             	3.09547996e+02
325             	3.09548712e+02
326             	3.09549391e+02
327             	3.09550060e+02
328             	3.09550713e+02
329             	3.09551349e+02
330             	3.09551968e+02
331             	3.09552584e+02
332             	3.09553192e+02
333             	3.09553773e+02
334             	3.09554346e+02
335             	3.09554928e+02
336             	3.09555511e+02
337             	3.09556093e+02
338             	3.09556674e+02
339             	3.09557250e+02
340             	3.09557819e+02
341             	3.09558379e+02
342             	3.09558931e+02
343             	3.09559473e+02
344             	3.09560007e+02
345             	3.09560535e+02
346             	3.09561048e+02
347             	3.09561544e+02
348             	3.09562042e+02
349             	3.09562533e+02
350             	3.09563013e+02
351             	3.09563478e+02
352             	3.09563928e+02
353             	3.09564364e+02
354             	3.09564797e+02
355             	3.09565218e+02
356             	3.09565633e+02
357             	3.09566040e+02
358             	3.09566447e+02
359             	3.09566858e+02
360             	3.09567270e+02
361             	3.09567681e+02
362             	3.09568084e+02
363             	3.09568477e+02
364             	3.09568868e+02
365             	3.09569254e+02
366             	3.09569632e+02
367             	3.09569993e+02
368             	3.09570337e+02
369             	3.09570664e+02
370             	3.09570977e+02
371             	3.09571283e+02
372             	3.09571575e+02
373             	3.09571852e+02
374             	3.09572130e+02
375             	3.09572412e+02
376             	3.09572701e+02
377             	3.09572988e+02
378             	3.09573278e+02
379             	3.09573573e+02
380             	3.09573862e+02
381             	3.09574137e+02
382             	3.09574398e+02
383             	3.09574648e+02
384             	3.09574880e+02
385             	3.09575100e+02
386             	3.09575322e+02
387             	3.09575549e+02
388             	3.09575772e+02
389             	3.09576007e+02
390             	3.09576242e+02
391             	3.09576473e+02
392             	3.09576696e+02
393             	3.09576909e+02
394             	3.09577118e+02
395             	3.09577317e+02
396             	3.09577509e+02
397             	3.09577694e+02
398             	3.09577875e+02
399             	3.09578055e+02
400             	3.09578234e+02
401             	3.09578412e+02
402             	3.09578587e+02
403             	3.09578761e+02
404             	3.09578935e+02
405             	3.09579108e+02
406             	3.09579280e+02
407             	3.09579450e+02
408             	3.09579619e+02
409             	3.09579785e+02
410             	3.09579948e+02
411             	3.09580104e+02
412             	3.09580263e+02
413             	3.09580418e+02
414             	3.09580568e+02
415             	3.09580711e+02
416             	3.09580846e+02
417             	3.09580976e+02
418             	3.09581100e+02
419             	3.09581221e+02
420             	3.09581341e+02
421             	3.09581459e+02
422             	3.09581580e+02
423             	3.09581695e+02
424             	3.09581804e+02
425             	3.09581915e+02
426             	3.09582029e+02
427             	3.09582140e+02
428             	3.09582252e+02
429             	3.09582368e+02
430             	3.09582481e+02
431             	3.09582587e+02
432             	3.09582688e+02
433             	3.09582782e+02
434             	3.09582868e+02
435             	3.09582949e+02
436             	3.09583030e+02
437             	3.09583113e+02
438             	3.09583197e+02
439             	3.09583283e+02
440             	3.09583371e+02
441             	3.09583458e+02
442             	3.09583544e+02
443             	3.09583628e+02
444             	3.09583709e+02
445             	3.09583788e+02
446             	3.09583865e+02
447             	3.09583940e+02
448             	3.09584015e+02
449             	3.09584089e+02
450             	3.09584161e+02
451             	3.09584231e+02
452             	3.09584299e+02
453             	3.09584365e+02
454             	3.09584428e+02
455             	3.09584489e+02
456             	3.09584547e+02
457             	3.09584605e+02
458             	3.09584662e+02
459             	3.09584719e+02
460             	3.09584776e+02
461             	3.09584833e+02
462             	3.09584890e+02
463             	3.09584947e+02
464             	3.09585016e+02
465             	3.09585087e+02
466             	3.09585157e+02
467             	3.09585225e+02
468             	3.09585281e+02
469             	3.09585333e+02
470             	3.09585386e+02
471             	3.09585441e+02
472             	3.09585498e+02
473             	3.09585554e+02
474             	3.09585608e+02
475             	3.09585656e+02
476             	3.09585699e+02
477             	3.09585743e+02
478             	3.09585785e+02
479             	3.09585828e+02
480             	3.09585866e+02
481             	3.09585906e+02
482             	3.09585947e+02
483             	3.09585987e+02
484             	3.09586030e+02
485             	3.09586070e+02
486             	3.09586110e+02
487             	3.09586150e+02
488             	3.09586186e+02
489             	3.09586217e+02
490             	3.09586246e+02
491             	3.09586275e+02
492             	3.09586305e+02
493             	3.09586332e+02
494             	3.09586360e+02
495             	3.09586387e+02
496             	3.09586414e+02
497             	3.09586442e+02
498             	3.09586471e+02
499             	3.09586500e+02
500             	3.09586527e+02
501             	3.09586554e+02
502             	3.09586578e+02
503             	3.09586599e+02
504             	3.09586619e+02
505             	3.09586641e+02
506             	3.09586663e+02
507             	3.09586686e+02
508             	3.09586710e+02
509             	3.09586735e+02
510             	3.09586757e+02
511             	3.09586779e+02
512             	3.09586801e+02
513             	3.09586822e+02
514             	3.09586843e+02
515             	3.09586863e+02
516             	3.09586883e+02
517             	3.09586901e+02
518             	3.09586919e+02
519             	3.09586937e+02
520             	3.09586954e+02
521             	3.09586971e+02
522             	3.09586989e+02
523             	3.09587005e+02
524             	3.09587021e+02
525             	3.09587036e+02
526             	3.09587050e+02
527             	3.09587063e+02
528             	3.09587075e+02
529             	3.09587089e+02
530             	3.09587103e+02
531             	3.09587118e+02
532             	3.09587132e+02
533             	3.09587146e+02
534             	3.09587160e+02
535             	3.09587174e+02
536             	3.09587187e+02
537             	3.09587198e+02
538             	3.09587210e+02
539             	3.09587222e+02
540             	3.09587233e+02
541             	3.09587245e+02
542             	3.09587256e+02
543             	3.09587268e+02
544             	3.09587278e+02
545             	3.09587289e+02
546             	3.09587298e+02
547             	3.09587306e+02
548             	3.09587313e+02
549             	3.09587321e+02
550             	3.09587329e+02
551             	3.09587337e+02
552             	3.09587345e+02
553             	3.09587353e+02
554             	3.09587360e+02
555             	3.09587368e+02
556             	3.09587377e+02
557             	3.09587386e+02
558             	3.09587394e+02
559             	3.09587403e+02
560             	3.09587411e+02
561             	3.09587419e+02
562             	3.09587427e+02
563             	3.09587434e+02
564             	3.09587442e+02
565             	3.09587449e+02
566             	3.09587457e+02
567             	3.09587464e+02
568             	3.09587472e+02
569             	3.09587479e+02
570             	3.09587486e+02
571             	3.09587493e+02
572             	3.09587500e+02
573             	3.09587506e+02
574             	3.09587512e+02
575             	3.09587518e+02
576             	3.09587524e+02
577             	3.09587529e+02
578             	3.09587533e+02
579             	3.09587538e+02
580             	3.09587543e+02
581             	3.09587548e+02
582             	3.09587552e+02
583             	3.09587557e+02
584             	3.09587561e+02
585             	3.09587565e+02
586             	3.09587570e+02
587             	3.09587575e+02
588             	3.09587580e+02
589             	3.09587584e+02
590             	3.09587589e+02
591             	3.09587594e+02
592             	3.09587598e+02
593             	3.09587603e+02
594             	3.09587607e+02
595             	3.09587610e+02
596             	3.09587614e+02
597             	3.09587617e+02
598             	3.09587621e+02
599             	3.09587624e+02
600             	3.09587628e+02
601             	3.09587632e+02
602             	3.09587635e+02
603             	3.09587639e+02
604             	3.09587643e+02
605             	3.09587647e+02
606             	3.09587651e+02
607             	3.09587655e+02
608             	3.09587658e+02
609             	3.09587662e+02
610             	3.09587666e+02
611             	3.09587670e+02
612             	3.09587673e+02
613             	3.09587677e+02
614             	3.09587680e+02
615             	3.09587684e+02
616             	3.09587687e+02
617             	3.09587690e+02
618             	3.09587694e+02
619             	3.09587697e+02
620             	3.09587700e+02
621             	3.09587704e+02
