# Region        : cellZone component_4
# Cells         : 131
# Volume        : 2.25618681e-01
# Time          	volAverage(T)
1               	3.00516499e+02
2               	3.01025086e+02
3               	3.01497130e+02
4               	3.01944255e+02
5               	3.02376205e+02
6               	3.02797428e+02
7               	3.03209720e+02
8               	3.03616426e+02
9               	3.04021621e+02
10              	3.04419173e+02
11              	3.04809286e+02
12              	3.05189680e+02
13              	3.05549788e+02
14              	3.05889711e+02
15              	3.06238648e+02
16              	3.06580457e+02
17              	3.06915242e+02
18              	3.07238248e+02
19              	3.07552574e+02
20              	3.07874536e+02
21              	3.08189947e+02
22              	3.08500830e+02
23              	3.08809128e+02
24              	3.09110339e+02
25              	3.09413557e+02
26              	3.09708636e+02
27              	3.09997655e+02
28              	3.10279809e+02
29              	3.10549564e+02
30              	3.10812028e+02
31              	3.11059457e+02
32              	3.11298944e+02
33              	3.11531408e+02
34              	3.11756605e+02
35              	3.11966930e+02
36              	3.12170815e+02
37              	3.12365260e+02
38              	3.12552723e+02
39              	3.12735889e+02
40              	3.12916653e+02
41              	3.13093025e+02
42              	3.13265382e+02
43              	3.13438374e+02
44              	3.13612260e+02
45              	3.13789376e+02
46              	3.13972137e+02
47              	3.14162689e+02
48              	3.14358071e+02
49              	3.14563170e+02
50              	3.14773665e+02
51              	3.14990119e+02
52              	3.15201922e+02
53              	3.15409824e+02
54              	3.15612696e+02
55              	3.15807657e+02
56              	3.15993695e+02
57              	3.16171573e+02
58              	3.16339706e+02
59              	3.16501331e+02
60              	3.16652980e+02
61              	3.16796333e+02
62              	3.16933214e+02
63              	3.17062599e+02
64              	3.17184943e+02
65              	3.17303145e+02
66              	3.17417264e+02
67              	3.17528458e+02
68              	3.17637116e+02
69              	3.17741989e+02
70              	3.17848549e+02
71              	3.17955997e+02
72              	3.18063443e+02
73              	3.18171121e+02
74              	3.18278909e+02
75              	3.18390730e+02
76              	3.18505799e+02
77              	3.18625566e+02
78              	3.18748366e+02
79              	3.18877063e+02
80              	3.19006657e+02
81              	3.19135734e+02
82              	3.19266305e+02
83              	3.19393545e+02
84              	3.19514226e+02
85              	3.19632837e+02
86              	3.19747977e+02
87              	3.19860518e+02
88              	3.19966873e+02
89              	3.20066452e+02
90              	3.20159120e+02
91              	3.20248023e+02
92              	3.20331838e+02
93              	3.20413192e+02
94              	3.20494434e+02
95              	3.20575127e+02
96              	3.20655842e+02
97              	3.20734515e+02
98              	3.20812251e+02
99              	3.20888501e+02
100             	3.20965462e+02
101             	3.21044226e+02
102             	3.21122926e+02
103             	3.21192384e+02
104             	3.21263218e+02
105             	3.21329150e+02
106             	3.21392116e+02
107             	3.21452214e+02
108             	3.21513799e+02
109             	3.21576088e+02
110             	3.21639109e+02
111             	3.21700872e+02
112             	3.21759568e+02
113             	3.21819592e+02
114             	3.21876117e+02
115             	3.21932050e+02
116             	3.21989102e+02
117             	3.22046677e+02
118             	3.22105919e+02
119             	3.22166600e+02
120             	3.22221612e+02
121             	3.22276156e+02
122             	3.22327919e+02
123             	3.22375461e+02
124             	3.22419405e+02
125             	3.22460371e+02
126             	3.22500459e+02
127             	3.22540700e+02
128             	3.22581209e+02
129             	3.22622491e+02
130             	3.22666856e+02
131             	3.22713271e+02
132             	3.22761661e+02
133             	3.22811716e+02
134             	3.22861733e+02
135             	3.22912315e+02
136             	3.22964329e+02
137             	3.23016623e+02
138             	3.23067218e+02
139             	3.23115406e+02
140             	3.23161913e+02
141             	3.23204169e+02
142             	3.23243194e+02
143             	3.23280596e+02
144             	3.23317665e+02
145             	3.23353998e+02
146             	3.23390586e+02
147             	3.23426859e+02
148             	3.23463586e+02
149             	3.23501989e+02
150             	3.23542629e+02
151             	3.23582467e+02
152             	3.23623473e+02
153             	3.23664188e+02
154             	3.23706933e+02
155             	3.23742980e+02
156             	3.23775140e+02
157             	3.23805145e+02
158             	3.23832050e+02
159             	3.23856643e+02
160             	3.23878032e+02
161             	3.23898121e+02
162             	3.23918454e+02
163             	3.23940895e+02
164             	3.23967390e+02
165             	3.23994929e+02
166             	3.24025112e+02
167             	3.24058831e+02
168             	3.24092972e+02
169             	3.24131370e+02
170             	3.24170329e+02
171             	3.24209490e+02
172             	3.24245676e+02
173             	3.24281703e+02
174             	3.24315043e+02
175             	3.24348657e+02
176             	3.24381931e+02
177             	3.24414313e+02
178             	3.24446606e+02
179             	3.24478622e+02
180             	3.24509775e+02
181             	3.24540107e+02
182             	3.24569456e+02
183             	3.24597615e+02
184             	3.24624285e+02
185             	3.24649427e+02
186             	3.24672072e+02
187             	3.24691281e+02
188             	3.24707274e+02
189             	3.24719938e+02
190             	3.24729119e+02
191             	3.24736077e+02
192             	3.24737561e+02
193             	3.24740724e+02
194             	3.24745485e+02
195             	3.24749815e+02
196             	3.24758646e+02
197             	3.24772104e+02
198             	3.24787231e+02
199             	3.24803236e+02
200             	3.24821117e+02
201             	3.24841446e+02
202             	3.24864101e+02
203             	3.24888583e+02
204             	3.24915074e+02
205             	3.24942889e+02
206             	3.24970570e+02
207             	3.24996904e+02
208             	3.25022843e+02
209             	3.25047414e+02
210             	3.25071624e+02
211             	3.25094490e+02
212             	3.25117347e+02
213             	3.25139352e+02
214             	3.25159060e+02
215             	3.25176633e+02
216             	3.25191396e+02
217             	3.25204190e+02
218             	3.25216347e+02
219             	3.25225718e+02
220             	3.25234373e+02
221             	3.25243614e+02
222             	3.25253305e+02
223             	3.25263712e+02
224             	3.25275674e+02
225             	3.25289241e+02
226             	3.25303568e+02
227             	3.25318781e+02
228             	3.25335520e+02
229             	3.25353580e+02
230             	3.25373829e+02
231             	3.25395717e+02
232             	3.25418800e+02
233             	3.25442179e+02
234             	3.25465419e+02
235             	3.25488233e+02
236             	3.25509978e+02
237             	3.25530755e+02
238             	3.25550951e+02
239             	3.25571446e+02
240             	3.25591897e+02
241             	3.25612205e+02
242             	3.25633548e+02
243             	3.25655810e+02
244             	3.25677116e+02
245             	3.25698112e+02
246             	3.25718811e+02
247             	3.25738245e+02
248             	3.25756576e+02
249             	3.25773996e+02
250             	3.25790812e+02
251             	3.25806638e+02
252             	3.25821414e+02
253             	3.25834987e+02
254             	3.25846607e+02
255             	3.25856924e+02
256             	3.25865906e+02
257             	3.25873313e+02
258             	3.25880345e+02
259             	3.25887722e+02
260             	3.25895403e+02
261             	3.25901618e+02
262             	3.25908473e+02
263             	3.25916782e+02
264             	3.25926323e+02
265             	3.25937683e+02
266             	3.25950231e+02
267             	3.25964022e+02
268             	3.25979268e+02
269             	3.25994349e+02
270             	3.26010659e+02
271             	3.26027048e+02
272             	3.26044295e+02
273             	3.26062313e+02
274             	3.26080326e+02
275             	3.26097906e+02
276             	3.26114621e+02
277             	3.26130461e+02
278             	3.26145179e+02
279             	3.26158888e+02
280             	3.26170491e+02
281             	3.26181640e+02
282             	3.26192473e+02
283             	3.26200405e+02
284             	3.26207038e+02
285             	3.26212560e+02
286             	3.26216699e+02
287             	3.26219842e+02
288             	3.26222246e+02
289             	3.26224170e+02
290             	3.26226231e+02
291             	3.26228074e+02
292             	3.26229792e+02
293             	3.26232341e+02
294             	3.26235582e+02
295             	3.26239644e+02
296             	3.26246331e+02
297             	3.26255054e+02
298             	3.26265851e+02
299             	3.26277288e+02
300             	3.26291483e+02
301             	3.26307878e+02
302             	3.26326858e+02
303             	3.26348133e+02
304             	3.26370479e+02
305             	3.26393377e+02
306             	3.26415318e+02
307             	3.26436437e+02
308             	3.26457094e+02
309             	3.26477537e+02
310             	3.26497738e+02
311             	3.26517617e+02
312             	3.26536997e+02
313             	3.26555581e+02
314             	3.26572956e+02
315             	3.26589639e+02
316             	3.26606059e+02
317             	3.26622019e+02
318             	3.26637028e+02
319             	3.26651008e+02
320             	3.26663909e+02
321             	3.26676175e+02
322             	3.26687066e+02
323             	3.26696907e+02
324             	3.26704862e+02
325             	3.26711994e+02
326             	3.26717332e+02
327             	3.26721410e+02
328             	3.26724316e+02
329             	3.26726262e+02
330             	3.26727194e+02
331             	3.26727961e+02
332             	3.26729741e+02
333             	3.26730536e+02
334             	3.26731338e+02
335             	3.26732572e+02
336             	3.26734700e+02
337             	3.26737902e+02
338             	3.26742206e+02
339             	3.26747837e+02
340             	3.26754601e+02
341             	3.26762448e+02
342             	3.26771324e+02
343             	3.26781475e+02
344             	3.26793271e+02
345             	3.26805865e+02
346             	3.26819426e+02
347             	3.26833368e+02
348             	3.26847478e+02
349             	3.26861232e+02
350             	3.26874229e+02
351             	3.26886611e+02
352             	3.26897941e+02
353             	3.26908427e+02
354             	3.26918073e+02
355             	3.26926581e+02
356             	3.26933887e+02
357             	3.26940083e+02
358             	3.26946986e+02
359             	3.26952437e+02
360             	3.26956970e+02
361             	3.26960624e+02
362             	3.26963541e+02
363             	3.26967909e+02
364             	3.26970136e+02
365             	3.26973022e+02
366             	3.26977224e+02
367             	3.26982786e+02
368             	3.26989154e+02
369             	3.26994288e+02
370             	3.26999893e+02
371             	3.27004738e+02
372             	3.27010546e+02
373             	3.27016780e+02
374             	3.27022622e+02
375             	3.27026990e+02
376             	3.27031307e+02
377             	3.27036266e+02
378             	3.27043254e+02
379             	3.27051172e+02
380             	3.27058567e+02
381             	3.27065241e+02
382             	3.27071167e+02
383             	3.27076172e+02
384             	3.27080036e+02
385             	3.27082849e+02
386             	3.27084507e+02
387             	3.27085887e+02
388             	3.27085655e+02
389             	3.27083941e+02
390             	3.27081150e+02
391             	3.27077233e+02
392             	3.27072512e+02
393             	3.27066699e+02
394             	3.27060292e+02
395             	3.27053847e+02
396             	3.27046691e+02
397             	3.27039491e+02
398             	3.27032518e+02
399             	3.27026093e+02
400             	3.27020484e+02
401             	3.27015891e+02
402             	3.27012604e+02
403             	3.27010771e+02
404             	3.27010505e+02
405             	3.27012634e+02
406             	3.27015419e+02
407             	3.27018662e+02
408             	3.27023337e+02
409             	3.27029483e+02
410             	3.27035286e+02
411             	3.27042096e+02
412             	3.27047907e+02
413             	3.27053688e+02
414             	3.27059908e+02
415             	3.27065965e+02
416             	3.27071019e+02
417             	3.27074319e+02
418             	3.27076046e+02
419             	3.27076902e+02
420             	3.27076874e+02
421             	3.27076258e+02
422             	3.27075644e+02
423             	3.27076158e+02
424             	3.27076919e+02
425             	3.27076774e+02
426             	3.27076770e+02
427             	3.27076717e+02
428             	3.27076038e+02
429             	3.27075032e+02
430             	3.27074130e+02
431             	3.27073312e+02
432             	3.27073357e+02
433             	3.27074079e+02
434             	3.27075055e+02
435             	3.27076136e+02
436             	3.27077046e+02
437             	3.27077610e+02
438             	3.27077364e+02
439             	3.27076474e+02
440             	3.27075444e+02
441             	3.27073893e+02
442             	3.27072198e+02
443             	3.27071443e+02
444             	3.27071295e+02
445             	3.27072060e+02
446             	3.27074182e+02
447             	3.27077345e+02
448             	3.27081546e+02
449             	3.27086494e+02
450             	3.27091652e+02
451             	3.27096800e+02
452             	3.27101757e+02
453             	3.27105766e+02
454             	3.27108861e+02
455             	3.27111006e+02
456             	3.27112223e+02
457             	3.27113030e+02
458             	3.27113641e+02
459             	3.27114105e+02
460             	3.27114863e+02
461             	3.27115848e+02
462             	3.27117007e+02
463             	3.27118280e+02
464             	3.27119538e+02
465             	3.27121245e+02
466             	3.27123190e+02
467             	3.27125024e+02
468             	3.27126852e+02
469             	3.27127945e+02
470             	3.27128731e+02
471             	3.27129152e+02
472             	3.27129168e+02
473             	3.27128575e+02
474             	3.27127461e+02
475             	3.27126046e+02
476             	3.27124395e+02
477             	3.27122920e+02
478             	3.27121759e+02
479             	3.27120526e+02
480             	3.27119121e+02
481             	3.27117591e+02
482             	3.27116468e+02
483             	3.27115540e+02
484             	3.27114730e+02
485             	3.27114099e+02
486             	3.27113881e+02
487             	3.27114275e+02
488             	3.27115464e+02
489             	3.27117483e+02
490             	3.27120216e+02
491             	3.27123833e+02
492             	3.27128182e+02
493             	3.27133047e+02
494             	3.27138614e+02
495             	3.27144700e+02
496             	3.27151768e+02
497             	3.27158726e+02
498             	3.27165915e+02
499             	3.27172681e+02
500             	3.27179313e+02
501             	3.27185730e+02
502             	3.27191841e+02
503             	3.27197554e+02
504             	3.27202889e+02
505             	3.27207820e+02
506             	3.27211631e+02
507             	3.27214430e+02
508             	3.27216902e+02
509             	3.27219155e+02
510             	3.27221622e+02
511             	3.27223745e+02
512             	3.27225361e+02
513             	3.27226485e+02
514             	3.27227218e+02
515             	3.27227134e+02
516             	3.27226797e+02
517             	3.27225701e+02
518             	3.27225332e+02
519             	3.27225368e+02
520             	3.27225406e+02
521             	3.27225259e+02
522             	3.27224798e+02
523             	3.27224001e+02
524             	3.27223596e+02
525             	3.27222871e+02
526             	3.27222091e+02
527             	3.27221508e+02
528             	3.27221522e+02
529             	3.27222274e+02
530             	3.27223716e+02
531             	3.27225818e+02
532             	3.27227975e+02
533             	3.27230168e+02
534             	3.27232715e+02
535             	3.27235616e+02
536             	3.27238031e+02
537             	3.27239808e+02
538             	3.27240962e+02
539             	3.27240770e+02
540             	3.27239243e+02
541             	3.27236345e+02
542             	3.27232917e+02
543             	3.27229501e+02
544             	3.27224909e+02
545             	3.27219371e+02
546             	3.27213829e+02
547             	3.27208514e+02
548             	3.27203849e+02
549             	3.27200125e+02
550             	3.27197250e+02
551             	3.27195042e+02
552             	3.27193309e+02
553             	3.27191791e+02
554             	3.27189125e+02
555             	3.27186519e+02
556             	3.27183985e+02
557             	3.27181054e+02
558             	3.27177758e+02
559             	3.27174530e+02
560             	3.27171292e+02
561             	3.27168261e+02
562             	3.27165773e+02
563             	3.27165258e+02
564             	3.27166036e+02
565             	3.27167586e+02
566             	3.27169284e+02
567             	3.27170948e+02
568             	3.27171853e+02
569             	3.27172538e+02
570             	3.27173228e+02
571             	3.27173623e+02
572             	3.27173795e+02
573             	3.27173973e+02
574             	3.27174094e+02
575             	3.27174033e+02
576             	3.27173863e+02
577             	3.27174047e+02
578             	3.27174713e+02
579             	3.27176151e+02
580             	3.27178212e+02
581             	3.27181889e+02
582             	3.27187286e+02
583             	3.27192434e+02
584             	3.27197903e+02
585             	3.27203628e+02
586             	3.27208949e+02
587             	3.27213395e+02
588             	3.27215843e+02
589             	3.27216138e+02
590             	3.27214771e+02
591             	3.27213208e+02
592             	3.27211611e+02
593             	3.27210103e+02
594             	3.27208288e+02
595             	3.27205805e+02
596             	3.27203375e+02
597             	3.27201269e+02
598             	3.27198745e+02
599             	3.27196089e+02
600             	3.27193902e+02
601             	3.27192163e+02
602             	3.27190603e+02
603             	3.27189212e+02
604             	3.27187816e+02
605             	3.27186636e+02
606             	3.27185799e+02
607             	3.27184665e+02
608             	3.27183414e+02
609             	3.27182153e+02
610             	3.27180957e+02
611             	3.27180261e+02
612             	3.27179713e+02
613             	3.27179141e+02
614             	3.27178805e+02
615             	3.27178541e+02
616             	3.27179213e+02
617             	3.27179715e+02
618             	3.27179981e+02
619             	3.27180357e+02
620             	3.27181013e+02
621             	3.27181872e+02
