# Region        : cellZone component_2
# Cells         : 400
# Volume        : 7.59286034e-01
# Time          	volAverage(T)
1               	3.00056258e+02
2               	3.00112342e+02
3               	3.00166748e+02
4               	3.00219951e+02
5               	3.00272305e+02
6               	3.00324026e+02
7               	3.00375253e+02
8               	3.00426257e+02
9               	3.00477084e+02
10              	3.00527587e+02
11              	3.00577653e+02
12              	3.00627357e+02
13              	3.00676871e+02
14              	3.00726321e+02
15              	3.00775232e+02
16              	3.00823582e+02
17              	3.00871640e+02
18              	3.00919491e+02
19              	3.00966980e+02
20              	3.01014103e+02
21              	3.01060668e+02
22              	3.01106931e+02
23              	3.01152904e+02
24              	3.01198071e+02
25              	3.01242495e+02
26              	3.01286209e+02
27              	3.01329295e+02
28              	3.01372208e+02
29              	3.01414613e+02
30              	3.01457601e+02
31              	3.01500928e+02
32              	3.01544180e+02
33              	3.01586926e+02
34              	3.01629357e+02
35              	3.01671631e+02
36              	3.01713660e+02
37              	3.01755841e+02
38              	3.01797244e+02
39              	3.01838692e+02
40              	3.01879530e+02
41              	3.01919774e+02
42              	3.01959615e+02
43              	3.02000013e+02
44              	3.02039395e+02
45              	3.02076874e+02
46              	3.02112602e+02
47              	3.02146804e+02
48              	3.02180731e+02
49              	3.02216263e+02
50              	3.02251484e+02
51              	3.02286917e+02
52              	3.02323754e+02
53              	3.02360058e+02
54              	3.02396721e+02
55              	3.02434022e+02
56              	3.02470241e+02
57              	3.02506291e+02
58              	3.02541788e+02
59              	3.02577177e+02
60              	3.02612207e+02
61              	3.02646790e+02
62              	3.02681303e+02
63              	3.02715898e+02
64              	3.02750203e+02
65              	3.02783682e+02
66              	3.02816979e+02
67              	3.02850570e+02
68              	3.02883262e+02
69              	3.02916255e+02
70              	3.02949082e+02
71              	3.02981642e+02
72              	3.03013979e+02
73              	3.03045963e+02
74              	3.03077642e+02
75              	3.03109193e+02
76              	3.03140657e+02
77              	3.03171845e+02
78              	3.03202336e+02
79              	3.03232593e+02
80              	3.03263387e+02
81              	3.03292776e+02
82              	3.03322352e+02
83              	3.03351725e+02
84              	3.03382935e+02
85              	3.03411735e+02
86              	3.03440213e+02
87              	3.03468657e+02
88              	3.03497061e+02
89              	3.03525380e+02
90              	3.03553282e+02
91              	3.03581216e+02
92              	3.03608476e+02
93              	3.03635784e+02
94              	3.03663033e+02
95              	3.03690108e+02
96              	3.03717031e+02
97              	3.03743878e+02
98              	3.03770200e+02
99              	3.03796378e+02
100             	3.03822772e+02
101             	3.03849024e+02
102             	3.03875109e+02
103             	3.03900747e+02
104             	3.03926350e+02
105             	3.03951667e+02
106             	3.03977046e+02
107             	3.04002034e+02
108             	3.04026838e+02
109             	3.04051744e+02
110             	3.04076301e+02
111             	3.04100915e+02
112             	3.04125117e+02
113             	3.04149484e+02
114             	3.04172562e+02
115             	3.04195572e+02
116             	3.04219195e+02
117             	3.04243316e+02
118             	3.04268206e+02
119             	3.04293589e+02
120             	3.04319253e+02
121             	3.04344818e+02
122             	3.04370162e+02
123             	3.04395600e+02
124             	3.04420939e+02
125             	3.04446267e+02
126             	3.04471084e+02
127             	3.04495854e+02
128             	3.04520388e+02
129             	3.04544243e+02
130             	3.04567771e+02
131             	3.04591119e+02
132             	3.04614338e+02
133             	3.04637525e+02
134             	3.04660743e+02
135             	3.04683863e+02
136             	3.04706568e+02
137             	3.04729344e+02
138             	3.04751883e+02
139             	3.04774329e+02
140             	3.04796549e+02
141             	3.04818698e+02
142             	3.04840563e+02
143             	3.04862397e+02
144             	3.04884123e+02
145             	3.04905704e+02
146             	3.04927140e+02
147             	3.04948414e+02
148             	3.04969536e+02
149             	3.04990490e+02
150             	3.05011271e+02
151             	3.05031912e+02
152             	3.05052394e+02
153             	3.05072714e+02
154             	3.05092888e+02
155             	3.05112932e+02
156             	3.05132822e+02
157             	3.05152597e+02
158             	3.05172210e+02
159             	3.05191728e+02
160             	3.05211097e+02
161             	3.05230381e+02
162             	3.05249533e+02
163             	3.05268508e+02
164             	3.05287410e+02
165             	3.05306190e+02
166             	3.05324841e+02
167             	3.05343366e+02
168             	3.05361755e+02
169             	3.05379998e+02
170             	3.05398128e+02
171             	3.05416132e+02
172             	3.05434011e+02
173             	3.05451744e+02
174             	3.05469396e+02
175             	3.05486954e+02
176             	3.05504416e+02
177             	3.05521753e+02
178             	3.05538996e+02
179             	3.05556156e+02
180             	3.05573176e+02
181             	3.05589852e+02
182             	3.05606549e+02
183             	3.05623320e+02
184             	3.05639989e+02
185             	3.05656563e+02
186             	3.05673043e+02
187             	3.05689406e+02
188             	3.05705350e+02
189             	3.05721743e+02
190             	3.05737820e+02
191             	3.05753795e+02
192             	3.05769691e+02
193             	3.05785479e+02
194             	3.05801149e+02
195             	3.05816748e+02
196             	3.05832236e+02
197             	3.05847492e+02
198             	3.05862994e+02
199             	3.05878119e+02
200             	3.05893232e+02
201             	3.05908278e+02
202             	3.05923200e+02
203             	3.05938136e+02
204             	3.05952899e+02
205             	3.05967635e+02
206             	3.05982323e+02
207             	3.05996954e+02
208             	3.06011508e+02
209             	3.06025956e+02
210             	3.06040332e+02
211             	3.06054628e+02
212             	3.06068838e+02
213             	3.06082977e+02
214             	3.06096996e+02
215             	3.06110938e+02
216             	3.06124817e+02
217             	3.06138601e+02
218             	3.06152307e+02
219             	3.06165903e+02
220             	3.06179363e+02
221             	3.06192694e+02
222             	3.06205963e+02
223             	3.06219114e+02
224             	3.06232150e+02
225             	3.06244904e+02
226             	3.06257549e+02
227             	3.06270302e+02
228             	3.06282968e+02
229             	3.06295548e+02
230             	3.06308032e+02
231             	3.06320400e+02
232             	3.06332708e+02
233             	3.06344925e+02
234             	3.06357066e+02
235             	3.06369015e+02
236             	3.06380862e+02
237             	3.06392702e+02
238             	3.06404274e+02
239             	3.06415931e+02
240             	3.06427389e+02
241             	3.06438878e+02
242             	3.06450402e+02
243             	3.06461869e+02
244             	3.06473282e+02
245             	3.06484629e+02
246             	3.06495907e+02
247             	3.06507125e+02
248             	3.06518250e+02
249             	3.06529324e+02
250             	3.06540320e+02
251             	3.06551245e+02
252             	3.06562083e+02
253             	3.06572867e+02
254             	3.06583092e+02
255             	3.06593085e+02
256             	3.06603068e+02
257             	3.06612953e+02
258             	3.06622677e+02
259             	3.06632262e+02
260             	3.06641756e+02
261             	3.06651168e+02
262             	3.06660476e+02
263             	3.06669706e+02
264             	3.06678870e+02
265             	3.06687970e+02
266             	3.06697101e+02
267             	3.06706257e+02
268             	3.06715452e+02
269             	3.06724680e+02
270             	3.06733954e+02
271             	3.06743268e+02
272             	3.06752626e+02
273             	3.06762007e+02
274             	3.06771428e+02
275             	3.06780462e+02
276             	3.06789674e+02
277             	3.06798996e+02
278             	3.06808389e+02
279             	3.06817353e+02
280             	3.06826488e+02
281             	3.06835722e+02
282             	3.06844607e+02
283             	3.06853671e+02
284             	3.06862812e+02
285             	3.06871639e+02
286             	3.06880665e+02
287             	3.06889846e+02
288             	3.06898545e+02
289             	3.06907496e+02
290             	3.06916609e+02
291             	3.06925229e+02
292             	3.06934048e+02
293             	3.06942665e+02
294             	3.06951420e+02
295             	3.06959942e+02
296             	3.06968605e+02
297             	3.06977010e+02
298             	3.06985549e+02
299             	3.06993805e+02
300             	3.07002201e+02
301             	3.07010597e+02
302             	3.07018562e+02
303             	3.07026649e+02
304             	3.07034784e+02
305             	3.07042516e+02
306             	3.07050400e+02
307             	3.07058156e+02
308             	3.07065957e+02
309             	3.07073812e+02
310             	3.07081710e+02
311             	3.07089221e+02
312             	3.07096936e+02
313             	3.07104005e+02
314             	3.07111419e+02
315             	3.07118864e+02
316             	3.07126024e+02
317             	3.07133026e+02
318             	3.07139857e+02
319             	3.07146892e+02
320             	3.07153637e+02
321             	3.07160659e+02
322             	3.07167379e+02
323             	3.07174298e+02
324             	3.07180916e+02
325             	3.07187678e+02
326             	3.07194585e+02
327             	3.07201023e+02
328             	3.07207561e+02
329             	3.07213986e+02
330             	3.07220335e+02
331             	3.07226274e+02
332             	3.07232312e+02
333             	3.07238082e+02
334             	3.07244010e+02
335             	3.07249672e+02
336             	3.07255522e+02
337             	3.07261478e+02
338             	3.07267530e+02
339             	3.07273701e+02
340             	3.07279794e+02
341             	3.07285881e+02
342             	3.07292049e+02
343             	3.07297619e+02
344             	3.07303581e+02
345             	3.07309700e+02
346             	3.07315354e+02
347             	3.07321051e+02
348             	3.07326847e+02
349             	3.07332207e+02
350             	3.07337714e+02
351             	3.07343306e+02
352             	3.07348722e+02
353             	3.07353779e+02
354             	3.07359049e+02
355             	3.07364458e+02
356             	3.07369881e+02
357             	3.07374958e+02
358             	3.07380257e+02
359             	3.07385675e+02
360             	3.07390759e+02
361             	3.07396110e+02
362             	3.07401590e+02
363             	3.07406669e+02
364             	3.07411868e+02
365             	3.07417183e+02
366             	3.07422110e+02
367             	3.07427176e+02
368             	3.07432302e+02
369             	3.07437063e+02
370             	3.07442002e+02
371             	3.07446987e+02
372             	3.07451603e+02
373             	3.07456370e+02
374             	3.07461202e+02
375             	3.07465671e+02
376             	3.07470341e+02
377             	3.07475081e+02
378             	3.07479463e+02
379             	3.07484048e+02
380             	3.07488757e+02
381             	3.07493094e+02
382             	3.07497663e+02
383             	3.07502354e+02
384             	3.07506672e+02
385             	3.07511192e+02
386             	3.07515829e+02
387             	3.07520121e+02
388             	3.07524654e+02
389             	3.07529278e+02
390             	3.07533539e+02
391             	3.07537994e+02
392             	3.07542555e+02
393             	3.07546682e+02
394             	3.07551000e+02
395             	3.07555464e+02
396             	3.07559519e+02
397             	3.07563776e+02
398             	3.07568142e+02
399             	3.07572121e+02
400             	3.07576330e+02
401             	3.07580662e+02
402             	3.07584502e+02
403             	3.07588546e+02
404             	3.07592677e+02
405             	3.07596392e+02
406             	3.07600308e+02
407             	3.07604289e+02
408             	3.07608300e+02
409             	3.07611871e+02
410             	3.07615679e+02
411             	3.07619645e+02
412             	3.07623164e+02
413             	3.07626889e+02
414             	3.07630762e+02
415             	3.07634313e+02
416             	3.07638124e+02
417             	3.07641938e+02
418             	3.07645396e+02
419             	3.07649062e+02
420             	3.07652867e+02
421             	3.07656282e+02
422             	3.07659929e+02
423             	3.07663669e+02
424             	3.07667023e+02
425             	3.07670621e+02
426             	3.07674303e+02
427             	3.07677607e+02
428             	3.07681130e+02
429             	3.07684734e+02
430             	3.07687955e+02
431             	3.07691399e+02
432             	3.07694911e+02
433             	3.07698029e+02
434             	3.07701384e+02
435             	3.07704818e+02
436             	3.07707858e+02
437             	3.07711142e+02
438             	3.07714515e+02
439             	3.07717497e+02
440             	3.07720713e+02
441             	3.07724023e+02
442             	3.07726960e+02
443             	3.07730137e+02
444             	3.07733409e+02
445             	3.07736317e+02
446             	3.07739478e+02
447             	3.07742728e+02
448             	3.07745594e+02
449             	3.07748680e+02
450             	3.07751905e+02
451             	3.07754705e+02
452             	3.07757742e+02
453             	3.07760870e+02
454             	3.07763616e+02
455             	3.07766597e+02
456             	3.07769669e+02
457             	3.07772347e+02
458             	3.07775225e+02
459             	3.07778229e+02
460             	3.07780829e+02
461             	3.07783660e+02
462             	3.07786585e+02
463             	3.07789111e+02
464             	3.07791834e+02
465             	3.07794679e+02
466             	3.07797140e+02
467             	3.07799810e+02
468             	3.07802593e+02
469             	3.07805010e+02
470             	3.07807664e+02
471             	3.07810423e+02
472             	3.07812814e+02
473             	3.07815442e+02
474             	3.07818177e+02
475             	3.07820553e+02
476             	3.07823169e+02
477             	3.07825886e+02
478             	3.07828235e+02
479             	3.07830817e+02
480             	3.07833504e+02
481             	3.07835801e+02
482             	3.07838325e+02
483             	3.07840946e+02
484             	3.07843183e+02
485             	3.07845623e+02
486             	3.07848181e+02
487             	3.07850358e+02
488             	3.07852762e+02
489             	3.07855261e+02
490             	3.07857385e+02
491             	3.07859736e+02
492             	3.07862188e+02
493             	3.07864265e+02
494             	3.07866576e+02
495             	3.07868986e+02
496             	3.07871029e+02
497             	3.07873281e+02
498             	3.07875663e+02
499             	3.07877678e+02
500             	3.07879920e+02
501             	3.07882272e+02
502             	3.07884259e+02
503             	3.07886465e+02
504             	3.07888785e+02
505             	3.07890735e+02
506             	3.07892912e+02
507             	3.07895190e+02
508             	3.07897092e+02
509             	3.07899204e+02
510             	3.07901427e+02
511             	3.07903267e+02
512             	3.07905324e+02
513             	3.07907477e+02
514             	3.07909256e+02
515             	3.07911246e+02
516             	3.07913336e+02
517             	3.07915067e+02
518             	3.07917014e+02
519             	3.07919077e+02
520             	3.07920778e+02
521             	3.07922699e+02
522             	3.07924739e+02
523             	3.07926421e+02
524             	3.07928323e+02
525             	3.07930341e+02
526             	3.07932003e+02
527             	3.07933878e+02
528             	3.07935872e+02
529             	3.07937502e+02
530             	3.07939339e+02
531             	3.07941294e+02
532             	3.07942886e+02
533             	3.07944689e+02
534             	3.07946606e+02
535             	3.07948166e+02
536             	3.07949925e+02
537             	3.07951814e+02
538             	3.07953337e+02
539             	3.07955071e+02
540             	3.07956926e+02
541             	3.07958422e+02
542             	3.07960123e+02
543             	3.07961949e+02
544             	3.07963416e+02
545             	3.07965087e+02
546             	3.07966876e+02
547             	3.07968309e+02
548             	3.07969947e+02
549             	3.07971707e+02
550             	3.07973107e+02
551             	3.07974711e+02
552             	3.07976442e+02
553             	3.07977811e+02
554             	3.07979384e+02
555             	3.07981083e+02
556             	3.07982424e+02
557             	3.07983969e+02
558             	3.07985642e+02
559             	3.07986957e+02
560             	3.07988481e+02
561             	3.07990145e+02
562             	3.07991429e+02
563             	3.07992916e+02
564             	3.07994533e+02
565             	3.07995791e+02
566             	3.07997250e+02
567             	3.07998840e+02
568             	3.08000067e+02
569             	3.08001495e+02
570             	3.08003056e+02
571             	3.08004256e+02
572             	3.08005657e+02
573             	3.08007196e+02
574             	3.08008375e+02
575             	3.08009758e+02
576             	3.08011280e+02
577             	3.08012440e+02
578             	3.08013806e+02
579             	3.08015312e+02
580             	3.08016454e+02
581             	3.08017801e+02
582             	3.08019288e+02
583             	3.08020402e+02
584             	3.08021718e+02
585             	3.08023178e+02
586             	3.08024266e+02
587             	3.08025554e+02
588             	3.08026978e+02
589             	3.08028032e+02
590             	3.08029291e+02
591             	3.08030691e+02
592             	3.08031718e+02
593             	3.08032953e+02
594             	3.08034333e+02
595             	3.08035341e+02
596             	3.08036559e+02
597             	3.08037918e+02
598             	3.08038905e+02
599             	3.08040096e+02
600             	3.08041433e+02
601             	3.08042399e+02
602             	3.08043573e+02
603             	3.08044888e+02
604             	3.08045834e+02
605             	3.08046999e+02
606             	3.08048300e+02
607             	3.08049224e+02
608             	3.08050357e+02
609             	3.08051637e+02
610             	3.08052537e+02
611             	3.08053644e+02
612             	3.08054897e+02
613             	3.08055770e+02
614             	3.08056854e+02
615             	3.08058081e+02
616             	3.08058933e+02
617             	3.08059994e+02
618             	3.08061206e+02
619             	3.08062039e+02
620             	3.08063084e+02
621             	3.08064283e+02
