# Region        : cellZone component_4
# Cells         : 11
# Volume        : 1.50967832e-02
# Time          	volAverage(T)
1               	3.02909507e+02
2               	3.05759326e+02
3               	3.07871941e+02
4               	3.09607732e+02
5               	3.11226769e+02
6               	3.12768784e+02
7               	3.14268068e+02
8               	3.15739779e+02
9               	3.17199688e+02
10              	3.18615039e+02
11              	3.19931548e+02
12              	3.21168246e+02
13              	3.22334160e+02
14              	3.23488570e+02
15              	3.24588301e+02
16              	3.25410966e+02
17              	3.26073775e+02
18              	3.26623512e+02
19              	3.27168697e+02
20              	3.27674709e+02
21              	3.28062889e+02
22              	3.28271558e+02
23              	3.28203423e+02
24              	3.28006986e+02
25              	3.27908580e+02
26              	3.27950811e+02
27              	3.28002119e+02
28              	3.27928483e+02
29              	3.27819951e+02
30              	3.27771886e+02
31              	3.27955735e+02
32              	3.28283837e+02
33              	3.28663449e+02
34              	3.28993536e+02
35              	3.29243621e+02
36              	3.29406604e+02
37              	3.29503121e+02
38              	3.29529410e+02
39              	3.29532046e+02
40              	3.29587065e+02
41              	3.29687513e+02
42              	3.29860635e+02
43              	3.29978218e+02
44              	3.30092157e+02
45              	3.30228729e+02
46              	3.30383605e+02
47              	3.30519243e+02
48              	3.30738999e+02
49              	3.31008767e+02
50              	3.31314231e+02
51              	3.31599438e+02
52              	3.31865299e+02
53              	3.32118743e+02
54              	3.32426842e+02
55              	3.32804098e+02
56              	3.33254916e+02
57              	3.33508263e+02
58              	3.33576394e+02
59              	3.33532356e+02
60              	3.33402633e+02
61              	3.33311356e+02
62              	3.33402897e+02
63              	3.33431032e+02
64              	3.33325005e+02
65              	3.33212377e+02
66              	3.33004592e+02
67              	3.32910362e+02
68              	3.32731297e+02
69              	3.32589198e+02
70              	3.32483202e+02
71              	3.32422833e+02
72              	3.32328398e+02
73              	3.32228944e+02
74              	3.32126824e+02
75              	3.32071328e+02
76              	3.32031007e+02
77              	3.31950823e+02
78              	3.31873190e+02
79              	3.31824000e+02
80              	3.31849937e+02
81              	3.31896385e+02
82              	3.32044428e+02
83              	3.32269797e+02
84              	3.32368392e+02
85              	3.32435052e+02
86              	3.32435876e+02
87              	3.32575405e+02
88              	3.32786492e+02
89              	3.32999624e+02
90              	3.33167051e+02
91              	3.33260390e+02
92              	3.33337705e+02
93              	3.33383981e+02
94              	3.33462857e+02
95              	3.33535195e+02
96              	3.33621083e+02
97              	3.33745554e+02
98              	3.33845036e+02
99              	3.33905713e+02
100             	3.33968917e+02
101             	3.34045518e+02
102             	3.34134743e+02
103             	3.34250968e+02
104             	3.34390908e+02
105             	3.34568722e+02
106             	3.34786716e+02
107             	3.35024006e+02
108             	3.35239356e+02
109             	3.35453565e+02
110             	3.35678283e+02
111             	3.35876565e+02
112             	3.36037867e+02
113             	3.36152775e+02
114             	3.36262797e+02
115             	3.36352155e+02
116             	3.36402953e+02
117             	3.36464607e+02
118             	3.36528121e+02
119             	3.36600975e+02
120             	3.36694644e+02
121             	3.36774004e+02
122             	3.36857113e+02
123             	3.36988550e+02
124             	3.37127622e+02
125             	3.37275051e+02
126             	3.37411836e+02
127             	3.37546976e+02
128             	3.37652169e+02
129             	3.37791282e+02
130             	3.37935516e+02
131             	3.38047248e+02
132             	3.38112885e+02
133             	3.38181627e+02
134             	3.38282982e+02
135             	3.38435165e+02
136             	3.38637955e+02
137             	3.38833463e+02
138             	3.39015838e+02
139             	3.39150044e+02
140             	3.39280507e+02
141             	3.39347665e+02
142             	3.39360398e+02
143             	3.39318962e+02
144             	3.39257027e+02
145             	3.39174011e+02
146             	3.39035829e+02
147             	3.38915139e+02
148             	3.38812852e+02
149             	3.38645516e+02
150             	3.38522540e+02
151             	3.38519452e+02
152             	3.38581061e+02
153             	3.38710479e+02
154             	3.38875866e+02
155             	3.39068905e+02
156             	3.39294283e+02
157             	3.39509549e+02
158             	3.39696477e+02
159             	3.39881883e+02
160             	3.40020585e+02
161             	3.40082320e+02
162             	3.40095405e+02
163             	3.40070214e+02
164             	3.39963198e+02
165             	3.39852316e+02
166             	3.39722223e+02
167             	3.39584449e+02
168             	3.39470329e+02
169             	3.39420621e+02
170             	3.39373293e+02
171             	3.39367999e+02
172             	3.39366520e+02
173             	3.39388554e+02
174             	3.39401409e+02
175             	3.39395102e+02
176             	3.39321595e+02
177             	3.39303994e+02
178             	3.39352109e+02
179             	3.39374463e+02
180             	3.39351487e+02
181             	3.39336250e+02
182             	3.39385032e+02
183             	3.39531789e+02
184             	3.39739077e+02
185             	3.39960788e+02
186             	3.40184066e+02
187             	3.40434435e+02
188             	3.40714925e+02
189             	3.40996315e+02
190             	3.41195597e+02
191             	3.41388782e+02
192             	3.41591142e+02
193             	3.41774188e+02
194             	3.41828280e+02
195             	3.41869372e+02
196             	3.41886396e+02
197             	3.41844833e+02
198             	3.41737028e+02
199             	3.41641394e+02
200             	3.41585998e+02
201             	3.41578337e+02
202             	3.41621680e+02
203             	3.41723487e+02
204             	3.41865596e+02
205             	3.42059601e+02
206             	3.42199587e+02
207             	3.42370728e+02
208             	3.42506928e+02
209             	3.42666516e+02
210             	3.42754488e+02
211             	3.42853252e+02
212             	3.42934573e+02
213             	3.43016691e+02
214             	3.43058362e+02
215             	3.43068542e+02
216             	3.43025495e+02
217             	3.42979566e+02
218             	3.42943158e+02
219             	3.42917787e+02
220             	3.42903331e+02
221             	3.42914626e+02
222             	3.42947057e+02
223             	3.43008172e+02
224             	3.43103355e+02
225             	3.43239291e+02
226             	3.43313357e+02
227             	3.43429011e+02
228             	3.43508558e+02
229             	3.43641021e+02
230             	3.43714824e+02
231             	3.43825603e+02
232             	3.43851844e+02
233             	3.43912974e+02
234             	3.43910816e+02
235             	3.43936494e+02
236             	3.43897801e+02
237             	3.43888893e+02
238             	3.43830031e+02
239             	3.43805984e+02
240             	3.43826406e+02
241             	3.43855804e+02
242             	3.43798214e+02
243             	3.43782272e+02
244             	3.43794310e+02
245             	3.43832772e+02
246             	3.43895025e+02
247             	3.43981443e+02
248             	3.44005296e+02
249             	3.44070423e+02
250             	3.44098608e+02
251             	3.44179518e+02
252             	3.44183545e+02
253             	3.44240903e+02
254             	3.44247864e+02
255             	3.44295375e+02
256             	3.44262944e+02
257             	3.44256642e+02
258             	3.44280167e+02
259             	3.44287756e+02
260             	3.44206209e+02
261             	3.44152065e+02
262             	3.44118029e+02
263             	3.44087666e+02
264             	3.44077010e+02
265             	3.44089283e+02
266             	3.44128190e+02
267             	3.44200580e+02
268             	3.44200450e+02
269             	3.44252489e+02
270             	3.44271608e+02
271             	3.44350292e+02
272             	3.44382420e+02
273             	3.44471655e+02
274             	3.44505645e+02
275             	3.44593687e+02
276             	3.44622305e+02
277             	3.44700255e+02
278             	3.44714794e+02
279             	3.44776191e+02
280             	3.44755952e+02
281             	3.44782656e+02
282             	3.44753882e+02
283             	3.44767138e+02
284             	3.44723807e+02
285             	3.44723969e+02
286             	3.44676008e+02
287             	3.44670179e+02
288             	3.44624474e+02
289             	3.44621117e+02
290             	3.44658118e+02
291             	3.44719303e+02
292             	3.44693498e+02
293             	3.44711908e+02
294             	3.44777799e+02
295             	3.44859555e+02
296             	3.44880279e+02
297             	3.44956617e+02
298             	3.44998286e+02
299             	3.45094212e+02
300             	3.45136493e+02
301             	3.45230426e+02
302             	3.45269521e+02
303             	3.45357147e+02
304             	3.45379108e+02
305             	3.45443089e+02
306             	3.45436811e+02
307             	3.45476214e+02
308             	3.45447943e+02
309             	3.45464459e+02
310             	3.45416916e+02
311             	3.45414105e+02
312             	3.45346412e+02
313             	3.45326496e+02
314             	3.45248791e+02
315             	3.45230100e+02
316             	3.45167584e+02
317             	3.45163755e+02
318             	3.45120250e+02
319             	3.45134777e+02
320             	3.45106265e+02
321             	3.45127123e+02
322             	3.45099936e+02
323             	3.45127278e+02
324             	3.45093547e+02
325             	3.45111355e+02
326             	3.45072876e+02
327             	3.45087815e+02
328             	3.45052180e+02
329             	3.45070632e+02
330             	3.45041301e+02
331             	3.45057306e+02
332             	3.45033180e+02
333             	3.45053554e+02
334             	3.45124781e+02
335             	3.45107419e+02
336             	3.45131456e+02
337             	3.45118437e+02
338             	3.45155956e+02
339             	3.45151416e+02
340             	3.45196673e+02
341             	3.45193484e+02
342             	3.45238806e+02
343             	3.45229842e+02
344             	3.45271663e+02
345             	3.45260683e+02
346             	3.45301952e+02
347             	3.45297314e+02
348             	3.45344745e+02
349             	3.45339546e+02
350             	3.45384628e+02
351             	3.45382184e+02
352             	3.45429153e+02
353             	3.45421785e+02
354             	3.45470156e+02
355             	3.45450822e+02
356             	3.45493150e+02
357             	3.45455036e+02
358             	3.45463700e+02
359             	3.45397977e+02
360             	3.45377618e+02
361             	3.45305587e+02
362             	3.45275664e+02
363             	3.45196822e+02
364             	3.45162272e+02
365             	3.45168876e+02
366             	3.45093456e+02
367             	3.45070096e+02
368             	3.45096268e+02
369             	3.45064217e+02
370             	3.45086363e+02
371             	3.45083600e+02
372             	3.45136617e+02
373             	3.45152684e+02
374             	3.45223172e+02
375             	3.45250514e+02
376             	3.45336004e+02
377             	3.45366812e+02
378             	3.45450321e+02
379             	3.45466470e+02
380             	3.45534201e+02
381             	3.45535279e+02
382             	3.45587886e+02
383             	3.45543738e+02
384             	3.45535613e+02
385             	3.45469827e+02
386             	3.45443598e+02
387             	3.45361480e+02
388             	3.45325355e+02
389             	3.45251820e+02
390             	3.45224773e+02
391             	3.45156673e+02
392             	3.45136421e+02
393             	3.45171343e+02
394             	3.45118860e+02
395             	3.45115062e+02
396             	3.45071950e+02
397             	3.45094345e+02
398             	3.45073479e+02
399             	3.45113940e+02
400             	3.45107914e+02
401             	3.45157892e+02
402             	3.45149502e+02
403             	3.45190326e+02
404             	3.45171313e+02
405             	3.45196414e+02
406             	3.45165212e+02
407             	3.45179460e+02
408             	3.45141699e+02
409             	3.45149551e+02
410             	3.45114340e+02
411             	3.45126166e+02
412             	3.45095198e+02
413             	3.45110816e+02
414             	3.45084336e+02
415             	3.45102940e+02
416             	3.45076610e+02
417             	3.45096552e+02
418             	3.45068091e+02
419             	3.45088303e+02
420             	3.45056903e+02
421             	3.45078933e+02
422             	3.45047541e+02
423             	3.45070529e+02
424             	3.45041333e+02
425             	3.45069557e+02
426             	3.45041547e+02
427             	3.45070323e+02
428             	3.45041089e+02
429             	3.45066969e+02
430             	3.45034733e+02
431             	3.45056754e+02
432             	3.45020567e+02
433             	3.45040560e+02
434             	3.45004913e+02
435             	3.45021462e+02
436             	3.44984095e+02
437             	3.44996128e+02
438             	3.44958428e+02
439             	3.44970486e+02
440             	3.44935682e+02
441             	3.44949689e+02
442             	3.44918988e+02
443             	3.44938324e+02
444             	3.44914590e+02
445             	3.44941528e+02
446             	3.44925738e+02
447             	3.44961564e+02
448             	3.44955245e+02
449             	3.45000516e+02
450             	3.45003129e+02
451             	3.45056480e+02
452             	3.45064992e+02
453             	3.45123724e+02
454             	3.45135163e+02
455             	3.45197515e+02
456             	3.45209255e+02
457             	3.45272473e+02
458             	3.45280975e+02
459             	3.45337080e+02
460             	3.45332948e+02
461             	3.45379781e+02
462             	3.45363425e+02
463             	3.45400512e+02
464             	3.45376841e+02
465             	3.45406663e+02
466             	3.45377411e+02
467             	3.45400398e+02
468             	3.45366259e+02
469             	3.45383720e+02
470             	3.45347552e+02
471             	3.45361384e+02
472             	3.45323214e+02
473             	3.45333197e+02
474             	3.45292433e+02
475             	3.45299435e+02
476             	3.45256307e+02
477             	3.45259359e+02
478             	3.45212807e+02
479             	3.45213009e+02
480             	3.45165570e+02
481             	3.45166901e+02
482             	3.45123794e+02
483             	3.45131903e+02
484             	3.45097128e+02
485             	3.45112662e+02
486             	3.45086130e+02
487             	3.45110054e+02
488             	3.45090662e+02
489             	3.45121104e+02
490             	3.45105720e+02
491             	3.45140688e+02
492             	3.45126333e+02
493             	3.45163657e+02
494             	3.45148659e+02
495             	3.45187353e+02
496             	3.45171662e+02
497             	3.45210493e+02
498             	3.45191594e+02
499             	3.45226817e+02
500             	3.45202615e+02
501             	3.45232753e+02
502             	3.45202603e+02
503             	3.45227440e+02
504             	3.45193105e+02
505             	3.45213955e+02
506             	3.45177035e+02
507             	3.45193598e+02
508             	3.45154285e+02
509             	3.45165644e+02
510             	3.45124619e+02
511             	3.45132816e+02
512             	3.45093079e+02
513             	3.45101881e+02
514             	3.45065643e+02
515             	3.45075973e+02
516             	3.45043274e+02
517             	3.45057317e+02
518             	3.45030817e+02
519             	3.45052352e+02
520             	3.45033329e+02
521             	3.45061786e+02
522             	3.45047798e+02
523             	3.45080541e+02
524             	3.45068806e+02
525             	3.45103781e+02
526             	3.45092079e+02
527             	3.45127927e+02
528             	3.45114759e+02
529             	3.45150525e+02
530             	3.45134248e+02
531             	3.45166735e+02
532             	3.45142133e+02
533             	3.45159507e+02
534             	3.45119350e+02
535             	3.45128889e+02
536             	3.45079712e+02
537             	3.45084744e+02
538             	3.45034110e+02
539             	3.45039597e+02
540             	3.44990001e+02
541             	3.44995248e+02
542             	3.44947071e+02
543             	3.44953390e+02
544             	3.44908650e+02
545             	3.44917822e+02
546             	3.44877206e+02
547             	3.44888503e+02
548             	3.44851133e+02
549             	3.44863907e+02
550             	3.44829865e+02
551             	3.44845100e+02
552             	3.44813982e+02
553             	3.44831272e+02
554             	3.44803622e+02
555             	3.44825493e+02
556             	3.44803904e+02
557             	3.44832988e+02
558             	3.44819669e+02
559             	3.44857777e+02
560             	3.44853638e+02
561             	3.44899428e+02
562             	3.44900847e+02
563             	3.44950872e+02
564             	3.44953927e+02
565             	3.45005165e+02
566             	3.45006205e+02
567             	3.45056376e+02
568             	3.45053498e+02
569             	3.45100893e+02
570             	3.45092753e+02
571             	3.45136887e+02
572             	3.45123104e+02
573             	3.45162695e+02
574             	3.45143085e+02
575             	3.45176578e+02
576             	3.45150027e+02
577             	3.45177352e+02
578             	3.45145448e+02
579             	3.45168776e+02
580             	3.45133735e+02
581             	3.45153174e+02
582             	3.45116123e+02
583             	3.45131944e+02
584             	3.45093320e+02
585             	3.45105220e+02
586             	3.45066113e+02
587             	3.45077315e+02
588             	3.45042214e+02
589             	3.45055812e+02
590             	3.45023986e+02
591             	3.45039793e+02
592             	3.45012694e+02
593             	3.45034925e+02
594             	3.45015035e+02
595             	3.45045073e+02
596             	3.45032612e+02
597             	3.45069672e+02
598             	3.45063030e+02
599             	3.45105488e+02
600             	3.45102215e+02
601             	3.45148203e+02
602             	3.45146115e+02
603             	3.45193648e+02
604             	3.45190362e+02
605             	3.45237614e+02
606             	3.45231679e+02
607             	3.45277321e+02
608             	3.45261880e+02
609             	3.45298000e+02
610             	3.45275209e+02
611             	3.45304196e+02
612             	3.45274491e+02
613             	3.45298683e+02
614             	3.45265335e+02
615             	3.45286518e+02
616             	3.45250682e+02
617             	3.45268448e+02
618             	3.45231042e+02
619             	3.45245947e+02
620             	3.45207760e+02
621             	3.45219685e+02
