# Region        : cellZone component_2
# Cells         : 16
# Volume        : 2.17154450e-02
# Time          	volAverage(T)
1               	3.22377224e+02
2               	3.44139328e+02
3               	3.60007638e+02
4               	3.72780364e+02
5               	3.84526254e+02
6               	3.95726850e+02
7               	4.06299892e+02
8               	4.16413864e+02
9               	4.26384520e+02
10              	4.36390685e+02
11              	4.46224039e+02
12              	4.55473556e+02
13              	4.64378838e+02
14              	4.73163481e+02
15              	4.81702810e+02
16              	4.89612207e+02
17              	4.96171149e+02
18              	5.01961895e+02
19              	5.07399960e+02
20              	5.12599856e+02
21              	5.17862783e+02
22              	5.23073782e+02
23              	5.28240374e+02
24              	5.33510126e+02
25              	5.37634083e+02
26              	5.42184229e+02
27              	5.45205091e+02
28              	5.46824523e+02
29              	5.47529346e+02
30              	5.48109170e+02
31              	5.48753700e+02
32              	5.48028309e+02
33              	5.46154711e+02
34              	5.44267502e+02
35              	5.42314339e+02
36              	5.40959125e+02
37              	5.40049377e+02
38              	5.39466586e+02
39              	5.38220348e+02
40              	5.37329004e+02
41              	5.35274685e+02
42              	5.33169866e+02
43              	5.31795803e+02
44              	5.29359497e+02
45              	5.27510955e+02
46              	5.26104411e+02
47              	5.25497054e+02
48              	5.25576460e+02
49              	5.25654355e+02
50              	5.25690119e+02
51              	5.25863444e+02
52              	5.26514333e+02
53              	5.28114253e+02
54              	5.30331330e+02
55              	5.32316011e+02
56              	5.33908685e+02
57              	5.33907560e+02
58              	5.33973414e+02
59              	5.33786017e+02
60              	5.33389824e+02
61              	5.33216033e+02
62              	5.32986508e+02
63              	5.32953597e+02
64              	5.33224463e+02
65              	5.33618659e+02
66              	5.34236020e+02
67              	5.35159611e+02
68              	5.36061211e+02
69              	5.37409212e+02
70              	5.38535082e+02
71              	5.39512836e+02
72              	5.40784782e+02
73              	5.42286560e+02
74              	5.43087424e+02
75              	5.44385425e+02
76              	5.45306398e+02
77              	5.45876165e+02
78              	5.46094141e+02
79              	5.46151397e+02
80              	5.46400440e+02
81              	5.46274872e+02
82              	5.45593394e+02
83              	5.44694615e+02
84              	5.44467186e+02
85              	5.44337083e+02
86              	5.44148320e+02
87              	5.44007676e+02
88              	5.44129755e+02
89              	5.44467957e+02
90              	5.45168823e+02
91              	5.46181291e+02
92              	5.46543696e+02
93              	5.47097665e+02
94              	5.47083792e+02
95              	5.47466928e+02
96              	5.47936065e+02
97              	5.48539526e+02
98              	5.49371785e+02
99              	5.49920008e+02
100             	5.50049067e+02
101             	5.50135578e+02
102             	5.50126334e+02
103             	5.50053901e+02
104             	5.49867461e+02
105             	5.49727345e+02
106             	5.49643592e+02
107             	5.49284374e+02
108             	5.49289566e+02
109             	5.49287792e+02
110             	5.48915432e+02
111             	5.48544202e+02
112             	5.48680220e+02
113             	5.49666416e+02
114             	5.50867453e+02
115             	5.52541395e+02
116             	5.53763881e+02
117             	5.54851155e+02
118             	5.55280209e+02
119             	5.55489248e+02
120             	5.55310224e+02
121             	5.55223645e+02
122             	5.54832329e+02
123             	5.54282122e+02
124             	5.53483885e+02
125             	5.52544513e+02
126             	5.51706841e+02
127             	5.50635021e+02
128             	5.50121372e+02
129             	5.49896811e+02
130             	5.50061867e+02
131             	5.50407485e+02
132             	5.50822675e+02
133             	5.51062597e+02
134             	5.51315061e+02
135             	5.51657847e+02
136             	5.52164556e+02
137             	5.52794251e+02
138             	5.53362629e+02
139             	5.53932548e+02
140             	5.54501343e+02
141             	5.55066093e+02
142             	5.55535415e+02
143             	5.56068717e+02
144             	5.56591694e+02
145             	5.57191063e+02
146             	5.57792229e+02
147             	5.58052573e+02
148             	5.57961034e+02
149             	5.58298143e+02
150             	5.58865724e+02
151             	5.59534230e+02
152             	5.60490499e+02
153             	5.61353648e+02
154             	5.62309335e+02
155             	5.63586410e+02
156             	5.64093452e+02
157             	5.64929982e+02
158             	5.65381210e+02
159             	5.65746250e+02
160             	5.66257544e+02
161             	5.66890161e+02
162             	5.67595408e+02
163             	5.67494069e+02
164             	5.67697104e+02
165             	5.67828066e+02
166             	5.68026458e+02
167             	5.68224205e+02
168             	5.68223027e+02
169             	5.67918501e+02
170             	5.67880931e+02
171             	5.68080406e+02
172             	5.68751233e+02
173             	5.68872797e+02
174             	5.68959554e+02
175             	5.69216940e+02
176             	5.68834746e+02
177             	5.69032215e+02
178             	5.69565401e+02
179             	5.70119158e+02
180             	5.70626352e+02
181             	5.70236901e+02
182             	5.70442367e+02
183             	5.70990096e+02
184             	5.71113322e+02
185             	5.71122673e+02
186             	5.71343355e+02
187             	5.71255492e+02
188             	5.71600161e+02
189             	5.71361722e+02
190             	5.71380516e+02
191             	5.71455567e+02
192             	5.71096620e+02
193             	5.70876607e+02
194             	5.70767460e+02
195             	5.70696019e+02
196             	5.70686202e+02
197             	5.70078586e+02
198             	5.69803261e+02
199             	5.70017446e+02
200             	5.70478783e+02
201             	5.71120589e+02
202             	5.70925670e+02
203             	5.71090065e+02
204             	5.71557244e+02
205             	5.71357348e+02
206             	5.71543313e+02
207             	5.72076947e+02
208             	5.71825975e+02
209             	5.71867959e+02
210             	5.72159589e+02
211             	5.71989123e+02
212             	5.72136097e+02
213             	5.71951501e+02
214             	5.72312772e+02
215             	5.72204788e+02
216             	5.72111011e+02
217             	5.70928164e+02
218             	5.70491735e+02
219             	5.70439535e+02
220             	5.70731001e+02
221             	5.70728386e+02
222             	5.70872124e+02
223             	5.71019936e+02
224             	5.71436006e+02
225             	5.71583352e+02
226             	5.71771238e+02
227             	5.71930917e+02
228             	5.71982905e+02
229             	5.72376820e+02
230             	5.72348713e+02
231             	5.71619803e+02
232             	5.71067920e+02
233             	5.70983036e+02
234             	5.70809806e+02
235             	5.70779151e+02
236             	5.70737567e+02
237             	5.70945291e+02
238             	5.71388462e+02
239             	5.71359698e+02
240             	5.71338634e+02
241             	5.71345036e+02
242             	5.71667437e+02
243             	5.71542871e+02
244             	5.71829615e+02
245             	5.71588607e+02
246             	5.71682873e+02
247             	5.71911402e+02
248             	5.72023666e+02
249             	5.72062430e+02
250             	5.72086113e+02
251             	5.71784576e+02
252             	5.71834662e+02
253             	5.71822483e+02
254             	5.71217338e+02
255             	5.70969224e+02
256             	5.71236677e+02
257             	5.71687759e+02
258             	5.72307437e+02
259             	5.72324676e+02
260             	5.72423805e+02
261             	5.73252016e+02
262             	5.73153810e+02
263             	5.73430577e+02
264             	5.73155384e+02
265             	5.73454547e+02
266             	5.73009147e+02
267             	5.72247258e+02
268             	5.72035680e+02
269             	5.71926853e+02
270             	5.71911076e+02
271             	5.71973080e+02
272             	5.71779115e+02
273             	5.71939303e+02
274             	5.72221855e+02
275             	5.72363006e+02
276             	5.72957935e+02
277             	5.72859455e+02
278             	5.72844518e+02
279             	5.72943910e+02
280             	5.72943080e+02
281             	5.73303060e+02
282             	5.72719681e+02
283             	5.72471503e+02
284             	5.72170242e+02
285             	5.72034185e+02
286             	5.71633656e+02
287             	5.71483778e+02
288             	5.71440937e+02
289             	5.71615151e+02
290             	5.72020774e+02
291             	5.71724875e+02
292             	5.71849268e+02
293             	5.71613102e+02
294             	5.72047629e+02
295             	5.71746965e+02
296             	5.71834481e+02
297             	5.71530643e+02
298             	5.71560792e+02
299             	5.71630225e+02
300             	5.71683787e+02
301             	5.71720953e+02
302             	5.71747646e+02
303             	5.71768316e+02
304             	5.71782674e+02
305             	5.71791724e+02
306             	5.71797704e+02
307             	5.71801138e+02
308             	5.71804412e+02
309             	5.71885900e+02
310             	5.72072771e+02
311             	5.72381921e+02
312             	5.72372232e+02
313             	5.72343234e+02
314             	5.72651377e+02
315             	5.73083450e+02
316             	5.73438345e+02
317             	5.73808600e+02
318             	5.73425464e+02
319             	5.73535525e+02
320             	5.73240516e+02
321             	5.72965726e+02
322             	5.72757351e+02
323             	5.72932890e+02
324             	5.73269566e+02
325             	5.73535185e+02
326             	5.73721166e+02
327             	5.73866862e+02
328             	5.73989460e+02
329             	5.74093710e+02
330             	5.74182035e+02
331             	5.74256208e+02
332             	5.74318768e+02
333             	5.73910608e+02
334             	5.73385708e+02
335             	5.72972155e+02
336             	5.72661699e+02
337             	5.72412049e+02
338             	5.72612907e+02
339             	5.72490890e+02
340             	5.72341990e+02
341             	5.72226666e+02
342             	5.72140986e+02
343             	5.72073423e+02
344             	5.72017837e+02
345             	5.72391605e+02
346             	5.72736285e+02
347             	5.73001100e+02
348             	5.73207084e+02
349             	5.73375542e+02
350             	5.73516080e+02
351             	5.73633689e+02
352             	5.73828848e+02
353             	5.73403941e+02
354             	5.73375553e+02
355             	5.73414423e+02
356             	5.73527193e+02
357             	5.73209482e+02
358             	5.73297323e+02
359             	5.73425750e+02
360             	5.73528838e+02
361             	5.73606301e+02
362             	5.73667913e+02
363             	5.73997874e+02
364             	5.73622540e+02
365             	5.73240528e+02
366             	5.72960983e+02
367             	5.72755611e+02
368             	5.72588353e+02
369             	5.72909425e+02
370             	5.73276920e+02
371             	5.73555534e+02
372             	5.73761135e+02
373             	5.73925436e+02
374             	5.74064128e+02
375             	5.74182675e+02
376             	5.74283620e+02
377             	5.74370369e+02
378             	5.74447513e+02
379             	5.74514994e+02
380             	5.74570336e+02
381             	5.74616500e+02
382             	5.74655873e+02
383             	5.74689807e+02
384             	5.74718880e+02
385             	5.74743131e+02
386             	5.74765301e+02
387             	5.74784879e+02
388             	5.74802962e+02
389             	5.74819713e+02
390             	5.74834774e+02
391             	5.74847526e+02
392             	5.74859038e+02
393             	5.74868987e+02
394             	5.74876849e+02
395             	5.74882336e+02
396             	5.74885485e+02
397             	5.74886852e+02
398             	5.74886442e+02
399             	5.74885713e+02
400             	5.74886152e+02
401             	5.74885941e+02
402             	5.74886024e+02
403             	5.74886723e+02
404             	5.74888111e+02
405             	5.74889968e+02
406             	5.74892278e+02
407             	5.74894762e+02
408             	5.74897072e+02
409             	5.74899170e+02
410             	5.74901202e+02
411             	5.74903238e+02
412             	5.74905313e+02
413             	5.74908716e+02
414             	5.74911435e+02
415             	5.74914014e+02
416             	5.74915560e+02
417             	5.74917781e+02
418             	5.74920244e+02
419             	5.74922564e+02
420             	5.74924420e+02
421             	5.74926112e+02
422             	5.74927906e+02
423             	5.74929545e+02
424             	5.74930870e+02
425             	5.74931824e+02
426             	5.74931630e+02
427             	5.74930914e+02
428             	5.74929347e+02
429             	5.74926954e+02
430             	5.74923583e+02
431             	5.74919537e+02
432             	5.74915265e+02
433             	5.74910971e+02
434             	5.74907049e+02
435             	5.74903894e+02
436             	5.74901820e+02
437             	5.74900858e+02
438             	5.74901521e+02
439             	5.74903690e+02
440             	5.74907100e+02
441             	5.74911497e+02
442             	5.74916194e+02
443             	5.74921289e+02
444             	5.74926261e+02
445             	5.74931092e+02
446             	5.74936162e+02
447             	5.74940567e+02
448             	5.74943400e+02
449             	5.74945195e+02
450             	5.74946158e+02
451             	5.74946290e+02
452             	5.74945479e+02
453             	5.74944044e+02
454             	5.74942070e+02
455             	5.74939306e+02
456             	5.74935550e+02
457             	5.74932259e+02
458             	5.74929166e+02
459             	5.74926137e+02
460             	5.74923214e+02
461             	5.74920390e+02
462             	5.74917757e+02
463             	5.74915567e+02
464             	5.74914004e+02
465             	5.74913135e+02
466             	5.74912868e+02
467             	5.74913486e+02
468             	5.74914850e+02
469             	5.74916948e+02
470             	5.74919687e+02
471             	5.74922898e+02
472             	5.74926368e+02
473             	5.74929916e+02
474             	5.74934126e+02
475             	5.74938435e+02
476             	5.74941169e+02
477             	5.74942856e+02
478             	5.74943870e+02
479             	5.74943980e+02
480             	5.74942720e+02
481             	5.74940308e+02
482             	5.74937758e+02
483             	5.74935065e+02
484             	5.74932226e+02
485             	5.74929404e+02
486             	5.74926679e+02
487             	5.74924156e+02
488             	5.74921996e+02
489             	5.74920291e+02
490             	5.74919040e+02
491             	5.74918446e+02
492             	5.74918584e+02
493             	5.74919479e+02
494             	5.74921031e+02
495             	5.74923094e+02
496             	5.74925480e+02
497             	5.74928146e+02
498             	5.74931073e+02
499             	5.74933866e+02
500             	5.74936210e+02
501             	5.74938079e+02
502             	5.74939300e+02
503             	5.74940632e+02
504             	5.74940618e+02
505             	5.74939513e+02
506             	5.74937658e+02
507             	5.74935233e+02
508             	5.74932342e+02
509             	5.74929183e+02
510             	5.74925985e+02
511             	5.74922993e+02
512             	5.74920365e+02
513             	5.74918226e+02
514             	5.74916658e+02
515             	5.74915672e+02
516             	5.74915251e+02
517             	5.74915364e+02
518             	5.74915937e+02
519             	5.74916856e+02
520             	5.74918006e+02
521             	5.74919268e+02
522             	5.74920507e+02
523             	5.74921729e+02
524             	5.74922922e+02
525             	5.74924330e+02
526             	5.74925466e+02
527             	5.74926389e+02
528             	5.74927309e+02
529             	5.74928223e+02
530             	5.74928974e+02
531             	5.74929702e+02
532             	5.74929777e+02
533             	5.74929996e+02
534             	5.74930443e+02
535             	5.74930860e+02
536             	5.74931160e+02
537             	5.74931360e+02
538             	5.74931458e+02
539             	5.74931427e+02
540             	5.74931143e+02
541             	5.74930769e+02
542             	5.74930144e+02
543             	5.74929683e+02
544             	5.74929087e+02
545             	5.74928468e+02
546             	5.74927959e+02
547             	5.74927656e+02
548             	5.74927611e+02
549             	5.74927845e+02
550             	5.74928283e+02
551             	5.74928897e+02
552             	5.74929619e+02
553             	5.74930327e+02
554             	5.74930958e+02
555             	5.74931534e+02
556             	5.74932057e+02
557             	5.74932143e+02
558             	5.74932149e+02
559             	5.74931880e+02
560             	5.74931507e+02
561             	5.74931105e+02
562             	5.74930499e+02
563             	5.74930142e+02
564             	5.74929860e+02
565             	5.74929594e+02
566             	5.74929562e+02
567             	5.74929605e+02
568             	5.74929671e+02
569             	5.74930350e+02
570             	5.74930861e+02
571             	5.74931390e+02
572             	5.74932071e+02
573             	5.74932892e+02
574             	5.74933395e+02
575             	5.74934266e+02
576             	5.74935179e+02
577             	5.74936254e+02
578             	5.74936986e+02
579             	5.74937404e+02
580             	5.74937568e+02
581             	5.74937465e+02
582             	5.74937145e+02
583             	5.74936401e+02
584             	5.74935382e+02
585             	5.74934199e+02
586             	5.74932952e+02
587             	5.74931811e+02
588             	5.74930945e+02
589             	5.74930453e+02
590             	5.74930416e+02
591             	5.74930882e+02
592             	5.74931569e+02
593             	5.74932789e+02
594             	5.74934353e+02
595             	5.74936056e+02
596             	5.74937735e+02
597             	5.74939261e+02
598             	5.74940372e+02
599             	5.74941199e+02
600             	5.74941595e+02
601             	5.74941555e+02
602             	5.74941073e+02
603             	5.74940212e+02
604             	5.74939088e+02
605             	5.74937726e+02
606             	5.74936252e+02
607             	5.74934751e+02
608             	5.74933311e+02
609             	5.74931978e+02
610             	5.74930899e+02
611             	5.74930047e+02
612             	5.74929462e+02
613             	5.74929228e+02
614             	5.74929247e+02
615             	5.74929470e+02
616             	5.74929866e+02
617             	5.74930388e+02
618             	5.74931314e+02
619             	5.74932074e+02
620             	5.74932729e+02
621             	5.74933229e+02
