# Region        : cellZone component_2
# Cells         : 146
# Volume        : 2.88153282e-01
# Time          	volAverage(T)
1               	3.00503500e+02
2               	3.01000948e+02
3               	3.01459265e+02
4               	3.01894728e+02
5               	3.02320390e+02
6               	3.02739792e+02
7               	3.03154511e+02
8               	3.03569602e+02
9               	3.03982835e+02
10              	3.04396720e+02
11              	3.04800870e+02
12              	3.05187665e+02
13              	3.05559053e+02
14              	3.05927327e+02
15              	3.06287201e+02
16              	3.06657551e+02
17              	3.07008435e+02
18              	3.07347474e+02
19              	3.07676002e+02
20              	3.08000750e+02
21              	3.08317526e+02
22              	3.08636360e+02
23              	3.08956002e+02
24              	3.09278040e+02
25              	3.09598248e+02
26              	3.09912947e+02
27              	3.10221521e+02
28              	3.10526872e+02
29              	3.10829433e+02
30              	3.11128754e+02
31              	3.11422374e+02
32              	3.11711716e+02
33              	3.12003027e+02
34              	3.12290768e+02
35              	3.12569873e+02
36              	3.12842548e+02
37              	3.13100655e+02
38              	3.13351784e+02
39              	3.13595956e+02
40              	3.13834880e+02
41              	3.14072373e+02
42              	3.14311900e+02
43              	3.14547572e+02
44              	3.14778479e+02
45              	3.15011870e+02
46              	3.15243590e+02
47              	3.15469351e+02
48              	3.15693057e+02
49              	3.15909665e+02
50              	3.16122272e+02
51              	3.16333334e+02
52              	3.16540923e+02
53              	3.16746517e+02
54              	3.16950162e+02
55              	3.17151016e+02
56              	3.17351456e+02
57              	3.17549337e+02
58              	3.17744502e+02
59              	3.17926870e+02
60              	3.18104464e+02
61              	3.18278303e+02
62              	3.18447706e+02
63              	3.18611592e+02
64              	3.18771363e+02
65              	3.18925665e+02
66              	3.19077936e+02
67              	3.19225263e+02
68              	3.19371195e+02
69              	3.19510496e+02
70              	3.19647455e+02
71              	3.19781810e+02
72              	3.19912192e+02
73              	3.20038101e+02
74              	3.20161021e+02
75              	3.20281243e+02
76              	3.20398382e+02
77              	3.20512417e+02
78              	3.20622788e+02
79              	3.20726467e+02
80              	3.20828688e+02
81              	3.20928436e+02
82              	3.21024115e+02
83              	3.21115589e+02
84              	3.21205133e+02
85              	3.21294327e+02
86              	3.21383034e+02
87              	3.21471423e+02
88              	3.21558114e+02
89              	3.21640800e+02
90              	3.21715912e+02
91              	3.21789034e+02
92              	3.21861139e+02
93              	3.21930466e+02
94              	3.21995858e+02
95              	3.22060734e+02
96              	3.22123975e+02
97              	3.22186522e+02
98              	3.22247561e+02
99              	3.22307245e+02
100             	3.22369303e+02
101             	3.22434477e+02
102             	3.22496292e+02
103             	3.22556881e+02
104             	3.22617546e+02
105             	3.22678119e+02
106             	3.22735407e+02
107             	3.22789327e+02
108             	3.22839424e+02
109             	3.22886476e+02
110             	3.22930201e+02
111             	3.22971970e+02
112             	3.23012246e+02
113             	3.23052806e+02
114             	3.23094516e+02
115             	3.23134092e+02
116             	3.23174372e+02
117             	3.23213710e+02
118             	3.23254409e+02
119             	3.23295448e+02
120             	3.23334203e+02
121             	3.23370955e+02
122             	3.23406800e+02
123             	3.23440436e+02
124             	3.23474187e+02
125             	3.23505227e+02
126             	3.23535245e+02
127             	3.23566007e+02
128             	3.23594772e+02
129             	3.23622918e+02
130             	3.23652844e+02
131             	3.23681588e+02
132             	3.23708273e+02
133             	3.23732220e+02
134             	3.23754338e+02
135             	3.23775171e+02
136             	3.23794936e+02
137             	3.23813676e+02
138             	3.23831594e+02
139             	3.23849824e+02
140             	3.23867477e+02
141             	3.23884613e+02
142             	3.23901847e+02
143             	3.23919093e+02
144             	3.23935992e+02
145             	3.23952939e+02
146             	3.23970129e+02
147             	3.23986670e+02
148             	3.24002257e+02
149             	3.24017466e+02
150             	3.24032940e+02
151             	3.24048657e+02
152             	3.24064701e+02
153             	3.24079470e+02
154             	3.24094651e+02
155             	3.24108921e+02
156             	3.24124592e+02
157             	3.24138386e+02
158             	3.24152894e+02
159             	3.24166878e+02
160             	3.24179613e+02
161             	3.24191333e+02
162             	3.24202380e+02
163             	3.24213164e+02
164             	3.24223758e+02
165             	3.24234413e+02
166             	3.24245196e+02
167             	3.24256143e+02
168             	3.24267238e+02
169             	3.24278791e+02
170             	3.24290343e+02
171             	3.24301626e+02
172             	3.24312115e+02
173             	3.24322326e+02
174             	3.24332649e+02
175             	3.24342679e+02
176             	3.24352859e+02
177             	3.24362921e+02
178             	3.24373229e+02
179             	3.24382995e+02
180             	3.24392779e+02
181             	3.24402376e+02
182             	3.24410790e+02
183             	3.24420208e+02
184             	3.24429270e+02
185             	3.24438016e+02
186             	3.24446144e+02
187             	3.24453907e+02
188             	3.24461262e+02
189             	3.24468126e+02
190             	3.24474731e+02
191             	3.24481227e+02
192             	3.24487598e+02
193             	3.24493999e+02
194             	3.24500423e+02
195             	3.24506837e+02
196             	3.24513190e+02
197             	3.24519490e+02
198             	3.24525794e+02
199             	3.24531935e+02
200             	3.24537944e+02
201             	3.24543967e+02
202             	3.24550037e+02
203             	3.24556047e+02
204             	3.24562049e+02
205             	3.24568163e+02
206             	3.24574120e+02
207             	3.24580027e+02
208             	3.24585773e+02
209             	3.24591095e+02
210             	3.24596816e+02
211             	3.24602554e+02
212             	3.24608079e+02
213             	3.24613426e+02
214             	3.24618420e+02
215             	3.24623252e+02
216             	3.24627981e+02
217             	3.24632581e+02
218             	3.24637043e+02
219             	3.24641715e+02
220             	3.24646284e+02
221             	3.24651264e+02
222             	3.24656132e+02
223             	3.24661107e+02
224             	3.24666098e+02
225             	3.24671228e+02
226             	3.24676391e+02
227             	3.24681628e+02
228             	3.24686759e+02
229             	3.24691691e+02
230             	3.24696526e+02
231             	3.24701549e+02
232             	3.24706437e+02
233             	3.24710816e+02
234             	3.24715445e+02
235             	3.24720254e+02
236             	3.24724791e+02
237             	3.24729335e+02
238             	3.24733849e+02
239             	3.24738293e+02
240             	3.24742563e+02
241             	3.24747136e+02
242             	3.24751166e+02
243             	3.24754980e+02
244             	3.24759324e+02
245             	3.24763612e+02
246             	3.24767881e+02
247             	3.24772188e+02
248             	3.24776561e+02
249             	3.24780952e+02
250             	3.24785314e+02
251             	3.24789703e+02
252             	3.24793989e+02
253             	3.24798123e+02
254             	3.24802066e+02
255             	3.24805910e+02
256             	3.24809760e+02
257             	3.24813498e+02
258             	3.24817152e+02
259             	3.24820832e+02
260             	3.24824495e+02
261             	3.24828103e+02
262             	3.24831676e+02
263             	3.24835247e+02
264             	3.24838777e+02
265             	3.24842213e+02
266             	3.24845893e+02
267             	3.24849254e+02
268             	3.24852467e+02
269             	3.24855780e+02
270             	3.24859291e+02
271             	3.24862896e+02
272             	3.24866544e+02
273             	3.24870171e+02
274             	3.24873717e+02
275             	3.24877219e+02
276             	3.24880736e+02
277             	3.24884181e+02
278             	3.24887520e+02
279             	3.24890768e+02
280             	3.24893962e+02
281             	3.24897250e+02
282             	3.24900489e+02
283             	3.24903602e+02
284             	3.24906527e+02
285             	3.24909627e+02
286             	3.24912804e+02
287             	3.24915955e+02
288             	3.24918855e+02
289             	3.24921726e+02
290             	3.24924635e+02
291             	3.24927585e+02
292             	3.24930657e+02
293             	3.24933705e+02
294             	3.24936699e+02
295             	3.24939706e+02
296             	3.24942827e+02
297             	3.24946040e+02
298             	3.24948885e+02
299             	3.24952024e+02
300             	3.24955225e+02
301             	3.24958310e+02
302             	3.24961257e+02
303             	3.24964113e+02
304             	3.24966924e+02
305             	3.24969706e+02
306             	3.24972453e+02
307             	3.24975114e+02
308             	3.24977792e+02
309             	3.24980516e+02
310             	3.24983293e+02
311             	3.24985994e+02
312             	3.24988662e+02
313             	3.24991359e+02
314             	3.24994074e+02
315             	3.24996752e+02
316             	3.24999398e+02
317             	3.25002019e+02
318             	3.25004661e+02
319             	3.25007287e+02
320             	3.25009870e+02
321             	3.25012445e+02
322             	3.25015000e+02
323             	3.25017527e+02
324             	3.25019927e+02
325             	3.25022411e+02
326             	3.25024894e+02
327             	3.25027328e+02
328             	3.25029710e+02
329             	3.25032057e+02
330             	3.25034360e+02
331             	3.25036686e+02
332             	3.25039013e+02
333             	3.25041286e+02
334             	3.25043566e+02
335             	3.25045888e+02
336             	3.25048253e+02
337             	3.25050635e+02
338             	3.25052960e+02
339             	3.25055255e+02
340             	3.25057597e+02
341             	3.25059943e+02
342             	3.25062225e+02
343             	3.25064492e+02
344             	3.25066759e+02
345             	3.25069049e+02
346             	3.25071342e+02
347             	3.25073680e+02
348             	3.25075918e+02
349             	3.25078253e+02
350             	3.25080470e+02
351             	3.25082726e+02
352             	3.25084948e+02
353             	3.25087102e+02
354             	3.25089200e+02
355             	3.25091311e+02
356             	3.25093414e+02
357             	3.25095446e+02
358             	3.25097477e+02
359             	3.25099537e+02
360             	3.25101618e+02
361             	3.25103712e+02
362             	3.25105819e+02
363             	3.25107924e+02
364             	3.25109983e+02
365             	3.25111987e+02
366             	3.25113972e+02
367             	3.25115922e+02
368             	3.25117941e+02
369             	3.25119913e+02
370             	3.25121838e+02
371             	3.25123773e+02
372             	3.25125737e+02
373             	3.25127725e+02
374             	3.25129742e+02
375             	3.25131770e+02
376             	3.25133792e+02
377             	3.25135793e+02
378             	3.25137771e+02
379             	3.25139734e+02
380             	3.25141660e+02
381             	3.25143570e+02
382             	3.25145463e+02
383             	3.25147336e+02
384             	3.25149191e+02
385             	3.25151031e+02
386             	3.25152861e+02
387             	3.25154701e+02
388             	3.25156551e+02
389             	3.25158375e+02
390             	3.25160191e+02
391             	3.25162001e+02
392             	3.25163777e+02
393             	3.25165562e+02
394             	3.25167340e+02
395             	3.25169100e+02
396             	3.25170840e+02
397             	3.25172565e+02
398             	3.25174281e+02
399             	3.25175981e+02
400             	3.25177671e+02
401             	3.25179352e+02
402             	3.25181020e+02
403             	3.25182676e+02
404             	3.25184318e+02
405             	3.25185950e+02
406             	3.25187574e+02
407             	3.25189193e+02
408             	3.25190806e+02
409             	3.25192411e+02
410             	3.25194009e+02
411             	3.25195600e+02
412             	3.25197186e+02
413             	3.25198769e+02
414             	3.25200339e+02
415             	3.25201901e+02
416             	3.25203462e+02
417             	3.25205028e+02
418             	3.25206592e+02
419             	3.25208156e+02
420             	3.25209719e+02
421             	3.25211273e+02
422             	3.25212824e+02
423             	3.25214355e+02
424             	3.25215881e+02
425             	3.25217398e+02
426             	3.25218900e+02
427             	3.25220386e+02
428             	3.25221859e+02
429             	3.25223318e+02
430             	3.25224770e+02
431             	3.25226216e+02
432             	3.25227650e+02
433             	3.25229078e+02
434             	3.25230501e+02
435             	3.25231917e+02
436             	3.25233324e+02
437             	3.25234723e+02
438             	3.25236112e+02
439             	3.25237490e+02
440             	3.25238859e+02
441             	3.25240216e+02
442             	3.25241561e+02
443             	3.25242894e+02
444             	3.25244226e+02
445             	3.25245549e+02
446             	3.25246861e+02
447             	3.25248165e+02
448             	3.25249463e+02
449             	3.25250751e+02
450             	3.25252026e+02
451             	3.25253300e+02
452             	3.25254566e+02
453             	3.25255823e+02
454             	3.25257066e+02
455             	3.25258298e+02
456             	3.25259527e+02
457             	3.25260752e+02
458             	3.25261968e+02
459             	3.25263184e+02
460             	3.25264393e+02
461             	3.25265598e+02
462             	3.25266797e+02
463             	3.25267992e+02
464             	3.25269184e+02
465             	3.25270369e+02
466             	3.25271546e+02
467             	3.25272716e+02
468             	3.25273879e+02
469             	3.25275037e+02
470             	3.25276189e+02
471             	3.25277335e+02
472             	3.25278476e+02
473             	3.25279614e+02
474             	3.25280745e+02
475             	3.25281873e+02
476             	3.25282995e+02
477             	3.25284108e+02
478             	3.25285216e+02
479             	3.25286317e+02
480             	3.25287409e+02
481             	3.25288496e+02
482             	3.25289574e+02
483             	3.25290646e+02
484             	3.25291709e+02
485             	3.25292767e+02
486             	3.25293821e+02
487             	3.25294869e+02
488             	3.25295912e+02
489             	3.25296949e+02
490             	3.25297981e+02
491             	3.25299008e+02
492             	3.25300032e+02
493             	3.25301049e+02
494             	3.25302065e+02
495             	3.25303074e+02
496             	3.25304078e+02
497             	3.25305078e+02
498             	3.25306074e+02
499             	3.25307065e+02
500             	3.25308054e+02
501             	3.25309038e+02
502             	3.25310016e+02
503             	3.25310989e+02
504             	3.25311957e+02
505             	3.25312919e+02
506             	3.25313874e+02
507             	3.25314822e+02
508             	3.25315765e+02
509             	3.25316701e+02
510             	3.25317631e+02
511             	3.25318553e+02
512             	3.25319468e+02
513             	3.25320378e+02
514             	3.25321282e+02
515             	3.25322178e+02
516             	3.25323067e+02
517             	3.25323952e+02
518             	3.25324830e+02
519             	3.25325703e+02
520             	3.25326571e+02
521             	3.25327432e+02
522             	3.25328289e+02
523             	3.25329140e+02
524             	3.25329986e+02
525             	3.25330828e+02
526             	3.25331664e+02
527             	3.25332487e+02
528             	3.25333309e+02
529             	3.25334128e+02
530             	3.25334939e+02
531             	3.25335742e+02
532             	3.25336539e+02
533             	3.25337336e+02
534             	3.25338124e+02
535             	3.25338906e+02
536             	3.25339685e+02
537             	3.25340459e+02
538             	3.25341230e+02
539             	3.25341995e+02
540             	3.25342757e+02
541             	3.25343514e+02
542             	3.25344267e+02
543             	3.25345016e+02
544             	3.25345760e+02
545             	3.25346500e+02
546             	3.25347237e+02
547             	3.25347970e+02
548             	3.25348697e+02
549             	3.25349421e+02
550             	3.25350140e+02
551             	3.25350856e+02
552             	3.25351568e+02
553             	3.25352280e+02
554             	3.25352987e+02
555             	3.25353690e+02
556             	3.25354389e+02
557             	3.25355084e+02
558             	3.25355775e+02
559             	3.25356462e+02
560             	3.25357144e+02
561             	3.25357822e+02
562             	3.25358494e+02
563             	3.25359161e+02
564             	3.25359822e+02
565             	3.25360479e+02
566             	3.25361131e+02
567             	3.25361779e+02
568             	3.25362422e+02
569             	3.25363061e+02
570             	3.25363694e+02
571             	3.25364323e+02
572             	3.25364948e+02
573             	3.25365573e+02
574             	3.25366192e+02
575             	3.25366806e+02
576             	3.25367415e+02
577             	3.25368022e+02
578             	3.25368626e+02
579             	3.25369225e+02
580             	3.25369820e+02
581             	3.25370408e+02
582             	3.25370993e+02
583             	3.25371574e+02
584             	3.25372149e+02
585             	3.25372719e+02
586             	3.25373285e+02
587             	3.25373847e+02
588             	3.25374405e+02
589             	3.25374961e+02
590             	3.25375515e+02
591             	3.25376067e+02
592             	3.25376616e+02
593             	3.25377162e+02
594             	3.25377706e+02
595             	3.25378247e+02
596             	3.25378786e+02
597             	3.25379320e+02
598             	3.25379852e+02
599             	3.25380381e+02
600             	3.25380907e+02
601             	3.25381429e+02
602             	3.25381949e+02
603             	3.25382466e+02
604             	3.25382981e+02
605             	3.25383494e+02
606             	3.25384005e+02
607             	3.25384515e+02
608             	3.25385021e+02
609             	3.25385527e+02
610             	3.25386029e+02
611             	3.25386529e+02
612             	3.25387026e+02
613             	3.25387520e+02
614             	3.25388015e+02
615             	3.25388507e+02
616             	3.25389002e+02
617             	3.25389494e+02
618             	3.25389984e+02
619             	3.25390475e+02
620             	3.25390966e+02
621             	3.25391457e+02
