# Region        : cellZone component_2
# Cells         : 145
# Volume        : 2.39301161e-01
# Time          	volAverage(T)
1               	3.00242398e+02
2               	3.00482270e+02
3               	3.00711863e+02
4               	3.00935018e+02
5               	3.01154319e+02
6               	3.01370905e+02
7               	3.01585657e+02
8               	3.01799958e+02
9               	3.02013143e+02
10              	3.02224999e+02
11              	3.02434037e+02
12              	3.02639271e+02
13              	3.02841742e+02
14              	3.03041608e+02
15              	3.03239186e+02
16              	3.03436364e+02
17              	3.03633073e+02
18              	3.03827467e+02
19              	3.04021812e+02
20              	3.04214421e+02
21              	3.04407230e+02
22              	3.04598816e+02
23              	3.04789606e+02
24              	3.04979850e+02
25              	3.05167702e+02
26              	3.05355788e+02
27              	3.05544080e+02
28              	3.05730050e+02
29              	3.05911260e+02
30              	3.06087902e+02
31              	3.06260129e+02
32              	3.06424007e+02
33              	3.06590788e+02
34              	3.06756304e+02
35              	3.06920512e+02
36              	3.07083621e+02
37              	3.07246306e+02
38              	3.07408558e+02
39              	3.07572419e+02
40              	3.07734856e+02
41              	3.07893662e+02
42              	3.08049727e+02
43              	3.08203022e+02
44              	3.08354491e+02
45              	3.08500067e+02
46              	3.08642037e+02
47              	3.08780791e+02
48              	3.08916602e+02
49              	3.09050811e+02
50              	3.09181414e+02
51              	3.09309346e+02
52              	3.09438092e+02
53              	3.09565638e+02
54              	3.09692331e+02
55              	3.09818685e+02
56              	3.09946480e+02
57              	3.10076161e+02
58              	3.10204098e+02
59              	3.10326944e+02
60              	3.10449676e+02
61              	3.10571249e+02
62              	3.10691591e+02
63              	3.10807698e+02
64              	3.10922110e+02
65              	3.11035696e+02
66              	3.11147676e+02
67              	3.11256400e+02
68              	3.11363976e+02
69              	3.11471489e+02
70              	3.11572814e+02
71              	3.11674848e+02
72              	3.11777673e+02
73              	3.11880565e+02
74              	3.11981481e+02
75              	3.12080033e+02
76              	3.12176949e+02
77              	3.12273093e+02
78              	3.12365997e+02
79              	3.12462258e+02
80              	3.12553264e+02
81              	3.12639739e+02
82              	3.12723703e+02
83              	3.12804488e+02
84              	3.12883933e+02
85              	3.12963045e+02
86              	3.13041845e+02
87              	3.13117631e+02
88              	3.13194744e+02
89              	3.13273902e+02
90              	3.13350493e+02
91              	3.13425957e+02
92              	3.13500387e+02
93              	3.13572717e+02
94              	3.13644359e+02
95              	3.13713117e+02
96              	3.13780037e+02
97              	3.13846554e+02
98              	3.13913107e+02
99              	3.13978548e+02
100             	3.14043965e+02
101             	3.14108320e+02
102             	3.14172683e+02
103             	3.14236278e+02
104             	3.14299542e+02
105             	3.14362175e+02
106             	3.14425116e+02
107             	3.14488945e+02
108             	3.14553392e+02
109             	3.14618647e+02
110             	3.14684161e+02
111             	3.14749558e+02
112             	3.14814068e+02
113             	3.14876658e+02
114             	3.14932842e+02
115             	3.14988605e+02
116             	3.15043723e+02
117             	3.15097479e+02
118             	3.15150951e+02
119             	3.15205002e+02
120             	3.15261153e+02
121             	3.15316330e+02
122             	3.15373374e+02
123             	3.15428787e+02
124             	3.15480526e+02
125             	3.15533551e+02
126             	3.15584124e+02
127             	3.15634288e+02
128             	3.15682478e+02
129             	3.15729504e+02
130             	3.15777010e+02
131             	3.15826643e+02
132             	3.15874444e+02
133             	3.15922483e+02
134             	3.15969717e+02
135             	3.16016721e+02
136             	3.16061509e+02
137             	3.16109827e+02
138             	3.16158352e+02
139             	3.16205783e+02
140             	3.16251438e+02
141             	3.16297497e+02
142             	3.16342462e+02
143             	3.16386757e+02
144             	3.16430783e+02
145             	3.16471991e+02
146             	3.16513305e+02
147             	3.16552647e+02
148             	3.16590622e+02
149             	3.16629177e+02
150             	3.16667312e+02
151             	3.16704702e+02
152             	3.16741010e+02
153             	3.16776426e+02
154             	3.16810347e+02
155             	3.16845194e+02
156             	3.16881971e+02
157             	3.16919260e+02
158             	3.16957759e+02
159             	3.16997496e+02
160             	3.17037773e+02
161             	3.17077600e+02
162             	3.17116850e+02
163             	3.17156183e+02
164             	3.17195168e+02
165             	3.17232237e+02
166             	3.17269163e+02
167             	3.17305902e+02
168             	3.17341808e+02
169             	3.17378475e+02
170             	3.17414090e+02
171             	3.17449532e+02
172             	3.17481925e+02
173             	3.17515193e+02
174             	3.17549052e+02
175             	3.17582673e+02
176             	3.17616530e+02
177             	3.17650759e+02
178             	3.17684875e+02
179             	3.17719302e+02
180             	3.17752411e+02
181             	3.17783670e+02
182             	3.17812625e+02
183             	3.17840412e+02
184             	3.17868272e+02
185             	3.17896512e+02
186             	3.17924967e+02
187             	3.17953329e+02
188             	3.17981071e+02
189             	3.18009212e+02
190             	3.18036938e+02
191             	3.18064916e+02
192             	3.18093396e+02
193             	3.18122947e+02
194             	3.18151880e+02
195             	3.18180190e+02
196             	3.18208156e+02
197             	3.18235588e+02
198             	3.18261430e+02
199             	3.18287472e+02
200             	3.18313487e+02
201             	3.18338999e+02
202             	3.18363122e+02
203             	3.18387197e+02
204             	3.18411583e+02
205             	3.18435778e+02
206             	3.18459607e+02
207             	3.18483077e+02
208             	3.18507027e+02
209             	3.18531366e+02
210             	3.18556253e+02
211             	3.18580868e+02
212             	3.18605732e+02
213             	3.18631092e+02
214             	3.18656449e+02
215             	3.18681599e+02
216             	3.18705941e+02
217             	3.18729944e+02
218             	3.18753059e+02
219             	3.18775517e+02
220             	3.18797494e+02
221             	3.18819370e+02
222             	3.18839656e+02
223             	3.18860540e+02
224             	3.18880905e+02
225             	3.18901605e+02
226             	3.18922176e+02
227             	3.18942571e+02
228             	3.18963352e+02
229             	3.18983284e+02
230             	3.19003057e+02
231             	3.19023206e+02
232             	3.19043190e+02
233             	3.19063224e+02
234             	3.19083122e+02
235             	3.19102807e+02
236             	3.19121468e+02
237             	3.19140631e+02
238             	3.19159952e+02
239             	3.19179097e+02
240             	3.19197988e+02
241             	3.19216732e+02
242             	3.19235419e+02
243             	3.19254049e+02
244             	3.19272723e+02
245             	3.19291272e+02
246             	3.19309551e+02
247             	3.19327992e+02
248             	3.19345700e+02
249             	3.19363278e+02
250             	3.19380244e+02
251             	3.19397557e+02
252             	3.19414801e+02
253             	3.19431823e+02
254             	3.19448680e+02
255             	3.19465236e+02
256             	3.19481649e+02
257             	3.19498315e+02
258             	3.19514562e+02
259             	3.19530782e+02
260             	3.19546657e+02
261             	3.19562365e+02
262             	3.19577902e+02
263             	3.19593125e+02
264             	3.19608278e+02
265             	3.19623252e+02
266             	3.19637998e+02
267             	3.19652317e+02
268             	3.19666645e+02
269             	3.19680917e+02
270             	3.19694684e+02
271             	3.19708512e+02
272             	3.19722640e+02
273             	3.19736396e+02
274             	3.19750022e+02
275             	3.19763606e+02
276             	3.19777210e+02
277             	3.19790904e+02
278             	3.19804399e+02
279             	3.19817653e+02
280             	3.19830788e+02
281             	3.19843879e+02
282             	3.19856884e+02
283             	3.19869738e+02
284             	3.19882418e+02
285             	3.19894992e+02
286             	3.19907394e+02
287             	3.19919571e+02
288             	3.19931321e+02
289             	3.19943116e+02
290             	3.19954879e+02
291             	3.19966489e+02
292             	3.19977860e+02
293             	3.19989255e+02
294             	3.20000630e+02
295             	3.20011867e+02
296             	3.20023008e+02
297             	3.20034072e+02
298             	3.20045038e+02
299             	3.20056179e+02
300             	3.20066974e+02
301             	3.20077719e+02
302             	3.20088377e+02
303             	3.20098917e+02
304             	3.20109209e+02
305             	3.20119145e+02
306             	3.20129366e+02
307             	3.20139555e+02
308             	3.20149534e+02
309             	3.20159358e+02
310             	3.20168893e+02
311             	3.20178285e+02
312             	3.20187696e+02
313             	3.20197075e+02
314             	3.20206444e+02
315             	3.20215771e+02
316             	3.20225063e+02
317             	3.20234311e+02
318             	3.20243549e+02
319             	3.20252747e+02
320             	3.20261873e+02
321             	3.20270877e+02
322             	3.20279820e+02
323             	3.20288547e+02
324             	3.20297305e+02
325             	3.20305922e+02
326             	3.20314445e+02
327             	3.20322887e+02
328             	3.20331250e+02
329             	3.20339469e+02
330             	3.20347604e+02
331             	3.20355617e+02
332             	3.20363650e+02
333             	3.20371589e+02
334             	3.20379366e+02
335             	3.20387074e+02
336             	3.20394715e+02
337             	3.20402066e+02
338             	3.20409554e+02
339             	3.20417097e+02
340             	3.20424529e+02
341             	3.20431954e+02
342             	3.20439301e+02
343             	3.20446643e+02
344             	3.20453962e+02
345             	3.20461222e+02
346             	3.20468529e+02
347             	3.20475713e+02
348             	3.20482958e+02
349             	3.20490098e+02
350             	3.20497238e+02
351             	3.20504276e+02
352             	3.20511250e+02
353             	3.20518117e+02
354             	3.20524834e+02
355             	3.20531357e+02
356             	3.20537866e+02
357             	3.20544284e+02
358             	3.20550533e+02
359             	3.20556658e+02
360             	3.20562673e+02
361             	3.20568634e+02
362             	3.20574604e+02
363             	3.20580557e+02
364             	3.20586496e+02
365             	3.20592371e+02
366             	3.20598220e+02
367             	3.20604020e+02
368             	3.20609755e+02
369             	3.20615431e+02
370             	3.20621073e+02
371             	3.20626684e+02
372             	3.20632126e+02
373             	3.20637503e+02
374             	3.20642817e+02
375             	3.20648084e+02
376             	3.20653296e+02
377             	3.20658448e+02
378             	3.20663473e+02
379             	3.20668405e+02
380             	3.20673379e+02
381             	3.20678311e+02
382             	3.20683172e+02
383             	3.20687990e+02
384             	3.20692763e+02
385             	3.20697548e+02
386             	3.20702367e+02
387             	3.20707209e+02
388             	3.20712035e+02
389             	3.20716836e+02
390             	3.20721575e+02
391             	3.20726267e+02
392             	3.20730925e+02
393             	3.20735519e+02
394             	3.20740056e+02
395             	3.20744493e+02
396             	3.20748820e+02
397             	3.20753070e+02
398             	3.20757294e+02
399             	3.20761423e+02
400             	3.20765552e+02
401             	3.20769655e+02
402             	3.20773808e+02
403             	3.20777917e+02
404             	3.20781951e+02
405             	3.20785909e+02
406             	3.20789845e+02
407             	3.20793758e+02
408             	3.20797632e+02
409             	3.20801442e+02
410             	3.20805235e+02
411             	3.20808914e+02
412             	3.20812594e+02
413             	3.20816358e+02
414             	3.20820092e+02
415             	3.20823756e+02
416             	3.20827374e+02
417             	3.20831047e+02
418             	3.20834602e+02
419             	3.20838152e+02
420             	3.20841646e+02
421             	3.20845131e+02
422             	3.20848586e+02
423             	3.20851990e+02
424             	3.20855291e+02
425             	3.20858513e+02
426             	3.20861779e+02
427             	3.20865031e+02
428             	3.20868203e+02
429             	3.20871376e+02
430             	3.20874532e+02
431             	3.20877650e+02
432             	3.20880751e+02
433             	3.20883879e+02
434             	3.20886934e+02
435             	3.20889974e+02
436             	3.20892987e+02
437             	3.20896002e+02
438             	3.20899014e+02
439             	3.20902004e+02
440             	3.20904951e+02
441             	3.20907866e+02
442             	3.20910742e+02
443             	3.20913536e+02
444             	3.20916349e+02
445             	3.20919154e+02
446             	3.20921982e+02
447             	3.20924765e+02
448             	3.20927471e+02
449             	3.20930155e+02
450             	3.20932819e+02
451             	3.20935441e+02
452             	3.20937920e+02
453             	3.20940402e+02
454             	3.20942909e+02
455             	3.20945440e+02
456             	3.20947930e+02
457             	3.20950390e+02
458             	3.20952826e+02
459             	3.20955246e+02
460             	3.20957659e+02
461             	3.20960075e+02
462             	3.20962463e+02
463             	3.20964832e+02
464             	3.20967209e+02
465             	3.20969570e+02
466             	3.20971902e+02
467             	3.20974204e+02
468             	3.20976471e+02
469             	3.20978710e+02
470             	3.20980919e+02
471             	3.20983108e+02
472             	3.20985305e+02
473             	3.20987452e+02
474             	3.20989449e+02
475             	3.20991517e+02
476             	3.20993604e+02
477             	3.20995664e+02
478             	3.20997700e+02
479             	3.20999734e+02
480             	3.21001794e+02
481             	3.21003793e+02
482             	3.21005818e+02
483             	3.21007843e+02
484             	3.21009845e+02
485             	3.21011832e+02
486             	3.21013761e+02
487             	3.21015655e+02
488             	3.21017512e+02
489             	3.21019331e+02
490             	3.21021048e+02
491             	3.21022821e+02
492             	3.21024586e+02
493             	3.21026336e+02
494             	3.21028076e+02
495             	3.21029821e+02
496             	3.21031597e+02
497             	3.21033336e+02
498             	3.21035092e+02
499             	3.21036858e+02
500             	3.21038588e+02
501             	3.21040267e+02
502             	3.21041919e+02
503             	3.21043587e+02
504             	3.21045235e+02
505             	3.21046863e+02
506             	3.21048483e+02
507             	3.21050091e+02
508             	3.21051683e+02
509             	3.21053242e+02
510             	3.21054776e+02
511             	3.21056263e+02
512             	3.21057727e+02
513             	3.21059179e+02
514             	3.21060528e+02
515             	3.21061932e+02
516             	3.21063340e+02
517             	3.21064731e+02
518             	3.21066030e+02
519             	3.21067447e+02
520             	3.21068802e+02
521             	3.21070153e+02
522             	3.21071524e+02
523             	3.21072924e+02
524             	3.21074319e+02
525             	3.21075690e+02
526             	3.21077039e+02
527             	3.21078346e+02
528             	3.21079620e+02
529             	3.21080781e+02
530             	3.21081929e+02
531             	3.21083130e+02
532             	3.21084327e+02
533             	3.21085500e+02
534             	3.21086657e+02
535             	3.21087870e+02
536             	3.21089023e+02
537             	3.21090169e+02
538             	3.21091329e+02
539             	3.21092493e+02
540             	3.21093606e+02
541             	3.21094738e+02
542             	3.21095894e+02
543             	3.21097021e+02
544             	3.21098131e+02
545             	3.21099234e+02
546             	3.21100342e+02
547             	3.21101431e+02
548             	3.21102516e+02
549             	3.21103597e+02
550             	3.21104675e+02
551             	3.21105748e+02
552             	3.21106815e+02
553             	3.21107882e+02
554             	3.21108945e+02
555             	3.21110002e+02
556             	3.21111008e+02
557             	3.21112037e+02
558             	3.21113067e+02
559             	3.21114089e+02
560             	3.21115102e+02
561             	3.21116083e+02
562             	3.21117045e+02
563             	3.21117974e+02
564             	3.21118877e+02
565             	3.21119743e+02
566             	3.21120593e+02
567             	3.21121468e+02
568             	3.21122318e+02
569             	3.21123150e+02
570             	3.21123974e+02
571             	3.21124796e+02
572             	3.21125614e+02
573             	3.21126424e+02
574             	3.21127214e+02
575             	3.21127974e+02
576             	3.21128743e+02
577             	3.21129505e+02
578             	3.21130256e+02
579             	3.21130998e+02
580             	3.21131741e+02
581             	3.21132481e+02
582             	3.21133223e+02
583             	3.21133966e+02
584             	3.21134709e+02
585             	3.21135452e+02
586             	3.21136197e+02
587             	3.21136944e+02
588             	3.21137682e+02
589             	3.21138410e+02
590             	3.21139134e+02
591             	3.21139859e+02
592             	3.21140573e+02
593             	3.21141274e+02
594             	3.21141973e+02
595             	3.21142650e+02
596             	3.21143316e+02
597             	3.21143991e+02
598             	3.21144632e+02
599             	3.21145249e+02
600             	3.21145832e+02
601             	3.21146414e+02
602             	3.21146981e+02
603             	3.21147476e+02
604             	3.21148010e+02
605             	3.21148550e+02
606             	3.21149081e+02
607             	3.21149607e+02
608             	3.21150144e+02
609             	3.21150689e+02
610             	3.21151252e+02
611             	3.21151787e+02
612             	3.21152312e+02
613             	3.21152848e+02
614             	3.21153384e+02
615             	3.21153890e+02
616             	3.21154387e+02
617             	3.21154902e+02
618             	3.21155399e+02
619             	3.21155902e+02
620             	3.21156403e+02
621             	3.21156930e+02
