# Region        : cellZone component_3
# Cells         : 71
# Volume        : 1.40115441e-01
# Time          	volAverage(T)
1               	3.00738328e+02
2               	3.01461137e+02
3               	3.02127339e+02
4               	3.02750055e+02
5               	3.03343811e+02
6               	3.03916610e+02
7               	3.04471755e+02
8               	3.05011750e+02
9               	3.05539887e+02
10              	3.06049758e+02
11              	3.06558146e+02
12              	3.07063719e+02
13              	3.07560119e+02
14              	3.08038441e+02
15              	3.08496887e+02
16              	3.08925590e+02
17              	3.09346912e+02
18              	3.09760640e+02
19              	3.10169296e+02
20              	3.10569645e+02
21              	3.10960039e+02
22              	3.11339492e+02
23              	3.11707067e+02
24              	3.12061894e+02
25              	3.12402855e+02
26              	3.12736734e+02
27              	3.13051285e+02
28              	3.13356023e+02
29              	3.13648437e+02
30              	3.13936516e+02
31              	3.14220806e+02
32              	3.14504141e+02
33              	3.14787208e+02
34              	3.15069552e+02
35              	3.15347134e+02
36              	3.15621092e+02
37              	3.15882686e+02
38              	3.16133843e+02
39              	3.16376019e+02
40              	3.16599093e+02
41              	3.16804853e+02
42              	3.17000539e+02
43              	3.17186177e+02
44              	3.17359424e+02
45              	3.17524407e+02
46              	3.17691130e+02
47              	3.17857697e+02
48              	3.18027743e+02
49              	3.18200195e+02
50              	3.18371666e+02
51              	3.18536159e+02
52              	3.18695649e+02
53              	3.18848852e+02
54              	3.18991835e+02
55              	3.19124345e+02
56              	3.19247881e+02
57              	3.19370131e+02
58              	3.19485089e+02
59              	3.19597884e+02
60              	3.19700171e+02
61              	3.19800109e+02
62              	3.19899679e+02
63              	3.19996115e+02
64              	3.20099685e+02
65              	3.20213078e+02
66              	3.20339224e+02
67              	3.20477195e+02
68              	3.20615927e+02
69              	3.20742427e+02
70              	3.20860483e+02
71              	3.20967532e+02
72              	3.21060284e+02
73              	3.21138506e+02
74              	3.21207686e+02
75              	3.21273910e+02
76              	3.21338079e+02
77              	3.21401566e+02
78              	3.21469430e+02
79              	3.21546168e+02
80              	3.21631415e+02
81              	3.21715839e+02
82              	3.21796638e+02
83              	3.21875221e+02
84              	3.21946558e+02
85              	3.22009069e+02
86              	3.22063722e+02
87              	3.22111227e+02
88              	3.22156848e+02
89              	3.22202979e+02
90              	3.22246524e+02
91              	3.22293763e+02
92              	3.22345169e+02
93              	3.22404785e+02
94              	3.22469587e+02
95              	3.22537512e+02
96              	3.22607442e+02
97              	3.22677311e+02
98              	3.22741410e+02
99              	3.22798814e+02
100             	3.22848260e+02
101             	3.22889363e+02
102             	3.22922925e+02
103             	3.22949868e+02
104             	3.22975029e+02
105             	3.23002417e+02
106             	3.23034933e+02
107             	3.23073428e+02
108             	3.23115590e+02
109             	3.23163453e+02
110             	3.23212425e+02
111             	3.23262155e+02
112             	3.23308502e+02
113             	3.23351763e+02
114             	3.23389852e+02
115             	3.23422041e+02
116             	3.23448462e+02
117             	3.23468693e+02
118             	3.23483696e+02
119             	3.23497564e+02
120             	3.23511243e+02
121             	3.23526035e+02
122             	3.23545224e+02
123             	3.23571727e+02
124             	3.23605402e+02
125             	3.23644398e+02
126             	3.23682739e+02
127             	3.23719313e+02
128             	3.23753150e+02
129             	3.23782328e+02
130             	3.23806536e+02
131             	3.23826910e+02
132             	3.23844147e+02
133             	3.23859494e+02
134             	3.23874076e+02
135             	3.23888418e+02
136             	3.23903190e+02
137             	3.23918596e+02
138             	3.23936621e+02
139             	3.23958240e+02
140             	3.23980069e+02
141             	3.24002889e+02
142             	3.24024980e+02
143             	3.24046094e+02
144             	3.24065644e+02
145             	3.24083115e+02
146             	3.24098209e+02
147             	3.24110771e+02
148             	3.24120437e+02
149             	3.24127236e+02
150             	3.24132496e+02
151             	3.24137820e+02
152             	3.24143443e+02
153             	3.24151661e+02
154             	3.24162806e+02
155             	3.24180033e+02
156             	3.24201889e+02
157             	3.24226923e+02
158             	3.24253239e+02
159             	3.24276710e+02
160             	3.24297519e+02
161             	3.24313986e+02
162             	3.24326401e+02
163             	3.24334830e+02
164             	3.24339345e+02
165             	3.24341850e+02
166             	3.24341702e+02
167             	3.24341653e+02
168             	3.24342975e+02
169             	3.24349457e+02
170             	3.24361699e+02
171             	3.24377443e+02
172             	3.24395525e+02
173             	3.24414190e+02
174             	3.24433445e+02
175             	3.24450796e+02
176             	3.24466755e+02
177             	3.24480631e+02
178             	3.24490916e+02
179             	3.24496151e+02
180             	3.24498463e+02
181             	3.24501743e+02
182             	3.24504058e+02
183             	3.24506710e+02
184             	3.24511544e+02
185             	3.24519181e+02
186             	3.24528892e+02
187             	3.24539816e+02
188             	3.24551460e+02
189             	3.24563459e+02
190             	3.24574975e+02
191             	3.24583419e+02
192             	3.24588455e+02
193             	3.24591072e+02
194             	3.24593667e+02
195             	3.24594917e+02
196             	3.24595263e+02
197             	3.24595684e+02
198             	3.24596826e+02
199             	3.24599369e+02
200             	3.24604536e+02
201             	3.24612394e+02
202             	3.24620887e+02
203             	3.24630076e+02
204             	3.24638709e+02
205             	3.24645896e+02
206             	3.24651813e+02
207             	3.24656114e+02
208             	3.24659040e+02
209             	3.24660487e+02
210             	3.24662237e+02
211             	3.24664126e+02
212             	3.24666511e+02
213             	3.24669747e+02
214             	3.24673984e+02
215             	3.24679314e+02
216             	3.24685129e+02
217             	3.24691298e+02
218             	3.24696290e+02
219             	3.24700085e+02
220             	3.24702493e+02
221             	3.24703381e+02
222             	3.24703994e+02
223             	3.24705800e+02
224             	3.24708030e+02
225             	3.24710730e+02
226             	3.24713883e+02
227             	3.24717170e+02
228             	3.24720551e+02
229             	3.24724150e+02
230             	3.24727941e+02
231             	3.24732091e+02
232             	3.24736529e+02
233             	3.24740887e+02
234             	3.24744891e+02
235             	3.24748521e+02
236             	3.24751802e+02
237             	3.24754899e+02
238             	3.24757843e+02
239             	3.24760522e+02
240             	3.24763088e+02
241             	3.24765569e+02
242             	3.24767914e+02
243             	3.24770054e+02
244             	3.24771926e+02
245             	3.24773488e+02
246             	3.24774681e+02
247             	3.24775520e+02
248             	3.24776125e+02
249             	3.24776791e+02
250             	3.24777739e+02
251             	3.24778923e+02
252             	3.24780461e+02
253             	3.24782420e+02
254             	3.24784585e+02
255             	3.24786802e+02
256             	3.24788840e+02
257             	3.24790737e+02
258             	3.24792496e+02
259             	3.24794257e+02
260             	3.24796060e+02
261             	3.24797761e+02
262             	3.24799389e+02
263             	3.24800989e+02
264             	3.24802304e+02
265             	3.24803368e+02
266             	3.24804242e+02
267             	3.24804918e+02
268             	3.24805540e+02
269             	3.24806146e+02
270             	3.24806698e+02
271             	3.24807249e+02
272             	3.24807745e+02
273             	3.24808243e+02
274             	3.24808828e+02
275             	3.24809567e+02
276             	3.24810670e+02
277             	3.24812118e+02
278             	3.24813519e+02
279             	3.24815053e+02
280             	3.24816553e+02
281             	3.24817984e+02
282             	3.24819327e+02
283             	3.24820516e+02
284             	3.24821504e+02
285             	3.24822218e+02
286             	3.24822729e+02
287             	3.24823149e+02
288             	3.24823721e+02
289             	3.24824413e+02
290             	3.24825238e+02
291             	3.24826239e+02
292             	3.24827355e+02
293             	3.24828363e+02
294             	3.24829294e+02
295             	3.24830193e+02
296             	3.24831032e+02
297             	3.24831729e+02
298             	3.24832267e+02
299             	3.24832624e+02
300             	3.24832839e+02
301             	3.24832968e+02
302             	3.24833048e+02
303             	3.24833250e+02
304             	3.24833518e+02
305             	3.24833892e+02
306             	3.24834381e+02
307             	3.24834986e+02
308             	3.24835681e+02
309             	3.24836500e+02
310             	3.24837438e+02
311             	3.24838484e+02
312             	3.24839514e+02
313             	3.24840514e+02
314             	3.24841422e+02
315             	3.24842235e+02
316             	3.24842938e+02
317             	3.24843477e+02
318             	3.24843853e+02
319             	3.24844082e+02
320             	3.24844240e+02
321             	3.24844330e+02
322             	3.24844371e+02
323             	3.24844393e+02
324             	3.24844449e+02
325             	3.24844525e+02
326             	3.24844630e+02
327             	3.24844790e+02
328             	3.24845031e+02
329             	3.24845366e+02
330             	3.24845800e+02
331             	3.24846320e+02
332             	3.24846880e+02
333             	3.24847378e+02
334             	3.24847817e+02
335             	3.24848197e+02
336             	3.24848489e+02
337             	3.24848661e+02
338             	3.24848705e+02
339             	3.24848759e+02
340             	3.24848790e+02
341             	3.24848828e+02
342             	3.24848892e+02
343             	3.24848997e+02
344             	3.24849210e+02
345             	3.24849531e+02
346             	3.24849928e+02
347             	3.24850353e+02
348             	3.24850803e+02
349             	3.24851273e+02
350             	3.24851686e+02
351             	3.24852052e+02
352             	3.24852364e+02
353             	3.24852553e+02
354             	3.24852646e+02
355             	3.24852715e+02
356             	3.24852732e+02
357             	3.24852721e+02
358             	3.24852689e+02
359             	3.24852664e+02
360             	3.24852773e+02
361             	3.24853004e+02
362             	3.24853321e+02
363             	3.24853627e+02
364             	3.24853946e+02
365             	3.24854273e+02
366             	3.24854603e+02
367             	3.24854898e+02
368             	3.24855137e+02
369             	3.24855297e+02
370             	3.24855344e+02
371             	3.24855288e+02
372             	3.24855147e+02
373             	3.24855024e+02
374             	3.24854961e+02
375             	3.24854980e+02
376             	3.24855092e+02
377             	3.24855306e+02
378             	3.24855598e+02
379             	3.24855985e+02
380             	3.24856341e+02
381             	3.24856684e+02
382             	3.24856971e+02
383             	3.24857178e+02
384             	3.24857311e+02
385             	3.24857369e+02
386             	3.24857356e+02
387             	3.24857306e+02
388             	3.24857223e+02
389             	3.24857128e+02
390             	3.24857038e+02
391             	3.24856972e+02
392             	3.24856967e+02
393             	3.24856966e+02
394             	3.24857002e+02
395             	3.24857072e+02
396             	3.24857162e+02
397             	3.24857262e+02
398             	3.24857362e+02
399             	3.24857457e+02
400             	3.24857585e+02
401             	3.24857728e+02
402             	3.24857889e+02
403             	3.24858076e+02
404             	3.24858226e+02
405             	3.24858368e+02
406             	3.24858498e+02
407             	3.24858624e+02
408             	3.24858744e+02
409             	3.24858856e+02
410             	3.24858957e+02
411             	3.24859041e+02
412             	3.24859101e+02
413             	3.24859126e+02
414             	3.24859116e+02
415             	3.24859121e+02
416             	3.24859127e+02
417             	3.24859137e+02
418             	3.24859156e+02
419             	3.24859194e+02
420             	3.24859261e+02
421             	3.24859361e+02
422             	3.24859466e+02
423             	3.24859589e+02
424             	3.24859707e+02
425             	3.24859820e+02
426             	3.24859925e+02
427             	3.24860013e+02
428             	3.24860076e+02
429             	3.24860114e+02
430             	3.24860124e+02
431             	3.24860113e+02
432             	3.24860088e+02
433             	3.24860056e+02
434             	3.24860029e+02
435             	3.24860006e+02
436             	3.24859992e+02
437             	3.24859993e+02
438             	3.24860005e+02
439             	3.24860027e+02
440             	3.24860055e+02
441             	3.24860082e+02
442             	3.24860105e+02
443             	3.24860125e+02
444             	3.24860139e+02
445             	3.24860149e+02
446             	3.24860159e+02
447             	3.24860173e+02
448             	3.24860197e+02
449             	3.24860237e+02
450             	3.24860290e+02
451             	3.24860358e+02
452             	3.24860427e+02
453             	3.24860500e+02
454             	3.24860578e+02
455             	3.24860659e+02
456             	3.24860742e+02
457             	3.24860819e+02
458             	3.24860892e+02
459             	3.24860957e+02
460             	3.24861014e+02
461             	3.24861060e+02
462             	3.24861097e+02
463             	3.24861125e+02
464             	3.24861147e+02
465             	3.24861164e+02
466             	3.24861177e+02
467             	3.24861187e+02
468             	3.24861194e+02
469             	3.24861197e+02
470             	3.24861197e+02
471             	3.24861201e+02
472             	3.24861210e+02
473             	3.24861227e+02
474             	3.24861253e+02
475             	3.24861291e+02
476             	3.24861336e+02
477             	3.24861389e+02
478             	3.24861443e+02
479             	3.24861499e+02
480             	3.24861561e+02
481             	3.24861624e+02
482             	3.24861678e+02
483             	3.24861725e+02
484             	3.24861768e+02
485             	3.24861807e+02
486             	3.24861840e+02
487             	3.24861872e+02
488             	3.24861903e+02
489             	3.24861933e+02
490             	3.24861961e+02
491             	3.24861985e+02
492             	3.24862012e+02
493             	3.24862041e+02
494             	3.24862074e+02
495             	3.24862110e+02
496             	3.24862147e+02
497             	3.24862186e+02
498             	3.24862226e+02
499             	3.24862264e+02
500             	3.24862311e+02
501             	3.24862361e+02
502             	3.24862411e+02
503             	3.24862462e+02
504             	3.24862510e+02
505             	3.24862559e+02
506             	3.24862597e+02
507             	3.24862613e+02
508             	3.24862613e+02
509             	3.24862593e+02
510             	3.24862563e+02
511             	3.24862550e+02
512             	3.24862541e+02
513             	3.24862541e+02
514             	3.24862553e+02
515             	3.24862578e+02
516             	3.24862615e+02
517             	3.24862668e+02
518             	3.24862726e+02
519             	3.24862784e+02
520             	3.24862838e+02
521             	3.24862888e+02
522             	3.24862933e+02
523             	3.24862971e+02
524             	3.24863014e+02
525             	3.24863048e+02
526             	3.24863075e+02
527             	3.24863095e+02
528             	3.24863116e+02
529             	3.24863141e+02
530             	3.24863168e+02
531             	3.24863201e+02
532             	3.24863228e+02
533             	3.24863253e+02
534             	3.24863271e+02
535             	3.24863264e+02
536             	3.24863230e+02
537             	3.24863167e+02
538             	3.24863097e+02
539             	3.24863027e+02
540             	3.24862967e+02
541             	3.24862925e+02
542             	3.24862901e+02
543             	3.24862900e+02
544             	3.24862923e+02
545             	3.24862974e+02
546             	3.24863046e+02
547             	3.24863119e+02
548             	3.24863185e+02
549             	3.24863242e+02
550             	3.24863296e+02
551             	3.24863339e+02
552             	3.24863367e+02
553             	3.24863375e+02
554             	3.24863373e+02
555             	3.24863357e+02
556             	3.24863322e+02
557             	3.24863275e+02
558             	3.24863217e+02
559             	3.24863178e+02
560             	3.24863152e+02
561             	3.24863147e+02
562             	3.24863164e+02
563             	3.24863203e+02
564             	3.24863263e+02
565             	3.24863340e+02
566             	3.24863421e+02
567             	3.24863504e+02
568             	3.24863586e+02
569             	3.24863663e+02
570             	3.24863729e+02
571             	3.24863783e+02
572             	3.24863822e+02
573             	3.24863847e+02
574             	3.24863862e+02
575             	3.24863867e+02
576             	3.24863865e+02
577             	3.24863857e+02
578             	3.24863843e+02
579             	3.24863823e+02
580             	3.24863799e+02
581             	3.24863769e+02
582             	3.24863736e+02
583             	3.24863701e+02
584             	3.24863663e+02
585             	3.24863623e+02
586             	3.24863583e+02
587             	3.24863545e+02
588             	3.24863506e+02
589             	3.24863469e+02
590             	3.24863433e+02
591             	3.24863403e+02
592             	3.24863378e+02
593             	3.24863362e+02
594             	3.24863352e+02
595             	3.24863350e+02
596             	3.24863354e+02
597             	3.24863365e+02
598             	3.24863382e+02
599             	3.24863402e+02
600             	3.24863422e+02
601             	3.24863442e+02
602             	3.24863463e+02
603             	3.24863486e+02
604             	3.24863511e+02
605             	3.24863542e+02
606             	3.24863577e+02
607             	3.24863620e+02
608             	3.24863670e+02
609             	3.24863723e+02
610             	3.24863775e+02
611             	3.24863825e+02
612             	3.24863874e+02
613             	3.24863919e+02
614             	3.24863960e+02
615             	3.24863998e+02
616             	3.24864019e+02
617             	3.24864028e+02
618             	3.24864024e+02
619             	3.24864009e+02
620             	3.24863983e+02
621             	3.24863946e+02
