# Region        : cellZone component_1
# Cells         : 66
# Volume        : 1.10479823e-01
# Time          	volAverage(T)
1               	3.01335906e+02
2               	3.02639820e+02
3               	3.03711620e+02
4               	3.04643268e+02
5               	3.05525770e+02
6               	3.06396585e+02
7               	3.07239889e+02
8               	3.08058482e+02
9               	3.08860799e+02
10              	3.09642450e+02
11              	3.10394976e+02
12              	3.11097605e+02
13              	3.11762822e+02
14              	3.12418039e+02
15              	3.13035425e+02
16              	3.13630575e+02
17              	3.14206447e+02
18              	3.14766794e+02
19              	3.15311191e+02
20              	3.15840687e+02
21              	3.16352652e+02
22              	3.16843022e+02
23              	3.17275981e+02
24              	3.17699779e+02
25              	3.18131929e+02
26              	3.18575167e+02
27              	3.19006444e+02
28              	3.19412238e+02
29              	3.19787552e+02
30              	3.20137793e+02
31              	3.20464432e+02
32              	3.20771852e+02
33              	3.21054183e+02
34              	3.21317811e+02
35              	3.21572779e+02
36              	3.21816296e+02
37              	3.22051400e+02
38              	3.22287334e+02
39              	3.22518858e+02
40              	3.22745009e+02
41              	3.22962300e+02
42              	3.23170907e+02
43              	3.23372705e+02
44              	3.23559083e+02
45              	3.23749988e+02
46              	3.23950146e+02
47              	3.24154941e+02
48              	3.24355702e+02
49              	3.24554286e+02
50              	3.24751548e+02
51              	3.24950169e+02
52              	3.25104121e+02
53              	3.25262065e+02
54              	3.25426545e+02
55              	3.25576494e+02
56              	3.25711205e+02
57              	3.25849782e+02
58              	3.26009174e+02
59              	3.26177101e+02
60              	3.26344702e+02
61              	3.26510060e+02
62              	3.26683416e+02
63              	3.26859181e+02
64              	3.26995069e+02
65              	3.27139405e+02
66              	3.27286299e+02
67              	3.27425412e+02
68              	3.27551203e+02
69              	3.27667302e+02
70              	3.27779359e+02
71              	3.27890689e+02
72              	3.28000953e+02
73              	3.28099192e+02
74              	3.28209143e+02
75              	3.28339335e+02
76              	3.28486420e+02
77              	3.28646587e+02
78              	3.28818680e+02
79              	3.28991331e+02
80              	3.29117557e+02
81              	3.29254161e+02
82              	3.29400721e+02
83              	3.29539917e+02
84              	3.29678675e+02
85              	3.29808883e+02
86              	3.29930049e+02
87              	3.30047369e+02
88              	3.30135960e+02
89              	3.30218603e+02
90              	3.30316771e+02
91              	3.30423387e+02
92              	3.30530038e+02
93              	3.30633898e+02
94              	3.30741863e+02
95              	3.30830681e+02
96              	3.30904078e+02
97              	3.30972905e+02
98              	3.31056376e+02
99              	3.31129177e+02
100             	3.31198057e+02
101             	3.31269030e+02
102             	3.31296957e+02
103             	3.31303623e+02
104             	3.31346682e+02
105             	3.31425951e+02
106             	3.31496769e+02
107             	3.31590252e+02
108             	3.31694899e+02
109             	3.31770927e+02
110             	3.31831080e+02
111             	3.31904620e+02
112             	3.31984662e+02
113             	3.32007481e+02
114             	3.32031285e+02
115             	3.31994910e+02
116             	3.31989273e+02
117             	3.32016924e+02
118             	3.32062876e+02
119             	3.32121096e+02
120             	3.32193535e+02
121             	3.32271760e+02
122             	3.32320046e+02
123             	3.32393697e+02
124             	3.32450886e+02
125             	3.32520253e+02
126             	3.32597572e+02
127             	3.32639271e+02
128             	3.32683751e+02
129             	3.32726180e+02
130             	3.32725413e+02
131             	3.32713848e+02
132             	3.32701792e+02
133             	3.32694151e+02
134             	3.32693965e+02
135             	3.32704564e+02
136             	3.32722511e+02
137             	3.32750487e+02
138             	3.32758128e+02
139             	3.32792677e+02
140             	3.32841176e+02
141             	3.32916415e+02
142             	3.32948523e+02
143             	3.32963301e+02
144             	3.32977831e+02
145             	3.32989602e+02
146             	3.32996793e+02
147             	3.32994141e+02
148             	3.32975607e+02
149             	3.32969990e+02
150             	3.32980796e+02
151             	3.32994723e+02
152             	3.33012768e+02
153             	3.33046391e+02
154             	3.33099063e+02
155             	3.33123013e+02
156             	3.33168986e+02
157             	3.33203901e+02
158             	3.33255174e+02
159             	3.33278850e+02
160             	3.33306500e+02
161             	3.33300369e+02
162             	3.33280921e+02
163             	3.33258699e+02
164             	3.33255961e+02
165             	3.33240295e+02
166             	3.33238176e+02
167             	3.33251873e+02
168             	3.33279402e+02
169             	3.33306023e+02
170             	3.33306183e+02
171             	3.33327580e+02
172             	3.33334182e+02
173             	3.33358048e+02
174             	3.33383982e+02
175             	3.33399744e+02
176             	3.33404137e+02
177             	3.33398151e+02
178             	3.33383591e+02
179             	3.33367617e+02
180             	3.33344001e+02
181             	3.33297484e+02
182             	3.33257882e+02
183             	3.33232106e+02
184             	3.33218160e+02
185             	3.33215941e+02
186             	3.33237030e+02
187             	3.33276731e+02
188             	3.33332732e+02
189             	3.33373319e+02
190             	3.33409071e+02
191             	3.33466250e+02
192             	3.33522935e+02
193             	3.33572680e+02
194             	3.33612794e+02
195             	3.33633942e+02
196             	3.33632878e+02
197             	3.33631338e+02
198             	3.33639293e+02
199             	3.33652882e+02
200             	3.33670119e+02
201             	3.33690768e+02
202             	3.33715995e+02
203             	3.33743279e+02
204             	3.33772280e+02
205             	3.33802258e+02
206             	3.33836247e+02
207             	3.33838736e+02
208             	3.33860016e+02
209             	3.33891490e+02
210             	3.33923587e+02
211             	3.33952544e+02
212             	3.33974803e+02
213             	3.33988390e+02
214             	3.33997668e+02
215             	3.34002397e+02
216             	3.34003510e+02
217             	3.34007042e+02
218             	3.34000075e+02
219             	3.33988040e+02
220             	3.33975692e+02
221             	3.33964456e+02
222             	3.33949764e+02
223             	3.33942851e+02
224             	3.33941798e+02
225             	3.33945367e+02
226             	3.33934194e+02
227             	3.33947390e+02
228             	3.33979272e+02
229             	3.34016367e+02
230             	3.34053499e+02
231             	3.34088933e+02
232             	3.34126052e+02
233             	3.34161682e+02
234             	3.34182483e+02
235             	3.34197785e+02
236             	3.34216206e+02
237             	3.34204626e+02
238             	3.34206058e+02
239             	3.34196328e+02
240             	3.34180568e+02
241             	3.34169000e+02
242             	3.34158735e+02
243             	3.34151029e+02
244             	3.34148766e+02
245             	3.34149832e+02
246             	3.34151535e+02
247             	3.34155866e+02
248             	3.34163001e+02
249             	3.34140394e+02
250             	3.34137230e+02
251             	3.34151707e+02
252             	3.34170344e+02
253             	3.34186415e+02
254             	3.34201144e+02
255             	3.34215701e+02
256             	3.34231300e+02
257             	3.34248943e+02
258             	3.34268929e+02
259             	3.34290316e+02
260             	3.34313713e+02
261             	3.34314175e+02
262             	3.34326017e+02
263             	3.34343737e+02
264             	3.34361593e+02
265             	3.34377315e+02
266             	3.34391998e+02
267             	3.34413641e+02
268             	3.34436090e+02
269             	3.34456102e+02
270             	3.34473205e+02
271             	3.34487891e+02
272             	3.34500948e+02
273             	3.34507932e+02
274             	3.34521225e+02
275             	3.34536089e+02
276             	3.34549630e+02
277             	3.34565651e+02
278             	3.34581080e+02
279             	3.34591911e+02
280             	3.34598187e+02
281             	3.34599052e+02
282             	3.34599179e+02
283             	3.34600721e+02
284             	3.34601150e+02
285             	3.34599585e+02
286             	3.34594536e+02
287             	3.34585940e+02
288             	3.34574225e+02
289             	3.34553998e+02
290             	3.34542333e+02
291             	3.34534210e+02
292             	3.34526429e+02
293             	3.34518427e+02
294             	3.34513069e+02
295             	3.34476436e+02
296             	3.34454595e+02
297             	3.34442248e+02
298             	3.34432045e+02
299             	3.34420061e+02
300             	3.34404976e+02
301             	3.34392005e+02
302             	3.34387691e+02
303             	3.34402308e+02
304             	3.34421871e+02
305             	3.34441703e+02
306             	3.34462835e+02
307             	3.34486695e+02
308             	3.34484196e+02
309             	3.34502729e+02
310             	3.34506112e+02
311             	3.34504779e+02
312             	3.34503441e+02
313             	3.34499839e+02
314             	3.34491472e+02
315             	3.34480912e+02
316             	3.34479636e+02
317             	3.34478756e+02
318             	3.34484918e+02
319             	3.34489844e+02
320             	3.34499509e+02
321             	3.34475920e+02
322             	3.34464710e+02
323             	3.34461598e+02
324             	3.34456655e+02
325             	3.34450547e+02
326             	3.34443037e+02
327             	3.34435781e+02
328             	3.34430862e+02
329             	3.34429085e+02
330             	3.34430395e+02
331             	3.34434548e+02
332             	3.34441531e+02
333             	3.34450133e+02
334             	3.34458136e+02
335             	3.34464277e+02
336             	3.34468690e+02
337             	3.34471536e+02
338             	3.34473741e+02
339             	3.34479640e+02
340             	3.34485003e+02
341             	3.34499810e+02
342             	3.34521753e+02
343             	3.34548431e+02
344             	3.34578970e+02
345             	3.34609745e+02
346             	3.34633647e+02
347             	3.34650263e+02
348             	3.34675840e+02
349             	3.34702571e+02
350             	3.34737805e+02
351             	3.34741535e+02
352             	3.34735870e+02
353             	3.34732703e+02
354             	3.34729967e+02
355             	3.34725797e+02
356             	3.34721377e+02
357             	3.34718745e+02
358             	3.34717568e+02
359             	3.34717486e+02
360             	3.34717844e+02
361             	3.34717765e+02
362             	3.34715803e+02
363             	3.34710561e+02
364             	3.34689265e+02
365             	3.34684102e+02
366             	3.34690188e+02
367             	3.34697815e+02
368             	3.34706275e+02
369             	3.34681686e+02
370             	3.34673188e+02
371             	3.34673930e+02
372             	3.34674902e+02
373             	3.34684502e+02
374             	3.34695365e+02
375             	3.34705743e+02
376             	3.34712668e+02
377             	3.34716707e+02
378             	3.34702379e+02
379             	3.34707231e+02
380             	3.34721533e+02
381             	3.34728428e+02
382             	3.34726855e+02
383             	3.34719968e+02
384             	3.34707312e+02
385             	3.34694334e+02
386             	3.34680604e+02
387             	3.34669879e+02
388             	3.34663998e+02
389             	3.34663766e+02
390             	3.34642434e+02
391             	3.34638452e+02
392             	3.34627228e+02
393             	3.34629397e+02
394             	3.34638581e+02
395             	3.34645340e+02
396             	3.34643905e+02
397             	3.34637359e+02
398             	3.34636234e+02
399             	3.34626967e+02
400             	3.34605821e+02
401             	3.34581821e+02
402             	3.34525074e+02
403             	3.34497052e+02
404             	3.34492551e+02
405             	3.34495005e+02
406             	3.34486731e+02
407             	3.34495724e+02
408             	3.34517692e+02
409             	3.34524082e+02
410             	3.34544615e+02
411             	3.34538888e+02
412             	3.34533875e+02
413             	3.34527336e+02
414             	3.34518736e+02
415             	3.34490369e+02
416             	3.34479891e+02
417             	3.34472732e+02
418             	3.34480351e+02
419             	3.34485198e+02
420             	3.34488025e+02
421             	3.34489313e+02
422             	3.34492069e+02
423             	3.34491655e+02
424             	3.34457614e+02
425             	3.34439433e+02
426             	3.34436612e+02
427             	3.34437420e+02
428             	3.34433797e+02
429             	3.34431467e+02
430             	3.34432416e+02
431             	3.34439022e+02
432             	3.34443313e+02
433             	3.34446109e+02
434             	3.34451933e+02
435             	3.34458910e+02
436             	3.34452759e+02
437             	3.34441547e+02
438             	3.34450244e+02
439             	3.34459629e+02
440             	3.34479926e+02
441             	3.34507487e+02
442             	3.34507287e+02
443             	3.34530330e+02
444             	3.34528436e+02
445             	3.34540609e+02
446             	3.34547528e+02
447             	3.34552268e+02
448             	3.34555956e+02
449             	3.34553872e+02
450             	3.34546653e+02
451             	3.34538871e+02
452             	3.34537383e+02
453             	3.34547512e+02
454             	3.34540496e+02
455             	3.34544273e+02
456             	3.34553921e+02
457             	3.34534135e+02
458             	3.34526872e+02
459             	3.34533475e+02
460             	3.34505220e+02
461             	3.34494586e+02
462             	3.34496350e+02
463             	3.34465474e+02
464             	3.34442817e+02
465             	3.34433219e+02
466             	3.34436824e+02
467             	3.34446568e+02
468             	3.34448188e+02
469             	3.34457348e+02
470             	3.34462905e+02
471             	3.34464642e+02
472             	3.34485229e+02
473             	3.34511862e+02
474             	3.34531146e+02
475             	3.34513217e+02
476             	3.34505107e+02
477             	3.34464568e+02
478             	3.34412561e+02
479             	3.34372725e+02
480             	3.34332452e+02
481             	3.34288846e+02
482             	3.34239675e+02
483             	3.34199957e+02
484             	3.34173910e+02
485             	3.34158997e+02
486             	3.34163598e+02
487             	3.34176937e+02
488             	3.34193246e+02
489             	3.34230161e+02
490             	3.34280213e+02
491             	3.34310863e+02
492             	3.34365476e+02
493             	3.34391381e+02
494             	3.34430348e+02
495             	3.34477546e+02
496             	3.34500244e+02
497             	3.34505152e+02
498             	3.34497781e+02
499             	3.34491275e+02
500             	3.34464176e+02
501             	3.34428640e+02
502             	3.34395777e+02
503             	3.34365336e+02
504             	3.34320039e+02
505             	3.34297802e+02
506             	3.34294068e+02
507             	3.34298135e+02
508             	3.34307352e+02
509             	3.34320296e+02
510             	3.34335717e+02
511             	3.34342697e+02
512             	3.34363372e+02
513             	3.34391064e+02
514             	3.34417873e+02
515             	3.34414896e+02
516             	3.34419182e+02
517             	3.34430590e+02
518             	3.34441889e+02
519             	3.34450735e+02
520             	3.34458268e+02
521             	3.34457143e+02
522             	3.34458763e+02
523             	3.34448235e+02
524             	3.34428752e+02
525             	3.34408212e+02
526             	3.34386153e+02
527             	3.34379976e+02
528             	3.34380535e+02
529             	3.34395227e+02
530             	3.34422625e+02
531             	3.34459751e+02
532             	3.34470293e+02
533             	3.34502733e+02
534             	3.34518430e+02
535             	3.34545753e+02
536             	3.34576920e+02
537             	3.34590116e+02
538             	3.34589977e+02
539             	3.34582622e+02
540             	3.34572304e+02
541             	3.34559751e+02
542             	3.34548771e+02
543             	3.34542278e+02
544             	3.34541914e+02
545             	3.34548513e+02
546             	3.34555335e+02
547             	3.34576831e+02
548             	3.34608890e+02
549             	3.34638013e+02
550             	3.34670072e+02
551             	3.34699433e+02
552             	3.34719650e+02
553             	3.34730407e+02
554             	3.34736228e+02
555             	3.34748733e+02
556             	3.34740382e+02
557             	3.34728418e+02
558             	3.34721280e+02
559             	3.34718577e+02
560             	3.34710276e+02
561             	3.34702829e+02
562             	3.34702153e+02
563             	3.34705488e+02
564             	3.34710010e+02
565             	3.34710390e+02
566             	3.34714095e+02
567             	3.34720742e+02
568             	3.34717837e+02
569             	3.34717534e+02
570             	3.34716566e+02
571             	3.34712395e+02
572             	3.34705293e+02
573             	3.34696621e+02
574             	3.34687082e+02
575             	3.34681194e+02
576             	3.34681345e+02
577             	3.34645583e+02
578             	3.34616341e+02
579             	3.34598590e+02
580             	3.34588167e+02
581             	3.34573400e+02
582             	3.34562989e+02
583             	3.34555292e+02
584             	3.34568126e+02
585             	3.34587362e+02
586             	3.34604366e+02
587             	3.34616880e+02
588             	3.34625266e+02
589             	3.34594684e+02
590             	3.34576564e+02
591             	3.34556914e+02
592             	3.34532090e+02
593             	3.34499457e+02
594             	3.34459576e+02
595             	3.34416747e+02
596             	3.34379035e+02
597             	3.34349855e+02
598             	3.34329525e+02
599             	3.34317648e+02
600             	3.34313869e+02
601             	3.34303583e+02
602             	3.34313634e+02
603             	3.34333973e+02
604             	3.34361899e+02
605             	3.34385304e+02
606             	3.34413133e+02
607             	3.34448797e+02
608             	3.34466762e+02
609             	3.34485630e+02
610             	3.34467075e+02
611             	3.34457447e+02
612             	3.34452437e+02
613             	3.34445304e+02
614             	3.34433448e+02
615             	3.34417321e+02
616             	3.34399858e+02
617             	3.34384219e+02
618             	3.34372317e+02
619             	3.34364683e+02
620             	3.34361085e+02
621             	3.34363553e+02
