# Region        : cellZone component_3
# Cells         : 384
# Volume        : 7.84457951e-01
# Time          	volAverage(T)
1               	3.00212106e+02
2               	3.00423382e+02
3               	3.00621852e+02
4               	3.00812440e+02
5               	3.00999563e+02
6               	3.01184486e+02
7               	3.01367409e+02
8               	3.01549733e+02
9               	3.01731020e+02
10              	3.01911249e+02
11              	3.02089885e+02
12              	3.02267293e+02
13              	3.02442384e+02
14              	3.02616068e+02
15              	3.02787667e+02
16              	3.02958514e+02
17              	3.03127225e+02
18              	3.03294648e+02
19              	3.03461146e+02
20              	3.03626762e+02
21              	3.03792680e+02
22              	3.03957301e+02
23              	3.04121467e+02
24              	3.04283660e+02
25              	3.04443654e+02
26              	3.04600339e+02
27              	3.04754025e+02
28              	3.04904954e+02
29              	3.05052449e+02
30              	3.05195987e+02
31              	3.05337461e+02
32              	3.05477523e+02
33              	3.05615457e+02
34              	3.05750370e+02
35              	3.05884390e+02
36              	3.06011979e+02
37              	3.06133988e+02
38              	3.06254782e+02
39              	3.06374432e+02
40              	3.06494970e+02
41              	3.06613169e+02
42              	3.06728482e+02
43              	3.06838643e+02
44              	3.06946345e+02
45              	3.07054384e+02
46              	3.07162284e+02
47              	3.07270930e+02
48              	3.07381185e+02
49              	3.07492719e+02
50              	3.07603202e+02
51              	3.07709769e+02
52              	3.07812557e+02
53              	3.07912994e+02
54              	3.08012382e+02
55              	3.08110546e+02
56              	3.08206773e+02
57              	3.08299806e+02
58              	3.08387705e+02
59              	3.08474134e+02
60              	3.08559963e+02
61              	3.08647908e+02
62              	3.08739360e+02
63              	3.08829953e+02
64              	3.08918493e+02
65              	3.09003023e+02
66              	3.09082853e+02
67              	3.09164303e+02
68              	3.09241855e+02
69              	3.09315422e+02
70              	3.09385881e+02
71              	3.09459388e+02
72              	3.09531925e+02
73              	3.09607331e+02
74              	3.09678677e+02
75              	3.09744524e+02
76              	3.09810378e+02
77              	3.09874215e+02
78              	3.09936625e+02
79              	3.09995217e+02
80              	3.10051287e+02
81              	3.10102832e+02
82              	3.10152072e+02
83              	3.10205135e+02
84              	3.10260182e+02
85              	3.10315510e+02
86              	3.10371238e+02
87              	3.10425372e+02
88              	3.10476960e+02
89              	3.10524553e+02
90              	3.10571780e+02
91              	3.10618205e+02
92              	3.10662314e+02
93              	3.10704862e+02
94              	3.10748147e+02
95              	3.10793580e+02
96              	3.10842334e+02
97              	3.10892777e+02
98              	3.10942954e+02
99              	3.10992740e+02
100             	3.11040733e+02
101             	3.11086778e+02
102             	3.11130794e+02
103             	3.11172248e+02
104             	3.11209957e+02
105             	3.11246342e+02
106             	3.11281398e+02
107             	3.11319091e+02
108             	3.11358375e+02
109             	3.11399944e+02
110             	3.11443570e+02
111             	3.11485187e+02
112             	3.11522000e+02
113             	3.11555964e+02
114             	3.11587390e+02
115             	3.11616464e+02
116             	3.11640188e+02
117             	3.11661727e+02
118             	3.11684888e+02
119             	3.11710461e+02
120             	3.11740361e+02
121             	3.11773867e+02
122             	3.11809928e+02
123             	3.11846600e+02
124             	3.11880767e+02
125             	3.11914047e+02
126             	3.11945415e+02
127             	3.11974540e+02
128             	3.12000556e+02
129             	3.12024415e+02
130             	3.12046679e+02
131             	3.12071173e+02
132             	3.12097770e+02
133             	3.12126459e+02
134             	3.12156900e+02
135             	3.12186478e+02
136             	3.12215716e+02
137             	3.12243780e+02
138             	3.12269752e+02
139             	3.12294303e+02
140             	3.12315321e+02
141             	3.12333723e+02
142             	3.12351166e+02
143             	3.12368261e+02
144             	3.12387373e+02
145             	3.12408200e+02
146             	3.12431380e+02
147             	3.12456385e+02
148             	3.12481291e+02
149             	3.12506193e+02
150             	3.12531347e+02
151             	3.12554668e+02
152             	3.12575699e+02
153             	3.12594518e+02
154             	3.12611210e+02
155             	3.12626408e+02
156             	3.12641274e+02
157             	3.12656515e+02
158             	3.12673926e+02
159             	3.12693559e+02
160             	3.12713482e+02
161             	3.12734612e+02
162             	3.12755356e+02
163             	3.12775730e+02
164             	3.12795515e+02
165             	3.12813250e+02
166             	3.12828861e+02
167             	3.12842552e+02
168             	3.12855109e+02
169             	3.12866558e+02
170             	3.12879408e+02
171             	3.12894053e+02
172             	3.12910217e+02
173             	3.12925977e+02
174             	3.12942987e+02
175             	3.12960980e+02
176             	3.12978414e+02
177             	3.12995170e+02
178             	3.13010529e+02
179             	3.13024335e+02
180             	3.13037027e+02
181             	3.13048571e+02
182             	3.13059474e+02
183             	3.13070953e+02
184             	3.13082161e+02
185             	3.13095192e+02
186             	3.13109765e+02
187             	3.13124833e+02
188             	3.13139102e+02
189             	3.13153727e+02
190             	3.13168142e+02
191             	3.13181510e+02
192             	3.13193877e+02
193             	3.13205403e+02
194             	3.13216382e+02
195             	3.13227354e+02
196             	3.13237931e+02
197             	3.13248670e+02
198             	3.13259689e+02
199             	3.13271250e+02
200             	3.13282776e+02
201             	3.13293965e+02
202             	3.13305415e+02
203             	3.13317037e+02
204             	3.13328265e+02
205             	3.13339247e+02
206             	3.13349528e+02
207             	3.13359643e+02
208             	3.13369624e+02
209             	3.13379596e+02
210             	3.13389422e+02
211             	3.13399408e+02
212             	3.13409039e+02
213             	3.13418798e+02
214             	3.13428556e+02
215             	3.13438176e+02
216             	3.13447418e+02
217             	3.13456672e+02
218             	3.13465841e+02
219             	3.13474785e+02
220             	3.13483289e+02
221             	3.13491637e+02
222             	3.13500045e+02
223             	3.13508606e+02
224             	3.13516896e+02
225             	3.13525280e+02
226             	3.13533665e+02
227             	3.13541973e+02
228             	3.13550556e+02
229             	3.13559119e+02
230             	3.13567455e+02
231             	3.13575665e+02
232             	3.13583760e+02
233             	3.13591582e+02
234             	3.13599190e+02
235             	3.13606653e+02
236             	3.13613999e+02
237             	3.13621289e+02
238             	3.13628474e+02
239             	3.13635650e+02
240             	3.13642807e+02
241             	3.13649952e+02
242             	3.13657070e+02
243             	3.13664127e+02
244             	3.13671074e+02
245             	3.13677881e+02
246             	3.13684665e+02
247             	3.13691364e+02
248             	3.13697884e+02
249             	3.13704392e+02
250             	3.13710846e+02
251             	3.13717348e+02
252             	3.13723635e+02
253             	3.13729856e+02
254             	3.13736104e+02
255             	3.13742350e+02
256             	3.13748504e+02
257             	3.13754639e+02
258             	3.13760636e+02
259             	3.13766486e+02
260             	3.13772448e+02
261             	3.13778423e+02
262             	3.13784419e+02
263             	3.13790232e+02
264             	3.13795928e+02
265             	3.13801653e+02
266             	3.13807263e+02
267             	3.13812873e+02
268             	3.13818420e+02
269             	3.13823840e+02
270             	3.13829382e+02
271             	3.13834956e+02
272             	3.13840524e+02
273             	3.13846070e+02
274             	3.13851534e+02
275             	3.13856978e+02
276             	3.13862095e+02
277             	3.13867187e+02
278             	3.13872216e+02
279             	3.13877174e+02
280             	3.13882008e+02
281             	3.13886734e+02
282             	3.13891445e+02
283             	3.13896248e+02
284             	3.13901084e+02
285             	3.13905895e+02
286             	3.13910728e+02
287             	3.13915548e+02
288             	3.13920384e+02
289             	3.13925243e+02
290             	3.13930043e+02
291             	3.13934757e+02
292             	3.13939427e+02
293             	3.13944056e+02
294             	3.13948638e+02
295             	3.13953119e+02
296             	3.13957552e+02
297             	3.13961976e+02
298             	3.13966306e+02
299             	3.13970733e+02
300             	3.13975161e+02
301             	3.13979529e+02
302             	3.13983771e+02
303             	3.13987992e+02
304             	3.13992161e+02
305             	3.13996270e+02
306             	3.14000325e+02
307             	3.14004448e+02
308             	3.14008445e+02
309             	3.14012509e+02
310             	3.14016535e+02
311             	3.14020571e+02
312             	3.14024613e+02
313             	3.14028580e+02
314             	3.14032536e+02
315             	3.14036478e+02
316             	3.14040421e+02
317             	3.14044368e+02
318             	3.14048261e+02
319             	3.14052108e+02
320             	3.14055912e+02
321             	3.14059677e+02
322             	3.14063392e+02
323             	3.14067061e+02
324             	3.14070681e+02
325             	3.14074250e+02
326             	3.14077542e+02
327             	3.14080714e+02
328             	3.14083838e+02
329             	3.14086997e+02
330             	3.14090230e+02
331             	3.14093470e+02
332             	3.14096682e+02
333             	3.14099941e+02
334             	3.14103204e+02
335             	3.14106426e+02
336             	3.14109614e+02
337             	3.14112848e+02
338             	3.14116075e+02
339             	3.14119263e+02
340             	3.14122463e+02
341             	3.14125635e+02
342             	3.14128750e+02
343             	3.14131826e+02
344             	3.14134865e+02
345             	3.14137860e+02
346             	3.14140813e+02
347             	3.14143732e+02
348             	3.14146627e+02
349             	3.14149528e+02
350             	3.14152419e+02
351             	3.14155264e+02
352             	3.14158066e+02
353             	3.14160829e+02
354             	3.14163577e+02
355             	3.14166310e+02
356             	3.14169033e+02
357             	3.14171727e+02
358             	3.14174416e+02
359             	3.14177075e+02
360             	3.14179714e+02
361             	3.14182335e+02
362             	3.14184941e+02
363             	3.14187530e+02
364             	3.14190097e+02
365             	3.14192641e+02
366             	3.14195155e+02
367             	3.14197633e+02
368             	3.14200076e+02
369             	3.14202478e+02
370             	3.14204850e+02
371             	3.14207211e+02
372             	3.14209557e+02
373             	3.14211884e+02
374             	3.14214207e+02
375             	3.14216520e+02
376             	3.14218796e+02
377             	3.14221076e+02
378             	3.14223346e+02
379             	3.14225568e+02
380             	3.14227763e+02
381             	3.14229930e+02
382             	3.14232051e+02
383             	3.14234132e+02
384             	3.14236207e+02
385             	3.14238289e+02
386             	3.14240340e+02
387             	3.14242404e+02
388             	3.14244508e+02
389             	3.14246641e+02
390             	3.14248781e+02
391             	3.14250901e+02
392             	3.14253018e+02
393             	3.14255143e+02
394             	3.14257262e+02
395             	3.14259344e+02
396             	3.14261366e+02
397             	3.14263361e+02
398             	3.14265353e+02
399             	3.14267325e+02
400             	3.14269283e+02
401             	3.14271237e+02
402             	3.14273177e+02
403             	3.14275121e+02
404             	3.14277062e+02
405             	3.14278990e+02
406             	3.14280899e+02
407             	3.14282783e+02
408             	3.14284629e+02
409             	3.14286472e+02
410             	3.14288294e+02
411             	3.14290096e+02
412             	3.14291870e+02
413             	3.14293639e+02
414             	3.14295385e+02
415             	3.14297103e+02
416             	3.14298817e+02
417             	3.14300516e+02
418             	3.14302195e+02
419             	3.14303872e+02
420             	3.14305532e+02
421             	3.14307185e+02
422             	3.14308846e+02
423             	3.14310503e+02
424             	3.14312091e+02
425             	3.14313692e+02
426             	3.14315270e+02
427             	3.14316808e+02
428             	3.14318317e+02
429             	3.14319805e+02
430             	3.14321299e+02
431             	3.14322778e+02
432             	3.14324257e+02
433             	3.14325742e+02
434             	3.14327225e+02
435             	3.14328706e+02
436             	3.14330167e+02
437             	3.14331625e+02
438             	3.14333090e+02
439             	3.14334522e+02
440             	3.14335943e+02
441             	3.14337367e+02
442             	3.14338781e+02
443             	3.14340191e+02
444             	3.14341581e+02
445             	3.14342963e+02
446             	3.14344334e+02
447             	3.14345690e+02
448             	3.14347027e+02
449             	3.14348349e+02
450             	3.14349652e+02
451             	3.14350946e+02
452             	3.14352228e+02
453             	3.14353495e+02
454             	3.14354748e+02
455             	3.14355900e+02
456             	3.14357044e+02
457             	3.14358191e+02
458             	3.14359336e+02
459             	3.14360469e+02
460             	3.14361596e+02
461             	3.14362716e+02
462             	3.14363830e+02
463             	3.14364937e+02
464             	3.14366037e+02
465             	3.14367130e+02
466             	3.14368216e+02
467             	3.14369294e+02
468             	3.14370364e+02
469             	3.14371425e+02
470             	3.14372477e+02
471             	3.14373519e+02
472             	3.14374552e+02
473             	3.14375576e+02
474             	3.14376588e+02
475             	3.14377591e+02
476             	3.14378586e+02
477             	3.14379572e+02
478             	3.14380549e+02
479             	3.14381517e+02
480             	3.14382475e+02
481             	3.14383423e+02
482             	3.14384361e+02
483             	3.14385289e+02
484             	3.14386206e+02
485             	3.14387112e+02
486             	3.14388008e+02
487             	3.14388892e+02
488             	3.14389767e+02
489             	3.14390631e+02
490             	3.14391486e+02
491             	3.14392332e+02
492             	3.14393169e+02
493             	3.14394000e+02
494             	3.14394823e+02
495             	3.14395640e+02
496             	3.14396453e+02
497             	3.14397260e+02
498             	3.14398062e+02
499             	3.14398858e+02
500             	3.14399647e+02
501             	3.14400429e+02
502             	3.14401202e+02
503             	3.14401968e+02
504             	3.14402725e+02
505             	3.14403473e+02
506             	3.14404215e+02
507             	3.14404949e+02
508             	3.14405677e+02
509             	3.14406399e+02
510             	3.14407114e+02
511             	3.14407821e+02
512             	3.14408520e+02
513             	3.14409210e+02
514             	3.14409892e+02
515             	3.14410565e+02
516             	3.14411230e+02
517             	3.14411888e+02
518             	3.14412538e+02
519             	3.14413182e+02
520             	3.14413822e+02
521             	3.14414458e+02
522             	3.14415093e+02
523             	3.14415725e+02
524             	3.14416353e+02
525             	3.14416977e+02
526             	3.14417596e+02
527             	3.14418208e+02
528             	3.14418813e+02
529             	3.14419411e+02
530             	3.14420003e+02
531             	3.14420589e+02
532             	3.14421169e+02
533             	3.14421743e+02
534             	3.14422313e+02
535             	3.14422877e+02
536             	3.14423437e+02
537             	3.14423991e+02
538             	3.14424539e+02
539             	3.14425082e+02
540             	3.14425619e+02
541             	3.14426149e+02
542             	3.14426673e+02
543             	3.14427191e+02
544             	3.14427704e+02
545             	3.14428210e+02
546             	3.14428712e+02
547             	3.14429211e+02
548             	3.14429706e+02
549             	3.14430198e+02
550             	3.14430687e+02
551             	3.14431172e+02
552             	3.14431653e+02
553             	3.14432131e+02
554             	3.14432605e+02
555             	3.14433075e+02
556             	3.14433542e+02
557             	3.14434004e+02
558             	3.14434462e+02
559             	3.14434917e+02
560             	3.14435367e+02
561             	3.14435814e+02
562             	3.14436255e+02
563             	3.14436691e+02
564             	3.14437123e+02
565             	3.14437550e+02
566             	3.14437972e+02
567             	3.14438389e+02
568             	3.14438801e+02
569             	3.14439210e+02
570             	3.14439614e+02
571             	3.14440014e+02
572             	3.14440412e+02
573             	3.14440806e+02
574             	3.14441199e+02
575             	3.14441588e+02
576             	3.14441974e+02
577             	3.14442358e+02
578             	3.14442739e+02
579             	3.14443118e+02
580             	3.14443493e+02
581             	3.14443866e+02
582             	3.14444236e+02
583             	3.14444603e+02
584             	3.14444967e+02
585             	3.14445328e+02
586             	3.14445686e+02
587             	3.14446041e+02
588             	3.14446392e+02
589             	3.14446741e+02
590             	3.14447087e+02
591             	3.14447429e+02
592             	3.14447769e+02
593             	3.14448106e+02
594             	3.14448439e+02
595             	3.14448769e+02
596             	3.14449095e+02
597             	3.14449417e+02
598             	3.14449736e+02
599             	3.14450052e+02
600             	3.14450365e+02
601             	3.14450675e+02
602             	3.14450983e+02
603             	3.14451288e+02
604             	3.14451590e+02
605             	3.14451890e+02
606             	3.14452187e+02
607             	3.14452482e+02
608             	3.14452773e+02
609             	3.14453062e+02
610             	3.14453349e+02
611             	3.14453633e+02
612             	3.14453914e+02
613             	3.14454193e+02
614             	3.14454470e+02
615             	3.14454744e+02
616             	3.14455016e+02
617             	3.14455286e+02
618             	3.14455554e+02
619             	3.14455820e+02
620             	3.14456083e+02
621             	3.14456345e+02
