# Region        : cellZone component_1
# Cells         : 112
# Volume        : 1.94913580e-01
# Time          	volAverage(T)
1               	3.01047830e+02
2               	3.02072285e+02
3               	3.02952446e+02
4               	3.03733708e+02
5               	3.04471809e+02
6               	3.05183525e+02
7               	3.05870436e+02
8               	3.06534755e+02
9               	3.07185261e+02
10              	3.07826932e+02
11              	3.08448515e+02
12              	3.09047783e+02
13              	3.09628258e+02
14              	3.10183234e+02
15              	3.10728157e+02
16              	3.11256322e+02
17              	3.11779594e+02
18              	3.12279669e+02
19              	3.12762751e+02
20              	3.13224737e+02
21              	3.13694188e+02
22              	3.14186786e+02
23              	3.14636161e+02
24              	3.15034004e+02
25              	3.15374415e+02
26              	3.15695080e+02
27              	3.16044546e+02
28              	3.16398841e+02
29              	3.16749787e+02
30              	3.17096034e+02
31              	3.17438710e+02
32              	3.17776903e+02
33              	3.18108441e+02
34              	3.18437564e+02
35              	3.18759182e+02
36              	3.19068305e+02
37              	3.19353534e+02
38              	3.19608816e+02
39              	3.19845328e+02
40              	3.20080011e+02
41              	3.20271477e+02
42              	3.20433555e+02
43              	3.20601268e+02
44              	3.20771509e+02
45              	3.20975128e+02
46              	3.21196743e+02
47              	3.21433135e+02
48              	3.21676203e+02
49              	3.21917654e+02
50              	3.22157182e+02
51              	3.22396069e+02
52              	3.22620253e+02
53              	3.22859653e+02
54              	3.23070387e+02
55              	3.23237152e+02
56              	3.23384504e+02
57              	3.23518486e+02
58              	3.23642352e+02
59              	3.23761458e+02
60              	3.23887787e+02
61              	3.24042488e+02
62              	3.24177669e+02
63              	3.24316481e+02
64              	3.24461138e+02
65              	3.24611121e+02
66              	3.24771689e+02
67              	3.24905793e+02
68              	3.25058179e+02
69              	3.25206426e+02
70              	3.25320829e+02
71              	3.25377687e+02
72              	3.25386818e+02
73              	3.25405317e+02
74              	3.25487936e+02
75              	3.25606169e+02
76              	3.25711842e+02
77              	3.25813601e+02
78              	3.25922628e+02
79              	3.26032269e+02
80              	3.26144841e+02
81              	3.26291582e+02
82              	3.26413454e+02
83              	3.26514497e+02
84              	3.26595880e+02
85              	3.26669314e+02
86              	3.26760673e+02
87              	3.26858692e+02
88              	3.26955170e+02
89              	3.27039719e+02
90              	3.27122659e+02
91              	3.27196636e+02
92              	3.27297694e+02
93              	3.27409047e+02
94              	3.27516413e+02
95              	3.27618616e+02
96              	3.27713139e+02
97              	3.27804082e+02
98              	3.27900925e+02
99              	3.27974405e+02
100             	3.28059567e+02
101             	3.28142408e+02
102             	3.28213624e+02
103             	3.28272017e+02
104             	3.28355701e+02
105             	3.28427267e+02
106             	3.28467582e+02
107             	3.28505347e+02
108             	3.28535799e+02
109             	3.28562341e+02
110             	3.28602155e+02
111             	3.28643266e+02
112             	3.28708277e+02
113             	3.28764040e+02
114             	3.28814766e+02
115             	3.28894140e+02
116             	3.28953230e+02
117             	3.29016101e+02
118             	3.29077590e+02
119             	3.29138917e+02
120             	3.29185959e+02
121             	3.29228157e+02
122             	3.29274267e+02
123             	3.29316503e+02
124             	3.29368765e+02
125             	3.29399011e+02
126             	3.29436518e+02
127             	3.29468262e+02
128             	3.29517401e+02
129             	3.29553503e+02
130             	3.29591675e+02
131             	3.29632827e+02
132             	3.29684649e+02
133             	3.29742990e+02
134             	3.29773370e+02
135             	3.29808730e+02
136             	3.29853791e+02
137             	3.29878435e+02
138             	3.29913387e+02
139             	3.29953492e+02
140             	3.29987289e+02
141             	3.30001209e+02
142             	3.30030174e+02
143             	3.30059107e+02
144             	3.30087901e+02
145             	3.30113879e+02
146             	3.30142511e+02
147             	3.30148399e+02
148             	3.30161785e+02
149             	3.30180322e+02
150             	3.30195260e+02
151             	3.30214727e+02
152             	3.30251883e+02
153             	3.30286081e+02
154             	3.30298207e+02
155             	3.30322425e+02
156             	3.30339297e+02
157             	3.30362755e+02
158             	3.30389110e+02
159             	3.30412343e+02
160             	3.30422869e+02
161             	3.30443646e+02
162             	3.30462429e+02
163             	3.30484549e+02
164             	3.30511588e+02
165             	3.30538923e+02
166             	3.30542219e+02
167             	3.30556549e+02
168             	3.30559770e+02
169             	3.30572714e+02
170             	3.30598225e+02
171             	3.30599352e+02
172             	3.30613938e+02
173             	3.30632480e+02
174             	3.30632563e+02
175             	3.30640085e+02
176             	3.30659518e+02
177             	3.30666101e+02
178             	3.30678121e+02
179             	3.30694221e+02
180             	3.30713967e+02
181             	3.30719117e+02
182             	3.30737314e+02
183             	3.30741577e+02
184             	3.30758725e+02
185             	3.30761793e+02
186             	3.30778085e+02
187             	3.30795054e+02
188             	3.30798293e+02
189             	3.30808908e+02
190             	3.30821575e+02
191             	3.30841287e+02
192             	3.30841816e+02
193             	3.30850297e+02
194             	3.30849148e+02
195             	3.30857423e+02
196             	3.30855780e+02
197             	3.30865228e+02
198             	3.30864178e+02
199             	3.30875817e+02
200             	3.30876898e+02
201             	3.30889248e+02
202             	3.30890972e+02
203             	3.30904890e+02
204             	3.30906850e+02
205             	3.30914504e+02
206             	3.30930780e+02
207             	3.30928983e+02
208             	3.30938046e+02
209             	3.30956225e+02
210             	3.30951434e+02
211             	3.30959429e+02
212             	3.30955036e+02
213             	3.30960550e+02
214             	3.30971974e+02
215             	3.30968030e+02
216             	3.30976563e+02
217             	3.30975296e+02
218             	3.30985709e+02
219             	3.30984787e+02
220             	3.30996533e+02
221             	3.30993680e+02
222             	3.31003799e+02
223             	3.31002089e+02
224             	3.31010334e+02
225             	3.31029775e+02
226             	3.31026966e+02
227             	3.31036186e+02
228             	3.31032143e+02
229             	3.31038923e+02
230             	3.31034076e+02
231             	3.31040484e+02
232             	3.31036260e+02
233             	3.31044644e+02
234             	3.31041875e+02
235             	3.31050703e+02
236             	3.31048938e+02
237             	3.31058348e+02
238             	3.31055685e+02
239             	3.31062047e+02
240             	3.31060094e+02
241             	3.31068496e+02
242             	3.31065219e+02
243             	3.31072111e+02
244             	3.31068696e+02
245             	3.31074387e+02
246             	3.31069621e+02
247             	3.31076059e+02
248             	3.31072002e+02
249             	3.31079151e+02
250             	3.31076645e+02
251             	3.31084686e+02
252             	3.31082645e+02
253             	3.31091150e+02
254             	3.31088502e+02
255             	3.31096715e+02
256             	3.31093256e+02
257             	3.31101187e+02
258             	3.31097017e+02
259             	3.31102159e+02
260             	3.31098319e+02
261             	3.31104997e+02
262             	3.31100723e+02
263             	3.31106779e+02
264             	3.31101559e+02
265             	3.31107123e+02
266             	3.31101235e+02
267             	3.31106128e+02
268             	3.31100297e+02
269             	3.31106135e+02
270             	3.31101394e+02
271             	3.31108358e+02
272             	3.31104329e+02
273             	3.31112153e+02
274             	3.31108638e+02
275             	3.31115868e+02
276             	3.31111557e+02
277             	3.31118651e+02
278             	3.31113970e+02
279             	3.31120869e+02
280             	3.31116149e+02
281             	3.31122597e+02
282             	3.31118003e+02
283             	3.31125103e+02
284             	3.31120483e+02
285             	3.31127411e+02
286             	3.31123154e+02
287             	3.31130399e+02
288             	3.31125834e+02
289             	3.31131586e+02
290             	3.31127130e+02
291             	3.31133765e+02
292             	3.31129029e+02
293             	3.31135403e+02
294             	3.31130694e+02
295             	3.31137118e+02
296             	3.31132556e+02
297             	3.31139410e+02
298             	3.31135304e+02
299             	3.31142960e+02
300             	3.31139298e+02
301             	3.31147302e+02
302             	3.31144247e+02
303             	3.31152919e+02
304             	3.31150415e+02
305             	3.31159772e+02
306             	3.31157987e+02
307             	3.31167747e+02
308             	3.31165565e+02
309             	3.31175553e+02
310             	3.31173419e+02
311             	3.31182746e+02
312             	3.31180310e+02
313             	3.31188515e+02
314             	3.31184855e+02
315             	3.31192463e+02
316             	3.31187822e+02
317             	3.31194333e+02
318             	3.31188715e+02
319             	3.31194428e+02
320             	3.31187880e+02
321             	3.31192413e+02
322             	3.31185278e+02
323             	3.31189797e+02
324             	3.31182002e+02
325             	3.31185306e+02
326             	3.31177596e+02
327             	3.31180841e+02
328             	3.31173246e+02
329             	3.31176920e+02
330             	3.31169608e+02
331             	3.31173450e+02
332             	3.31166413e+02
333             	3.31170721e+02
334             	3.31164243e+02
335             	3.31169286e+02
336             	3.31163279e+02
337             	3.31168671e+02
338             	3.31162692e+02
339             	3.31168198e+02
340             	3.31162400e+02
341             	3.31168023e+02
342             	3.31162437e+02
343             	3.31168151e+02
344             	3.31162545e+02
345             	3.31168393e+02
346             	3.31162773e+02
347             	3.31169096e+02
348             	3.31163747e+02
349             	3.31170263e+02
350             	3.31164988e+02
351             	3.31171436e+02
352             	3.31166333e+02
353             	3.31172794e+02
354             	3.31167671e+02
355             	3.31174174e+02
356             	3.31168927e+02
357             	3.31175123e+02
358             	3.31169674e+02
359             	3.31175548e+02
360             	3.31169796e+02
361             	3.31175360e+02
362             	3.31169465e+02
363             	3.31175131e+02
364             	3.31169109e+02
365             	3.31174818e+02
366             	3.31168723e+02
367             	3.31173892e+02
368             	3.31168114e+02
369             	3.31173839e+02
370             	3.31168103e+02
371             	3.31173773e+02
372             	3.31167851e+02
373             	3.31173679e+02
374             	3.31168425e+02
375             	3.31175478e+02
376             	3.31170263e+02
377             	3.31177127e+02
378             	3.31172630e+02
379             	3.31179726e+02
380             	3.31175523e+02
381             	3.31182846e+02
382             	3.31178880e+02
383             	3.31185670e+02
384             	3.31180845e+02
385             	3.31187399e+02
386             	3.31182031e+02
387             	3.31187938e+02
388             	3.31181995e+02
389             	3.31187712e+02
390             	3.31181491e+02
391             	3.31187139e+02
392             	3.31180848e+02
393             	3.31185844e+02
394             	3.31179468e+02
395             	3.31184003e+02
396             	3.31177714e+02
397             	3.31183139e+02
398             	3.31176911e+02
399             	3.31182249e+02
400             	3.31176198e+02
401             	3.31181834e+02
402             	3.31176319e+02
403             	3.31182101e+02
404             	3.31176739e+02
405             	3.31182632e+02
406             	3.31177327e+02
407             	3.31183664e+02
408             	3.31178995e+02
409             	3.31185848e+02
410             	3.31180770e+02
411             	3.31187211e+02
412             	3.31182189e+02
413             	3.31188329e+02
414             	3.31182772e+02
415             	3.31188476e+02
416             	3.31182043e+02
417             	3.31186901e+02
418             	3.31180064e+02
419             	3.31183494e+02
420             	3.31177084e+02
421             	3.31182196e+02
422             	3.31175519e+02
423             	3.31180738e+02
424             	3.31174244e+02
425             	3.31179566e+02
426             	3.31173493e+02
427             	3.31179103e+02
428             	3.31173677e+02
429             	3.31179777e+02
430             	3.31175170e+02
431             	3.31182286e+02
432             	3.31177551e+02
433             	3.31185177e+02
434             	3.31180582e+02
435             	3.31187786e+02
436             	3.31183546e+02
437             	3.31191131e+02
438             	3.31187060e+02
439             	3.31194446e+02
440             	3.31189928e+02
441             	3.31196538e+02
442             	3.31191179e+02
443             	3.31196485e+02
444             	3.31190515e+02
445             	3.31195756e+02
446             	3.31189037e+02
447             	3.31193858e+02
448             	3.31186317e+02
449             	3.31190716e+02
450             	3.31184187e+02
451             	3.31189317e+02
452             	3.31182865e+02
453             	3.31188164e+02
454             	3.31181971e+02
455             	3.31188213e+02
456             	3.31182774e+02
457             	3.31188167e+02
458             	3.31182474e+02
459             	3.31188430e+02
460             	3.31183287e+02
461             	3.31189892e+02
462             	3.31184798e+02
463             	3.31191453e+02
464             	3.31186298e+02
465             	3.31192288e+02
466             	3.31186678e+02
467             	3.31192538e+02
468             	3.31186714e+02
469             	3.31192236e+02
470             	3.31186183e+02
471             	3.31191096e+02
472             	3.31184743e+02
473             	3.31189944e+02
474             	3.31183057e+02
475             	3.31188267e+02
476             	3.31181774e+02
477             	3.31186840e+02
478             	3.31180290e+02
479             	3.31185309e+02
480             	3.31179399e+02
481             	3.31184866e+02
482             	3.31179058e+02
483             	3.31185666e+02
484             	3.31179910e+02
485             	3.31185988e+02
486             	3.31180549e+02
487             	3.31186894e+02
488             	3.31181831e+02
489             	3.31188531e+02
490             	3.31183296e+02
491             	3.31190014e+02
492             	3.31184556e+02
493             	3.31190836e+02
494             	3.31185157e+02
495             	3.31189936e+02
496             	3.31184409e+02
497             	3.31190167e+02
498             	3.31184264e+02
499             	3.31189755e+02
500             	3.31183883e+02
501             	3.31190182e+02
502             	3.31184404e+02
503             	3.31190768e+02
504             	3.31185888e+02
505             	3.31192832e+02
506             	3.31188244e+02
507             	3.31195262e+02
508             	3.31191005e+02
509             	3.31198628e+02
510             	3.31193315e+02
511             	3.31199609e+02
512             	3.31194158e+02
513             	3.31200281e+02
514             	3.31194612e+02
515             	3.31200364e+02
516             	3.31193492e+02
517             	3.31198794e+02
518             	3.31191731e+02
519             	3.31195979e+02
520             	3.31188744e+02
521             	3.31192577e+02
522             	3.31184917e+02
523             	3.31188725e+02
524             	3.31181213e+02
525             	3.31185611e+02
526             	3.31178796e+02
527             	3.31183961e+02
528             	3.31177754e+02
529             	3.31183462e+02
530             	3.31177984e+02
531             	3.31183663e+02
532             	3.31178383e+02
533             	3.31184402e+02
534             	3.31180793e+02
535             	3.31186565e+02
536             	3.31181090e+02
537             	3.31187195e+02
538             	3.31181824e+02
539             	3.31188553e+02
540             	3.31183517e+02
541             	3.31190090e+02
542             	3.31184801e+02
543             	3.31189173e+02
544             	3.31183312e+02
545             	3.31188510e+02
546             	3.31182007e+02
547             	3.31186081e+02
548             	3.31178611e+02
549             	3.31182634e+02
550             	3.31174977e+02
551             	3.31178533e+02
552             	3.31170708e+02
553             	3.31174503e+02
554             	3.31167263e+02
555             	3.31171496e+02
556             	3.31165013e+02
557             	3.31170609e+02
558             	3.31164593e+02
559             	3.31170918e+02
560             	3.31165783e+02
561             	3.31172519e+02
562             	3.31168233e+02
563             	3.31175848e+02
564             	3.31172186e+02
565             	3.31180544e+02
566             	3.31176974e+02
567             	3.31185395e+02
568             	3.31181992e+02
569             	3.31190095e+02
570             	3.31185910e+02
571             	3.31192904e+02
572             	3.31188104e+02
573             	3.31193845e+02
574             	3.31187809e+02
575             	3.31192617e+02
576             	3.31186295e+02
577             	3.31191428e+02
578             	3.31184040e+02
579             	3.31188210e+02
580             	3.31180931e+02
581             	3.31185160e+02
582             	3.31178318e+02
583             	3.31183061e+02
584             	3.31176720e+02
585             	3.31181851e+02
586             	3.31176031e+02
587             	3.31181850e+02
588             	3.31176334e+02
589             	3.31182802e+02
590             	3.31177564e+02
591             	3.31183829e+02
592             	3.31178779e+02
593             	3.31185262e+02
594             	3.31179788e+02
595             	3.31185423e+02
596             	3.31178926e+02
597             	3.31183295e+02
598             	3.31177395e+02
599             	3.31182736e+02
600             	3.31176935e+02
601             	3.31182266e+02
602             	3.31176290e+02
603             	3.31182448e+02
604             	3.31177337e+02
605             	3.31183530e+02
606             	3.31178601e+02
607             	3.31186014e+02
608             	3.31182126e+02
609             	3.31191293e+02
610             	3.31186951e+02
611             	3.31194397e+02
612             	3.31190529e+02
613             	3.31198276e+02
614             	3.31194089e+02
615             	3.31200400e+02
616             	3.31195212e+02
617             	3.31201298e+02
618             	3.31195050e+02
619             	3.31199884e+02
620             	3.31192693e+02
621             	3.31197237e+02
