# Region        : cellZone component_1
# Cells         : 312
# Volume        : 5.66425793e-01
# Time          	volAverage(T)
1               	3.00227930e+02
2               	3.00453717e+02
3               	3.00661338e+02
4               	3.00858270e+02
5               	3.01051131e+02
6               	3.01243160e+02
7               	3.01433298e+02
8               	3.01620567e+02
9               	3.01805547e+02
10              	3.01989563e+02
11              	3.02171614e+02
12              	3.02352382e+02
13              	3.02532435e+02
14              	3.02713762e+02
15              	3.02892857e+02
16              	3.03070062e+02
17              	3.03246072e+02
18              	3.03418022e+02
19              	3.03586614e+02
20              	3.03750343e+02
21              	3.03914709e+02
22              	3.04079966e+02
23              	3.04243852e+02
24              	3.04410494e+02
25              	3.04575423e+02
26              	3.04737680e+02
27              	3.04900305e+02
28              	3.05060994e+02
29              	3.05216830e+02
30              	3.05371405e+02
31              	3.05525462e+02
32              	3.05676631e+02
33              	3.05822368e+02
34              	3.05962027e+02
35              	3.06101361e+02
36              	3.06241667e+02
37              	3.06376641e+02
38              	3.06510994e+02
39              	3.06642299e+02
40              	3.06774131e+02
41              	3.06901677e+02
42              	3.07028134e+02
43              	3.07152952e+02
44              	3.07273447e+02
45              	3.07389489e+02
46              	3.07501177e+02
47              	3.07615558e+02
48              	3.07726479e+02
49              	3.07834725e+02
50              	3.07944403e+02
51              	3.08055890e+02
52              	3.08167849e+02
53              	3.08279064e+02
54              	3.08381832e+02
55              	3.08484692e+02
56              	3.08582623e+02
57              	3.08673428e+02
58              	3.08757480e+02
59              	3.08841775e+02
60              	3.08926705e+02
61              	3.09009264e+02
62              	3.09093797e+02
63              	3.09178736e+02
64              	3.09268906e+02
65              	3.09360163e+02
66              	3.09455758e+02
67              	3.09550140e+02
68              	3.09644871e+02
69              	3.09739320e+02
70              	3.09825418e+02
71              	3.09908351e+02
72              	3.09984355e+02
73              	3.10057950e+02
74              	3.10131581e+02
75              	3.10204332e+02
76              	3.10281174e+02
77              	3.10356981e+02
78              	3.10438092e+02
79              	3.10520561e+02
80              	3.10603268e+02
81              	3.10682973e+02
82              	3.10758131e+02
83              	3.10832385e+02
84              	3.10899471e+02
85              	3.10962490e+02
86              	3.11018155e+02
87              	3.11076425e+02
88              	3.11136804e+02
89              	3.11195963e+02
90              	3.11261836e+02
91              	3.11327223e+02
92              	3.11391177e+02
93              	3.11459024e+02
94              	3.11520974e+02
95              	3.11588460e+02
96              	3.11648877e+02
97              	3.11706847e+02
98              	3.11761565e+02
99              	3.11813023e+02
100             	3.11860547e+02
101             	3.11910333e+02
102             	3.11960254e+02
103             	3.12004277e+02
104             	3.12053711e+02
105             	3.12105591e+02
106             	3.12149714e+02
107             	3.12191479e+02
108             	3.12234316e+02
109             	3.12274279e+02
110             	3.12315750e+02
111             	3.12353619e+02
112             	3.12376381e+02
113             	3.12400759e+02
114             	3.12436596e+02
115             	3.12472139e+02
116             	3.12491365e+02
117             	3.12500464e+02
118             	3.12512080e+02
119             	3.12523410e+02
120             	3.12528979e+02
121             	3.12534063e+02
122             	3.12545744e+02
123             	3.12574077e+02
124             	3.12605450e+02
125             	3.12637312e+02
126             	3.12670500e+02
127             	3.12707218e+02
128             	3.12740398e+02
129             	3.12758874e+02
130             	3.12776128e+02
131             	3.12799053e+02
132             	3.12831760e+02
133             	3.12863924e+02
134             	3.12889840e+02
135             	3.12910084e+02
136             	3.12923787e+02
137             	3.12928644e+02
138             	3.12924356e+02
139             	3.12923034e+02
140             	3.12937058e+02
141             	3.12964980e+02
142             	3.12986633e+02
143             	3.13011666e+02
144             	3.13038538e+02
145             	3.13066104e+02
146             	3.13090920e+02
147             	3.13102333e+02
148             	3.13106619e+02
149             	3.13118251e+02
150             	3.13127503e+02
151             	3.13139738e+02
152             	3.13147449e+02
153             	3.13163580e+02
154             	3.13187772e+02
155             	3.13214673e+02
156             	3.13240674e+02
157             	3.13268010e+02
158             	3.13292863e+02
159             	3.13324949e+02
160             	3.13359382e+02
161             	3.13392962e+02
162             	3.13415910e+02
163             	3.13445115e+02
164             	3.13476468e+02
165             	3.13506050e+02
166             	3.13531714e+02
167             	3.13547282e+02
168             	3.13554113e+02
169             	3.13559032e+02
170             	3.13565031e+02
171             	3.13581461e+02
172             	3.13596261e+02
173             	3.13610458e+02
174             	3.13613441e+02
175             	3.13625891e+02
176             	3.13650105e+02
177             	3.13677093e+02
178             	3.13702148e+02
179             	3.13716147e+02
180             	3.13729634e+02
181             	3.13747629e+02
182             	3.13777241e+02
183             	3.13807848e+02
184             	3.13834284e+02
185             	3.13858170e+02
186             	3.13882182e+02
187             	3.13903322e+02
188             	3.13918852e+02
189             	3.13939051e+02
190             	3.13955298e+02
191             	3.13975764e+02
192             	3.13988543e+02
193             	3.13999911e+02
194             	3.14004230e+02
195             	3.14016969e+02
196             	3.14029942e+02
197             	3.14040983e+02
198             	3.14051930e+02
199             	3.14066948e+02
200             	3.14093744e+02
201             	3.14122861e+02
202             	3.14146516e+02
203             	3.14167582e+02
204             	3.14189552e+02
205             	3.14211628e+02
206             	3.14221910e+02
207             	3.14233426e+02
208             	3.14247815e+02
209             	3.14264257e+02
210             	3.14259152e+02
211             	3.14244870e+02
212             	3.14222288e+02
213             	3.14215820e+02
214             	3.14215863e+02
215             	3.14203520e+02
216             	3.14178489e+02
217             	3.14179595e+02
218             	3.14198972e+02
219             	3.14212387e+02
220             	3.14214594e+02
221             	3.14212080e+02
222             	3.14217791e+02
223             	3.14231760e+02
224             	3.14244843e+02
225             	3.14252055e+02
226             	3.14259983e+02
227             	3.14278047e+02
228             	3.14308584e+02
229             	3.14333692e+02
230             	3.14358547e+02
231             	3.14384744e+02
232             	3.14413284e+02
233             	3.14444971e+02
234             	3.14475542e+02
235             	3.14498923e+02
236             	3.14512334e+02
237             	3.14520456e+02
238             	3.14532488e+02
239             	3.14552310e+02
240             	3.14584499e+02
241             	3.14609927e+02
242             	3.14632940e+02
243             	3.14646409e+02
244             	3.14668361e+02
245             	3.14695293e+02
246             	3.14720977e+02
247             	3.14747169e+02
248             	3.14773536e+02
249             	3.14801769e+02
250             	3.14827186e+02
251             	3.14855414e+02
252             	3.14890069e+02
253             	3.14924319e+02
254             	3.14959915e+02
255             	3.14991731e+02
256             	3.15024458e+02
257             	3.15060556e+02
258             	3.15091173e+02
259             	3.15116215e+02
260             	3.15133647e+02
261             	3.15147192e+02
262             	3.15160833e+02
263             	3.15176847e+02
264             	3.15195849e+02
265             	3.15213048e+02
266             	3.15231750e+02
267             	3.15248817e+02
268             	3.15271623e+02
269             	3.15295336e+02
270             	3.15320774e+02
271             	3.15348466e+02
272             	3.15377465e+02
273             	3.15407760e+02
274             	3.15439723e+02
275             	3.15471638e+02
276             	3.15504124e+02
277             	3.15535296e+02
278             	3.15563299e+02
279             	3.15588930e+02
280             	3.15611774e+02
281             	3.15634325e+02
282             	3.15653979e+02
283             	3.15673086e+02
284             	3.15693806e+02
285             	3.15718230e+02
286             	3.15742469e+02
287             	3.15762200e+02
288             	3.15785115e+02
289             	3.15810540e+02
290             	3.15835154e+02
291             	3.15857406e+02
292             	3.15881025e+02
293             	3.15907143e+02
294             	3.15933975e+02
295             	3.15960951e+02
296             	3.15985870e+02
297             	3.16009742e+02
298             	3.16032335e+02
299             	3.16053194e+02
300             	3.16073407e+02
301             	3.16093511e+02
302             	3.16114265e+02
303             	3.16133409e+02
304             	3.16153431e+02
305             	3.16173173e+02
306             	3.16188820e+02
307             	3.16205954e+02
308             	3.16222893e+02
309             	3.16238059e+02
310             	3.16248494e+02
311             	3.16261718e+02
312             	3.16272632e+02
313             	3.16287363e+02
314             	3.16297998e+02
315             	3.16310647e+02
316             	3.16322268e+02
317             	3.16341011e+02
318             	3.16364607e+02
319             	3.16386108e+02
320             	3.16408330e+02
321             	3.16430291e+02
322             	3.16451655e+02
323             	3.16472440e+02
324             	3.16489892e+02
325             	3.16502594e+02
326             	3.16515769e+02
327             	3.16530309e+02
328             	3.16545170e+02
329             	3.16561411e+02
330             	3.16577285e+02
331             	3.16595027e+02
332             	3.16614813e+02
333             	3.16633984e+02
334             	3.16652593e+02
335             	3.16668561e+02
336             	3.16682238e+02
337             	3.16694528e+02
338             	3.16709064e+02
339             	3.16724216e+02
340             	3.16734730e+02
341             	3.16743662e+02
342             	3.16753248e+02
343             	3.16760538e+02
344             	3.16769596e+02
345             	3.16779107e+02
346             	3.16789074e+02
347             	3.16796771e+02
348             	3.16806120e+02
349             	3.16811360e+02
350             	3.16818656e+02
351             	3.16826516e+02
352             	3.16836152e+02
353             	3.16842851e+02
354             	3.16850348e+02
355             	3.16857495e+02
356             	3.16864671e+02
357             	3.16874933e+02
358             	3.16886743e+02
359             	3.16899195e+02
360             	3.16912431e+02
361             	3.16927768e+02
362             	3.16943348e+02
363             	3.16960471e+02
364             	3.16977885e+02
365             	3.16992753e+02
366             	3.17003404e+02
367             	3.17012339e+02
368             	3.17022992e+02
369             	3.17029721e+02
370             	3.17033491e+02
371             	3.17035703e+02
372             	3.17038994e+02
373             	3.17041205e+02
374             	3.17047063e+02
375             	3.17055876e+02
376             	3.17066100e+02
377             	3.17076404e+02
378             	3.17088055e+02
379             	3.17101899e+02
380             	3.17116929e+02
381             	3.17131967e+02
382             	3.17145404e+02
383             	3.17156627e+02
384             	3.17165607e+02
385             	3.17174664e+02
386             	3.17181920e+02
387             	3.17186258e+02
388             	3.17190227e+02
389             	3.17192436e+02
390             	3.17195724e+02
391             	3.17198804e+02
392             	3.17202822e+02
393             	3.17208422e+02
394             	3.17215567e+02
395             	3.17223777e+02
396             	3.17232971e+02
397             	3.17242956e+02
398             	3.17252536e+02
399             	3.17263653e+02
400             	3.17275341e+02
401             	3.17287303e+02
402             	3.17298276e+02
403             	3.17308271e+02
404             	3.17317431e+02
405             	3.17325832e+02
406             	3.17333626e+02
407             	3.17340440e+02
408             	3.17346408e+02
409             	3.17351526e+02
410             	3.17356267e+02
411             	3.17359987e+02
412             	3.17364073e+02
413             	3.17368545e+02
414             	3.17373307e+02
415             	3.17378470e+02
416             	3.17384402e+02
417             	3.17390509e+02
418             	3.17396693e+02
419             	3.17402940e+02
420             	3.17408516e+02
421             	3.17413086e+02
422             	3.17418562e+02
423             	3.17424280e+02
424             	3.17430038e+02
425             	3.17435523e+02
426             	3.17441269e+02
427             	3.17447153e+02
428             	3.17452843e+02
429             	3.17458076e+02
430             	3.17462529e+02
431             	3.17467274e+02
432             	3.17471882e+02
433             	3.17476974e+02
434             	3.17481838e+02
435             	3.17486659e+02
436             	3.17491697e+02
437             	3.17497211e+02
438             	3.17503075e+02
439             	3.17508637e+02
440             	3.17514377e+02
441             	3.17520595e+02
442             	3.17526649e+02
443             	3.17531923e+02
444             	3.17537462e+02
445             	3.17543181e+02
446             	3.17547047e+02
447             	3.17550825e+02
448             	3.17554299e+02
449             	3.17558147e+02
450             	3.17561195e+02
451             	3.17564709e+02
452             	3.17567536e+02
453             	3.17569944e+02
454             	3.17573193e+02
455             	3.17577035e+02
456             	3.17580712e+02
457             	3.17584427e+02
458             	3.17587726e+02
459             	3.17591243e+02
460             	3.17595198e+02
461             	3.17599487e+02
462             	3.17603754e+02
463             	3.17607565e+02
464             	3.17612229e+02
465             	3.17615683e+02
466             	3.17619696e+02
467             	3.17623954e+02
468             	3.17628352e+02
469             	3.17633003e+02
470             	3.17637390e+02
471             	3.17642004e+02
472             	3.17646632e+02
473             	3.17651399e+02
474             	3.17656278e+02
475             	3.17661169e+02
476             	3.17666396e+02
477             	3.17671541e+02
478             	3.17676621e+02
479             	3.17681635e+02
480             	3.17686505e+02
481             	3.17691320e+02
482             	3.17696491e+02
483             	3.17701602e+02
484             	3.17706799e+02
485             	3.17712060e+02
486             	3.17717396e+02
487             	3.17722617e+02
488             	3.17727526e+02
489             	3.17731990e+02
490             	3.17736009e+02
491             	3.17739708e+02
492             	3.17743057e+02
493             	3.17746271e+02
494             	3.17749607e+02
495             	3.17753395e+02
496             	3.17757608e+02
497             	3.17760659e+02
498             	3.17763647e+02
499             	3.17766763e+02
500             	3.17769623e+02
501             	3.17771682e+02
502             	3.17773978e+02
503             	3.17775561e+02
504             	3.17777398e+02
505             	3.17779060e+02
506             	3.17780635e+02
507             	3.17782327e+02
508             	3.17784565e+02
509             	3.17786775e+02
510             	3.17789852e+02
511             	3.17793131e+02
512             	3.17796601e+02
513             	3.17800324e+02
514             	3.17803493e+02
515             	3.17805372e+02
516             	3.17807620e+02
517             	3.17810435e+02
518             	3.17812705e+02
519             	3.17814288e+02
520             	3.17815823e+02
521             	3.17817714e+02
522             	3.17819222e+02
523             	3.17820533e+02
524             	3.17822259e+02
525             	3.17824539e+02
526             	3.17826832e+02
527             	3.17829099e+02
528             	3.17831562e+02
529             	3.17834147e+02
530             	3.17836722e+02
531             	3.17839141e+02
532             	3.17841292e+02
533             	3.17843162e+02
534             	3.17844410e+02
535             	3.17845722e+02
536             	3.17846248e+02
537             	3.17847198e+02
538             	3.17847707e+02
539             	3.17848651e+02
540             	3.17849877e+02
541             	3.17851491e+02
542             	3.17853278e+02
543             	3.17855355e+02
544             	3.17857505e+02
545             	3.17860166e+02
546             	3.17863477e+02
547             	3.17868104e+02
548             	3.17872766e+02
549             	3.17877038e+02
550             	3.17880650e+02
551             	3.17884453e+02
552             	3.17888334e+02
553             	3.17891859e+02
554             	3.17894740e+02
555             	3.17896511e+02
556             	3.17897537e+02
557             	3.17898324e+02
558             	3.17898760e+02
559             	3.17899208e+02
560             	3.17899631e+02
561             	3.17899801e+02
562             	3.17899920e+02
563             	3.17900540e+02
564             	3.17903216e+02
565             	3.17905936e+02
566             	3.17909041e+02
567             	3.17911114e+02
568             	3.17913447e+02
569             	3.17914483e+02
570             	3.17916112e+02
571             	3.17918004e+02
572             	3.17920684e+02
573             	3.17923558e+02
574             	3.17925857e+02
575             	3.17928058e+02
576             	3.17929887e+02
577             	3.17931442e+02
578             	3.17933429e+02
579             	3.17935619e+02
580             	3.17936673e+02
581             	3.17937538e+02
582             	3.17936982e+02
583             	3.17936859e+02
584             	3.17937301e+02
585             	3.17937005e+02
586             	3.17936251e+02
587             	3.17935619e+02
588             	3.17934687e+02
589             	3.17933674e+02
590             	3.17933130e+02
591             	3.17932720e+02
592             	3.17933480e+02
593             	3.17934804e+02
594             	3.17936548e+02
595             	3.17938743e+02
596             	3.17940447e+02
597             	3.17941301e+02
598             	3.17942490e+02
599             	3.17944855e+02
600             	3.17947042e+02
601             	3.17948458e+02
602             	3.17948872e+02
603             	3.17948108e+02
604             	3.17947473e+02
605             	3.17946943e+02
606             	3.17946022e+02
607             	3.17945827e+02
608             	3.17946490e+02
609             	3.17947708e+02
610             	3.17948905e+02
611             	3.17950553e+02
612             	3.17952398e+02
613             	3.17953973e+02
614             	3.17956402e+02
615             	3.17958968e+02
616             	3.17961370e+02
617             	3.17963393e+02
618             	3.17964500e+02
619             	3.17966582e+02
620             	3.17968342e+02
621             	3.17970012e+02
