# Region        : cellZone pcb
# Cells         : 408
# Volume        : 8.21495874e-01
# Time          	volAverage(T)
1               	3.00011010e+02
2               	3.00032316e+02
3               	3.00061470e+02
4               	3.00098508e+02
5               	3.00139051e+02
6               	3.00183896e+02
7               	3.00234513e+02
8               	3.00290083e+02
9               	3.00350123e+02
10              	3.00415191e+02
11              	3.00484106e+02
12              	3.00553397e+02
13              	3.00624791e+02
14              	3.00699376e+02
15              	3.00776939e+02
16              	3.00856216e+02
17              	3.00938081e+02
18              	3.01021997e+02
19              	3.01106524e+02
20              	3.01192598e+02
21              	3.01280079e+02
22              	3.01368878e+02
23              	3.01456011e+02
24              	3.01543553e+02
25              	3.01633185e+02
26              	3.01722669e+02
27              	3.01812600e+02
28              	3.01906055e+02
29              	3.01998181e+02
30              	3.02089834e+02
31              	3.02182361e+02
32              	3.02275149e+02
33              	3.02367195e+02
34              	3.02457700e+02
35              	3.02549064e+02
36              	3.02638963e+02
37              	3.02728584e+02
38              	3.02817960e+02
39              	3.02906653e+02
40              	3.02995183e+02
41              	3.03081189e+02
42              	3.03165173e+02
43              	3.03249020e+02
44              	3.03333287e+02
45              	3.03415693e+02
46              	3.03495259e+02
47              	3.03575561e+02
48              	3.03652188e+02
49              	3.03725217e+02
50              	3.03798196e+02
51              	3.03873835e+02
52              	3.03950812e+02
53              	3.04026621e+02
54              	3.04101638e+02
55              	3.04178035e+02
56              	3.04255272e+02
57              	3.04331708e+02
58              	3.04408163e+02
59              	3.04480496e+02
60              	3.04551783e+02
61              	3.04618878e+02
62              	3.04684387e+02
63              	3.04746951e+02
64              	3.04808118e+02
65              	3.04867958e+02
66              	3.04927511e+02
67              	3.04987051e+02
68              	3.05045789e+02
69              	3.05103954e+02
70              	3.05162475e+02
71              	3.05220869e+02
72              	3.05278193e+02
73              	3.05334141e+02
74              	3.05388572e+02
75              	3.05442240e+02
76              	3.05494779e+02
77              	3.05547034e+02
78              	3.05596407e+02
79              	3.05643920e+02
80              	3.05690533e+02
81              	3.05737871e+02
82              	3.05784105e+02
83              	3.05829671e+02
84              	3.05874002e+02
85              	3.05917672e+02
86              	3.05961882e+02
87              	3.06004952e+02
88              	3.06047114e+02
89              	3.06089675e+02
90              	3.06131154e+02
91              	3.06171789e+02
92              	3.06211798e+02
93              	3.06251475e+02
94              	3.06289653e+02
95              	3.06326102e+02
96              	3.06361585e+02
97              	3.06396480e+02
98              	3.06429703e+02
99              	3.06462043e+02
100             	3.06493081e+02
101             	3.06524243e+02
102             	3.06555255e+02
103             	3.06585958e+02
104             	3.06616274e+02
105             	3.06646626e+02
106             	3.06676782e+02
107             	3.06707117e+02
108             	3.06736936e+02
109             	3.06766550e+02
110             	3.06796369e+02
111             	3.06826851e+02
112             	3.06856674e+02
113             	3.06884886e+02
114             	3.06911825e+02
115             	3.06938482e+02
116             	3.06964283e+02
117             	3.06989409e+02
118             	3.07013700e+02
119             	3.07038178e+02
120             	3.07061115e+02
121             	3.07084290e+02
122             	3.07106824e+02
123             	3.07129249e+02
124             	3.07151201e+02
125             	3.07173006e+02
126             	3.07194609e+02
127             	3.07216353e+02
128             	3.07238304e+02
129             	3.07260102e+02
130             	3.07281258e+02
131             	3.07302329e+02
132             	3.07323898e+02
133             	3.07344726e+02
134             	3.07365238e+02
135             	3.07385519e+02
136             	3.07405182e+02
137             	3.07423963e+02
138             	3.07441618e+02
139             	3.07458706e+02
140             	3.07475458e+02
141             	3.07492003e+02
142             	3.07508066e+02
143             	3.07524112e+02
144             	3.07540026e+02
145             	3.07556167e+02
146             	3.07571757e+02
147             	3.07587803e+02
148             	3.07603261e+02
149             	3.07618742e+02
150             	3.07633818e+02
151             	3.07649908e+02
152             	3.07665312e+02
153             	3.07680796e+02
154             	3.07695738e+02
155             	3.07710526e+02
156             	3.07724620e+02
157             	3.07739098e+02
158             	3.07752952e+02
159             	3.07765956e+02
160             	3.07777748e+02
161             	3.07789055e+02
162             	3.07800033e+02
163             	3.07811171e+02
164             	3.07821837e+02
165             	3.07832637e+02
166             	3.07843516e+02
167             	3.07855353e+02
168             	3.07867066e+02
169             	3.07878589e+02
170             	3.07890022e+02
171             	3.07901351e+02
172             	3.07912455e+02
173             	3.07922383e+02
174             	3.07931209e+02
175             	3.07939431e+02
176             	3.07947766e+02
177             	3.07955820e+02
178             	3.07963925e+02
179             	3.07972025e+02
180             	3.07980428e+02
181             	3.07988796e+02
182             	3.07997359e+02
183             	3.08006182e+02
184             	3.08014508e+02
185             	3.08023039e+02
186             	3.08031214e+02
187             	3.08039313e+02
188             	3.08046669e+02
189             	3.08053970e+02
190             	3.08060668e+02
191             	3.08067344e+02
192             	3.08073112e+02
193             	3.08078948e+02
194             	3.08084348e+02
195             	3.08090389e+02
196             	3.08095812e+02
197             	3.08101391e+02
198             	3.08107220e+02
199             	3.08113399e+02
200             	3.08120012e+02
201             	3.08126691e+02
202             	3.08133153e+02
203             	3.08139389e+02
204             	3.08144850e+02
205             	3.08149821e+02
206             	3.08154171e+02
207             	3.08158401e+02
208             	3.08162558e+02
209             	3.08166602e+02
210             	3.08170980e+02
211             	3.08175459e+02
212             	3.08179969e+02
213             	3.08184556e+02
214             	3.08189662e+02
215             	3.08194307e+02
216             	3.08199334e+02
217             	3.08203848e+02
218             	3.08208363e+02
219             	3.08212354e+02
220             	3.08215955e+02
221             	3.08219430e+02
222             	3.08223170e+02
223             	3.08226401e+02
224             	3.08229865e+02
225             	3.08232783e+02
226             	3.08236119e+02
227             	3.08238972e+02
228             	3.08242071e+02
229             	3.08244775e+02
230             	3.08247966e+02
231             	3.08250960e+02
232             	3.08254282e+02
233             	3.08257341e+02
234             	3.08260737e+02
235             	3.08263679e+02
236             	3.08267004e+02
237             	3.08269868e+02
238             	3.08273101e+02
239             	3.08275560e+02
240             	3.08277989e+02
241             	3.08279875e+02
242             	3.08281922e+02
243             	3.08283671e+02
244             	3.08285559e+02
245             	3.08287101e+02
246             	3.08289235e+02
247             	3.08291702e+02
248             	3.08294454e+02
249             	3.08297000e+02
250             	3.08299973e+02
251             	3.08302772e+02
252             	3.08305419e+02
253             	3.08307645e+02
254             	3.08309893e+02
255             	3.08311291e+02
256             	3.08313000e+02
257             	3.08314143e+02
258             	3.08315583e+02
259             	3.08316523e+02
260             	3.08317888e+02
261             	3.08319036e+02
262             	3.08320553e+02
263             	3.08321924e+02
264             	3.08324381e+02
265             	3.08326262e+02
266             	3.08328600e+02
267             	3.08330369e+02
268             	3.08332518e+02
269             	3.08333996e+02
270             	3.08335178e+02
271             	3.08336034e+02
272             	3.08337030e+02
273             	3.08337750e+02
274             	3.08338475e+02
275             	3.08339283e+02
276             	3.08340376e+02
277             	3.08341114e+02
278             	3.08342513e+02
279             	3.08343702e+02
280             	3.08345441e+02
281             	3.08346994e+02
282             	3.08349118e+02
283             	3.08350356e+02
284             	3.08351731e+02
285             	3.08352679e+02
286             	3.08354104e+02
287             	3.08354775e+02
288             	3.08355722e+02
289             	3.08356309e+02
290             	3.08357395e+02
291             	3.08358181e+02
292             	3.08359350e+02
293             	3.08360068e+02
294             	3.08361134e+02
295             	3.08361761e+02
296             	3.08362515e+02
297             	3.08362979e+02
298             	3.08363742e+02
299             	3.08364286e+02
300             	3.08365175e+02
301             	3.08365806e+02
302             	3.08366897e+02
303             	3.08367425e+02
304             	3.08368055e+02
305             	3.08368376e+02
306             	3.08368870e+02
307             	3.08369014e+02
308             	3.08369469e+02
309             	3.08369632e+02
310             	3.08370272e+02
311             	3.08370569e+02
312             	3.08371436e+02
313             	3.08371974e+02
314             	3.08373088e+02
315             	3.08373775e+02
316             	3.08374858e+02
317             	3.08375464e+02
318             	3.08376575e+02
319             	3.08377173e+02
320             	3.08378076e+02
321             	3.08378526e+02
322             	3.08379479e+02
323             	3.08379903e+02
324             	3.08380626e+02
325             	3.08380902e+02
326             	3.08381695e+02
327             	3.08382025e+02
328             	3.08382850e+02
329             	3.08383131e+02
330             	3.08383831e+02
331             	3.08384002e+02
332             	3.08384596e+02
333             	3.08384738e+02
334             	3.08385199e+02
335             	3.08385287e+02
336             	3.08385662e+02
337             	3.08385709e+02
338             	3.08386182e+02
339             	3.08386311e+02
340             	3.08386848e+02
341             	3.08386988e+02
342             	3.08387685e+02
343             	3.08387848e+02
344             	3.08388539e+02
345             	3.08388694e+02
346             	3.08389060e+02
347             	3.08389049e+02
348             	3.08389486e+02
349             	3.08389529e+02
350             	3.08390014e+02
351             	3.08390075e+02
352             	3.08390684e+02
353             	3.08390824e+02
354             	3.08391416e+02
355             	3.08391566e+02
356             	3.08392135e+02
357             	3.08392195e+02
358             	3.08392662e+02
359             	3.08392596e+02
360             	3.08392912e+02
361             	3.08392755e+02
362             	3.08393056e+02
363             	3.08392943e+02
364             	3.08393304e+02
365             	3.08393263e+02
366             	3.08393688e+02
367             	3.08393692e+02
368             	3.08394190e+02
369             	3.08394208e+02
370             	3.08394642e+02
371             	3.08394590e+02
372             	3.08394953e+02
373             	3.08394840e+02
374             	3.08395179e+02
375             	3.08395053e+02
376             	3.08395402e+02
377             	3.08395313e+02
378             	3.08395713e+02
379             	3.08395698e+02
380             	3.08396088e+02
381             	3.08396071e+02
382             	3.08396529e+02
383             	3.08396509e+02
384             	3.08396877e+02
385             	3.08396775e+02
386             	3.08397125e+02
387             	3.08396996e+02
388             	3.08397362e+02
389             	3.08397216e+02
390             	3.08397477e+02
391             	3.08397309e+02
392             	3.08397625e+02
393             	3.08397481e+02
394             	3.08397815e+02
395             	3.08397707e+02
396             	3.08398086e+02
397             	3.08398004e+02
398             	3.08398417e+02
399             	3.08398353e+02
400             	3.08398812e+02
401             	3.08398767e+02
402             	3.08399167e+02
403             	3.08399099e+02
404             	3.08399468e+02
405             	3.08399400e+02
406             	3.08399824e+02
407             	3.08399767e+02
408             	3.08400139e+02
409             	3.08400036e+02
410             	3.08400360e+02
411             	3.08400223e+02
412             	3.08400529e+02
413             	3.08400363e+02
414             	3.08400640e+02
415             	3.08400445e+02
416             	3.08400710e+02
417             	3.08400506e+02
418             	3.08400771e+02
419             	3.08400577e+02
420             	3.08400866e+02
421             	3.08400726e+02
422             	3.08401013e+02
423             	3.08400857e+02
424             	3.08401206e+02
425             	3.08401101e+02
426             	3.08401454e+02
427             	3.08401328e+02
428             	3.08401610e+02
429             	3.08401436e+02
430             	3.08401685e+02
431             	3.08401476e+02
432             	3.08401714e+02
433             	3.08401483e+02
434             	3.08401660e+02
435             	3.08401380e+02
436             	3.08401628e+02
437             	3.08401382e+02
438             	3.08401551e+02
439             	3.08401275e+02
440             	3.08401480e+02
441             	3.08401243e+02
442             	3.08401508e+02
443             	3.08401332e+02
444             	3.08401620e+02
445             	3.08401456e+02
446             	3.08401786e+02
447             	3.08401650e+02
448             	3.08401969e+02
449             	3.08401815e+02
450             	3.08402098e+02
451             	3.08401928e+02
452             	3.08402205e+02
453             	3.08402027e+02
454             	3.08402301e+02
455             	3.08402098e+02
456             	3.08402326e+02
457             	3.08402095e+02
458             	3.08402314e+02
459             	3.08402068e+02
460             	3.08402284e+02
461             	3.08402033e+02
462             	3.08402245e+02
463             	3.08402000e+02
464             	3.08402230e+02
465             	3.08402004e+02
466             	3.08402254e+02
467             	3.08402050e+02
468             	3.08402323e+02
469             	3.08402136e+02
470             	3.08402411e+02
471             	3.08402236e+02
472             	3.08402518e+02
473             	3.08402349e+02
474             	3.08402634e+02
475             	3.08402464e+02
476             	3.08402748e+02
477             	3.08402571e+02
478             	3.08402852e+02
479             	3.08402667e+02
480             	3.08402950e+02
481             	3.08402765e+02
482             	3.08403042e+02
483             	3.08402853e+02
484             	3.08403137e+02
485             	3.08402954e+02
486             	3.08403236e+02
487             	3.08403056e+02
488             	3.08403342e+02
489             	3.08403163e+02
490             	3.08403449e+02
491             	3.08403274e+02
492             	3.08403561e+02
493             	3.08403384e+02
494             	3.08403645e+02
495             	3.08403456e+02
496             	3.08403738e+02
497             	3.08403551e+02
498             	3.08403815e+02
499             	3.08403615e+02
500             	3.08403871e+02
501             	3.08403663e+02
502             	3.08403911e+02
503             	3.08403696e+02
504             	3.08403941e+02
505             	3.08403722e+02
506             	3.08403980e+02
507             	3.08403769e+02
508             	3.08404016e+02
509             	3.08403806e+02
510             	3.08404061e+02
511             	3.08403854e+02
512             	3.08404120e+02
513             	3.08403929e+02
514             	3.08404206e+02
515             	3.08404020e+02
516             	3.08404296e+02
517             	3.08404110e+02
518             	3.08404386e+02
519             	3.08404199e+02
520             	3.08404471e+02
521             	3.08404278e+02
522             	3.08404542e+02
523             	3.08404337e+02
524             	3.08404595e+02
525             	3.08404383e+02
526             	3.08404638e+02
527             	3.08404422e+02
528             	3.08404668e+02
529             	3.08404446e+02
530             	3.08404700e+02
531             	3.08404482e+02
532             	3.08404724e+02
533             	3.08404502e+02
534             	3.08404729e+02
535             	3.08404493e+02
536             	3.08404719e+02
537             	3.08404485e+02
538             	3.08404697e+02
539             	3.08404456e+02
540             	3.08404683e+02
541             	3.08404435e+02
542             	3.08404650e+02
543             	3.08404393e+02
544             	3.08404604e+02
545             	3.08404349e+02
546             	3.08404539e+02
547             	3.08404250e+02
548             	3.08404436e+02
549             	3.08404154e+02
550             	3.08404310e+02
551             	3.08404012e+02
552             	3.08404181e+02
553             	3.08403896e+02
554             	3.08404094e+02
555             	3.08403832e+02
556             	3.08404030e+02
557             	3.08403767e+02
558             	3.08403990e+02
559             	3.08403743e+02
560             	3.08403960e+02
561             	3.08403703e+02
562             	3.08403905e+02
563             	3.08403643e+02
564             	3.08403843e+02
565             	3.08403583e+02
566             	3.08403766e+02
567             	3.08403501e+02
568             	3.08403693e+02
569             	3.08403436e+02
570             	3.08403636e+02
571             	3.08403382e+02
572             	3.08403579e+02
573             	3.08403314e+02
574             	3.08403526e+02
575             	3.08403265e+02
576             	3.08403470e+02
577             	3.08403210e+02
578             	3.08403465e+02
579             	3.08403224e+02
580             	3.08403434e+02
581             	3.08403189e+02
582             	3.08403439e+02
583             	3.08403230e+02
584             	3.08403489e+02
585             	3.08403292e+02
586             	3.08403539e+02
587             	3.08403331e+02
588             	3.08403553e+02
589             	3.08403329e+02
590             	3.08403563e+02
591             	3.08403324e+02
592             	3.08403573e+02
593             	3.08403336e+02
594             	3.08403561e+02
595             	3.08403321e+02
596             	3.08403534e+02
597             	3.08403294e+02
598             	3.08403556e+02
599             	3.08403350e+02
600             	3.08403598e+02
601             	3.08403381e+02
602             	3.08403621e+02
603             	3.08403409e+02
604             	3.08403651e+02
605             	3.08403430e+02
606             	3.08403641e+02
607             	3.08403396e+02
608             	3.08403610e+02
609             	3.08403362e+02
610             	3.08403512e+02
611             	3.08403235e+02
612             	3.08403434e+02
613             	3.08403191e+02
614             	3.08403397e+02
615             	3.08403152e+02
616             	3.08403385e+02
617             	3.08403162e+02
618             	3.08403367e+02
619             	3.08403136e+02
620             	3.08403349e+02
621             	3.08403131e+02
