# Region        : cellZone component_3
# Cells         : 157
# Volume        : 2.67854616e-01
# Time          	volAverage(T)
1               	3.00748528e+02
2               	3.01482618e+02
3               	3.02122296e+02
4               	3.02694500e+02
5               	3.03242047e+02
6               	3.03777126e+02
7               	3.04302612e+02
8               	3.04813267e+02
9               	3.05310627e+02
10              	3.05801713e+02
11              	3.06284076e+02
12              	3.06748141e+02
13              	3.07184317e+02
14              	3.07615441e+02
15              	3.08029565e+02
16              	3.08431931e+02
17              	3.08820439e+02
18              	3.09190017e+02
19              	3.09534024e+02
20              	3.09826033e+02
21              	3.10095474e+02
22              	3.10408801e+02
23              	3.10727560e+02
24              	3.11024080e+02
25              	3.11309028e+02
26              	3.11596434e+02
27              	3.11882194e+02
28              	3.12150285e+02
29              	3.12433524e+02
30              	3.12659189e+02
31              	3.12849357e+02
32              	3.13020204e+02
33              	3.13232388e+02
34              	3.13439267e+02
35              	3.13636155e+02
36              	3.13822619e+02
37              	3.14028081e+02
38              	3.14236157e+02
39              	3.14452185e+02
40              	3.14661063e+02
41              	3.14879462e+02
42              	3.15073916e+02
43              	3.15277580e+02
44              	3.15478574e+02
45              	3.15657840e+02
46              	3.15784351e+02
47              	3.15917146e+02
48              	3.16056782e+02
49              	3.16193976e+02
50              	3.16320577e+02
51              	3.16435222e+02
52              	3.16533792e+02
53              	3.16628999e+02
54              	3.16728134e+02
55              	3.16839695e+02
56              	3.16950355e+02
57              	3.17057401e+02
58              	3.17162928e+02
59              	3.17267026e+02
60              	3.17368610e+02
61              	3.17469104e+02
62              	3.17567550e+02
63              	3.17663320e+02
64              	3.17756115e+02
65              	3.17845231e+02
66              	3.17933341e+02
67              	3.18019599e+02
68              	3.18102715e+02
69              	3.18192483e+02
70              	3.18281377e+02
71              	3.18365563e+02
72              	3.18442402e+02
73              	3.18512851e+02
74              	3.18590151e+02
75              	3.18667223e+02
76              	3.18740020e+02
77              	3.18807101e+02
78              	3.18873312e+02
79              	3.18940914e+02
80              	3.19010915e+02
81              	3.19078448e+02
82              	3.19144125e+02
83              	3.19265924e+02
84              	3.19394026e+02
85              	3.19540406e+02
86              	3.19678887e+02
87              	3.19787709e+02
88              	3.19862088e+02
89              	3.19920785e+02
90              	3.19998924e+02
91              	3.20072073e+02
92              	3.20142636e+02
93              	3.20204522e+02
94              	3.20255070e+02
95              	3.20288853e+02
96              	3.20330588e+02
97              	3.20359924e+02
98              	3.20402359e+02
99              	3.20440511e+02
100             	3.20469693e+02
101             	3.20496747e+02
102             	3.20527676e+02
103             	3.20564612e+02
104             	3.20605978e+02
105             	3.20652294e+02
106             	3.20705970e+02
107             	3.20761877e+02
108             	3.20825424e+02
109             	3.20892831e+02
110             	3.20958304e+02
111             	3.21014948e+02
112             	3.21055968e+02
113             	3.21104630e+02
114             	3.21159677e+02
115             	3.21216581e+02
116             	3.21276650e+02
117             	3.21341286e+02
118             	3.21408874e+02
119             	3.21480225e+02
120             	3.21550252e+02
121             	3.21618898e+02
122             	3.21687621e+02
123             	3.21755246e+02
124             	3.21826765e+02
125             	3.21895415e+02
126             	3.21950360e+02
127             	3.22017624e+02
128             	3.22089697e+02
129             	3.22157287e+02
130             	3.22217739e+02
131             	3.22274169e+02
132             	3.22331633e+02
133             	3.22384856e+02
134             	3.22435525e+02
135             	3.22484887e+02
136             	3.22535008e+02
137             	3.22582475e+02
138             	3.22628660e+02
139             	3.22677520e+02
140             	3.22726519e+02
141             	3.22775888e+02
142             	3.22825185e+02
143             	3.22875240e+02
144             	3.22926442e+02
145             	3.22978557e+02
146             	3.23031408e+02
147             	3.23084949e+02
148             	3.23140144e+02
149             	3.23196180e+02
150             	3.23248893e+02
151             	3.23302877e+02
152             	3.23355647e+02
153             	3.23400639e+02
154             	3.23435281e+02
155             	3.23470398e+02
156             	3.23517076e+02
157             	3.23560592e+02
158             	3.23588345e+02
159             	3.23616078e+02
160             	3.23638457e+02
161             	3.23657893e+02
162             	3.23683332e+02
163             	3.23710252e+02
164             	3.23734609e+02
165             	3.23759250e+02
166             	3.23791897e+02
167             	3.23837290e+02
168             	3.23879429e+02
169             	3.23907226e+02
170             	3.23939904e+02
171             	3.23956595e+02
172             	3.23951726e+02
173             	3.23947191e+02
174             	3.23954506e+02
175             	3.23975566e+02
176             	3.23999303e+02
177             	3.24029416e+02
178             	3.24064228e+02
179             	3.24116665e+02
180             	3.24165997e+02
181             	3.24209232e+02
182             	3.24244798e+02
183             	3.24271510e+02
184             	3.24287097e+02
185             	3.24309873e+02
186             	3.24325246e+02
187             	3.24338577e+02
188             	3.24349375e+02
189             	3.24363250e+02
190             	3.24380246e+02
191             	3.24395925e+02
192             	3.24412023e+02
193             	3.24433592e+02
194             	3.24457277e+02
195             	3.24470071e+02
196             	3.24492868e+02
197             	3.24509282e+02
198             	3.24510029e+02
199             	3.24511085e+02
200             	3.24515686e+02
201             	3.24522429e+02
202             	3.24538113e+02
203             	3.24559921e+02
204             	3.24582354e+02
205             	3.24620206e+02
206             	3.24655025e+02
207             	3.24688151e+02
208             	3.24716920e+02
209             	3.24753721e+02
210             	3.24795862e+02
211             	3.24826119e+02
212             	3.24857798e+02
213             	3.24893731e+02
214             	3.24932952e+02
215             	3.24971422e+02
216             	3.25006911e+02
217             	3.25036138e+02
218             	3.25064023e+02
219             	3.25086186e+02
220             	3.25139703e+02
221             	3.25174905e+02
222             	3.25185900e+02
223             	3.25186107e+02
224             	3.25182308e+02
225             	3.25186753e+02
226             	3.25198842e+02
227             	3.25214979e+02
228             	3.25233017e+02
229             	3.25248026e+02
230             	3.25266955e+02
231             	3.25285903e+02
232             	3.25302699e+02
233             	3.25323022e+02
234             	3.25349428e+02
235             	3.25376452e+02
236             	3.25392565e+02
237             	3.25413885e+02
238             	3.25439534e+02
239             	3.25464949e+02
240             	3.25490098e+02
241             	3.25513722e+02
242             	3.25535415e+02
243             	3.25550433e+02
244             	3.25575418e+02
245             	3.25593751e+02
246             	3.25612297e+02
247             	3.25628992e+02
248             	3.25634636e+02
249             	3.25639505e+02
250             	3.25644715e+02
251             	3.25651682e+02
252             	3.25662002e+02
253             	3.25674419e+02
254             	3.25686954e+02
255             	3.25699248e+02
256             	3.25713491e+02
257             	3.25728406e+02
258             	3.25742531e+02
259             	3.25751144e+02
260             	3.25762256e+02
261             	3.25777592e+02
262             	3.25791173e+02
263             	3.25807367e+02
264             	3.25827608e+02
265             	3.25852850e+02
266             	3.25883109e+02
267             	3.25911938e+02
268             	3.25934272e+02
269             	3.25955313e+02
270             	3.25976690e+02
271             	3.25997589e+02
272             	3.26008931e+02
273             	3.26017921e+02
274             	3.26026054e+02
275             	3.26030406e+02
276             	3.26034540e+02
277             	3.26039372e+02
278             	3.26038710e+02
279             	3.26041912e+02
280             	3.26042454e+02
281             	3.26048147e+02
282             	3.26047621e+02
283             	3.26049387e+02
284             	3.26043485e+02
285             	3.26047257e+02
286             	3.26055296e+02
287             	3.26063133e+02
288             	3.26070667e+02
289             	3.26077077e+02
290             	3.26082076e+02
291             	3.26086504e+02
292             	3.26087722e+02
293             	3.26089911e+02
294             	3.26092496e+02
295             	3.26098446e+02
296             	3.26099707e+02
297             	3.26096406e+02
298             	3.26092535e+02
299             	3.26095896e+02
300             	3.26099540e+02
301             	3.26105401e+02
302             	3.26113538e+02
303             	3.26120638e+02
304             	3.26131220e+02
305             	3.26135150e+02
306             	3.26138796e+02
307             	3.26141835e+02
308             	3.26144210e+02
309             	3.26145204e+02
310             	3.26145301e+02
311             	3.26137893e+02
312             	3.26136688e+02
313             	3.26132836e+02
314             	3.26131646e+02
315             	3.26129950e+02
316             	3.26129780e+02
317             	3.26132767e+02
318             	3.26136884e+02
319             	3.26137687e+02
320             	3.26135565e+02
321             	3.26133603e+02
322             	3.26134862e+02
323             	3.26134189e+02
324             	3.26131143e+02
325             	3.26127378e+02
326             	3.26124276e+02
327             	3.26125042e+02
328             	3.26125834e+02
329             	3.26126213e+02
330             	3.26124479e+02
331             	3.26124469e+02
332             	3.26126952e+02
333             	3.26129853e+02
334             	3.26131808e+02
335             	3.26134066e+02
336             	3.26137176e+02
337             	3.26140813e+02
338             	3.26144212e+02
339             	3.26149517e+02
340             	3.26154045e+02
341             	3.26163175e+02
342             	3.26170489e+02
343             	3.26178463e+02
344             	3.26188956e+02
345             	3.26201117e+02
346             	3.26213826e+02
347             	3.26219047e+02
348             	3.26224773e+02
349             	3.26231445e+02
350             	3.26235038e+02
351             	3.26235768e+02
352             	3.26237793e+02
353             	3.26236157e+02
354             	3.26237037e+02
355             	3.26240623e+02
356             	3.26245222e+02
357             	3.26250618e+02
358             	3.26256504e+02
359             	3.26262289e+02
360             	3.26265614e+02
361             	3.26269552e+02
362             	3.26275591e+02
363             	3.26281077e+02
364             	3.26287277e+02
365             	3.26294044e+02
366             	3.26301474e+02
367             	3.26309138e+02
368             	3.26315328e+02
369             	3.26320829e+02
370             	3.26326711e+02
371             	3.26332995e+02
372             	3.26339434e+02
373             	3.26344491e+02
374             	3.26348985e+02
375             	3.26357852e+02
376             	3.26365088e+02
377             	3.26371396e+02
378             	3.26377564e+02
379             	3.26384503e+02
380             	3.26393072e+02
381             	3.26402602e+02
382             	3.26412440e+02
383             	3.26422537e+02
384             	3.26432438e+02
385             	3.26442270e+02
386             	3.26448840e+02
387             	3.26451992e+02
388             	3.26454419e+02
389             	3.26454976e+02
390             	3.26455867e+02
391             	3.26456998e+02
392             	3.26456654e+02
393             	3.26455230e+02
394             	3.26451167e+02
395             	3.26446370e+02
396             	3.26445992e+02
397             	3.26445104e+02
398             	3.26443884e+02
399             	3.26443952e+02
400             	3.26444067e+02
401             	3.26444503e+02
402             	3.26447460e+02
403             	3.26452185e+02
404             	3.26455833e+02
405             	3.26458975e+02
406             	3.26462552e+02
407             	3.26466856e+02
408             	3.26471159e+02
409             	3.26475269e+02
410             	3.26479161e+02
411             	3.26483249e+02
412             	3.26487381e+02
413             	3.26491246e+02
414             	3.26494959e+02
415             	3.26498384e+02
416             	3.26499190e+02
417             	3.26499380e+02
418             	3.26500857e+02
419             	3.26502299e+02
420             	3.26503223e+02
421             	3.26503451e+02
422             	3.26504588e+02
423             	3.26503050e+02
424             	3.26503217e+02
425             	3.26503888e+02
426             	3.26505102e+02
427             	3.26506653e+02
428             	3.26508272e+02
429             	3.26509686e+02
430             	3.26511164e+02
431             	3.26513430e+02
432             	3.26515814e+02
433             	3.26518296e+02
434             	3.26520380e+02
435             	3.26521184e+02
436             	3.26523641e+02
437             	3.26524896e+02
438             	3.26525455e+02
439             	3.26527073e+02
440             	3.26529725e+02
441             	3.26533417e+02
442             	3.26535942e+02
443             	3.26537968e+02
444             	3.26540018e+02
445             	3.26541743e+02
446             	3.26544326e+02
447             	3.26546753e+02
448             	3.26547093e+02
449             	3.26544286e+02
450             	3.26542883e+02
451             	3.26542550e+02
452             	3.26541424e+02
453             	3.26539770e+02
454             	3.26540407e+02
455             	3.26542965e+02
456             	3.26543677e+02
457             	3.26543467e+02
458             	3.26545020e+02
459             	3.26548078e+02
460             	3.26552035e+02
461             	3.26556252e+02
462             	3.26560293e+02
463             	3.26564371e+02
464             	3.26567745e+02
465             	3.26571025e+02
466             	3.26574308e+02
467             	3.26576755e+02
468             	3.26578601e+02
469             	3.26579527e+02
470             	3.26579655e+02
471             	3.26580017e+02
472             	3.26580334e+02
473             	3.26580198e+02
474             	3.26579783e+02
475             	3.26579116e+02
476             	3.26578296e+02
477             	3.26577592e+02
478             	3.26577805e+02
479             	3.26577545e+02
480             	3.26577112e+02
481             	3.26576839e+02
482             	3.26576914e+02
483             	3.26576473e+02
484             	3.26576757e+02
485             	3.26578067e+02
486             	3.26580420e+02
487             	3.26582454e+02
488             	3.26583342e+02
489             	3.26583612e+02
490             	3.26585174e+02
491             	3.26586183e+02
492             	3.26587617e+02
493             	3.26591418e+02
494             	3.26593295e+02
495             	3.26594273e+02
496             	3.26595761e+02
497             	3.26597983e+02
498             	3.26600526e+02
499             	3.26602970e+02
500             	3.26604702e+02
501             	3.26606346e+02
502             	3.26607971e+02
503             	3.26609613e+02
504             	3.26611140e+02
505             	3.26612409e+02
506             	3.26613505e+02
507             	3.26614371e+02
508             	3.26614566e+02
509             	3.26615512e+02
510             	3.26616221e+02
511             	3.26616244e+02
512             	3.26615731e+02
513             	3.26614710e+02
514             	3.26613257e+02
515             	3.26614037e+02
516             	3.26613150e+02
517             	3.26611396e+02
518             	3.26610218e+02
519             	3.26609690e+02
520             	3.26610177e+02
521             	3.26610046e+02
522             	3.26610658e+02
523             	3.26611826e+02
524             	3.26613073e+02
525             	3.26613719e+02
526             	3.26614535e+02
527             	3.26615583e+02
528             	3.26616611e+02
529             	3.26617479e+02
530             	3.26618337e+02
531             	3.26618428e+02
532             	3.26618237e+02
533             	3.26618663e+02
534             	3.26618960e+02
535             	3.26620049e+02
536             	3.26620784e+02
537             	3.26621433e+02
538             	3.26621174e+02
539             	3.26621747e+02
540             	3.26622751e+02
541             	3.26623580e+02
542             	3.26624101e+02
543             	3.26624340e+02
544             	3.26624384e+02
545             	3.26624368e+02
546             	3.26624215e+02
547             	3.26623869e+02
548             	3.26623360e+02
549             	3.26622691e+02
550             	3.26621944e+02
551             	3.26621292e+02
552             	3.26620741e+02
553             	3.26620748e+02
554             	3.26620924e+02
555             	3.26621242e+02
556             	3.26620735e+02
557             	3.26620787e+02
558             	3.26621080e+02
559             	3.26621061e+02
560             	3.26621076e+02
561             	3.26621538e+02
562             	3.26621411e+02
563             	3.26621150e+02
564             	3.26621020e+02
565             	3.26621035e+02
566             	3.26621249e+02
567             	3.26621548e+02
568             	3.26621722e+02
569             	3.26622180e+02
570             	3.26622242e+02
571             	3.26622928e+02
572             	3.26623323e+02
573             	3.26623856e+02
574             	3.26624155e+02
575             	3.26624490e+02
576             	3.26624833e+02
577             	3.26625545e+02
578             	3.26626485e+02
579             	3.26626907e+02
580             	3.26626741e+02
581             	3.26626356e+02
582             	3.26625763e+02
583             	3.26624877e+02
584             	3.26624090e+02
585             	3.26623365e+02
586             	3.26622942e+02
587             	3.26622141e+02
588             	3.26621384e+02
589             	3.26621356e+02
590             	3.26621607e+02
591             	3.26621883e+02
592             	3.26621988e+02
593             	3.26622696e+02
594             	3.26623379e+02
595             	3.26623886e+02
596             	3.26624155e+02
597             	3.26624365e+02
598             	3.26623863e+02
599             	3.26624030e+02
600             	3.26624891e+02
601             	3.26625085e+02
602             	3.26624997e+02
603             	3.26624965e+02
604             	3.26624967e+02
605             	3.26625196e+02
606             	3.26625809e+02
607             	3.26625893e+02
608             	3.26625357e+02
609             	3.26624601e+02
610             	3.26623798e+02
611             	3.26623189e+02
612             	3.26621986e+02
613             	3.26621382e+02
614             	3.26621040e+02
615             	3.26620069e+02
616             	3.26618556e+02
617             	3.26616373e+02
618             	3.26615574e+02
619             	3.26615420e+02
620             	3.26614966e+02
621             	3.26614104e+02
