# Region        : cellZone component_4
# Cells         : 668
# Volume        : 1.41761916e+00
# Time          	volAverage(T)
1               	3.00211615e+02
2               	3.00419499e+02
3               	3.00600742e+02
4               	3.00762408e+02
5               	3.00914589e+02
6               	3.01061258e+02
7               	3.01203022e+02
8               	3.01340138e+02
9               	3.01473203e+02
10              	3.01603202e+02
11              	3.01730274e+02
12              	3.01855455e+02
13              	3.01977962e+02
14              	3.02097978e+02
15              	3.02215613e+02
16              	3.02329410e+02
17              	3.02439049e+02
18              	3.02544447e+02
19              	3.02645527e+02
20              	3.02743660e+02
21              	3.02839264e+02
22              	3.02933066e+02
23              	3.03025883e+02
24              	3.03118166e+02
25              	3.03208703e+02
26              	3.03299235e+02
27              	3.03389171e+02
28              	3.03477606e+02
29              	3.03563443e+02
30              	3.03646372e+02
31              	3.03726265e+02
32              	3.03802936e+02
33              	3.03876080e+02
34              	3.03947086e+02
35              	3.04015816e+02
36              	3.04082466e+02
37              	3.04148196e+02
38              	3.04213751e+02
39              	3.04280864e+02
40              	3.04349149e+02
41              	3.04417473e+02
42              	3.04484391e+02
43              	3.04548577e+02
44              	3.04608660e+02
45              	3.04664630e+02
46              	3.04716979e+02
47              	3.04765555e+02
48              	3.04811484e+02
49              	3.04856294e+02
50              	3.04901372e+02
51              	3.04947304e+02
52              	3.04994317e+02
53              	3.05041908e+02
54              	3.05089005e+02
55              	3.05134571e+02
56              	3.05178014e+02
57              	3.05218614e+02
58              	3.05257443e+02
59              	3.05294537e+02
60              	3.05330088e+02
61              	3.05363854e+02
62              	3.05397273e+02
63              	3.05430226e+02
64              	3.05462654e+02
65              	3.05494513e+02
66              	3.05525733e+02
67              	3.05556329e+02
68              	3.05586316e+02
69              	3.05616068e+02
70              	3.05645429e+02
71              	3.05674642e+02
72              	3.05703367e+02
73              	3.05731178e+02
74              	3.05758004e+02
75              	3.05783502e+02
76              	3.05807536e+02
77              	3.05830108e+02
78              	3.05851248e+02
79              	3.05871114e+02
80              	3.05889989e+02
81              	3.05908063e+02
82              	3.05925885e+02
83              	3.05943746e+02
84              	3.05962045e+02
85              	3.05980842e+02
86              	3.05999901e+02
87              	3.06019107e+02
88              	3.06038240e+02
89              	3.06057054e+02
90              	3.06075215e+02
91              	3.06092832e+02
92              	3.06109729e+02
93              	3.06125896e+02
94              	3.06141368e+02
95              	3.06156163e+02
96              	3.06170343e+02
97              	3.06183919e+02
98              	3.06196912e+02
99              	3.06209486e+02
100             	3.06221634e+02
101             	3.06233553e+02
102             	3.06245347e+02
103             	3.06257240e+02
104             	3.06269327e+02
105             	3.06281658e+02
106             	3.06294253e+02
107             	3.06307107e+02
108             	3.06320284e+02
109             	3.06333633e+02
110             	3.06346880e+02
111             	3.06359913e+02
112             	3.06372601e+02
113             	3.06384717e+02
114             	3.06396238e+02
115             	3.06407106e+02
116             	3.06417267e+02
117             	3.06427037e+02
118             	3.06436371e+02
119             	3.06445330e+02
120             	3.06454463e+02
121             	3.06463892e+02
122             	3.06473787e+02
123             	3.06484085e+02
124             	3.06494647e+02
125             	3.06505121e+02
126             	3.06515288e+02
127             	3.06525031e+02
128             	3.06534144e+02
129             	3.06542658e+02
130             	3.06550513e+02
131             	3.06557863e+02
132             	3.06564951e+02
133             	3.06572145e+02
134             	3.06579653e+02
135             	3.06587531e+02
136             	3.06595816e+02
137             	3.06604388e+02
138             	3.06613176e+02
139             	3.06622063e+02
140             	3.06630886e+02
141             	3.06639471e+02
142             	3.06647863e+02
143             	3.06655870e+02
144             	3.06663460e+02
145             	3.06670567e+02
146             	3.06677203e+02
147             	3.06683696e+02
148             	3.06689899e+02
149             	3.06695957e+02
150             	3.06701903e+02
151             	3.06707797e+02
152             	3.06713676e+02
153             	3.06719594e+02
154             	3.06725638e+02
155             	3.06731714e+02
156             	3.06737848e+02
157             	3.06744047e+02
158             	3.06750265e+02
159             	3.06756476e+02
160             	3.06762650e+02
161             	3.06768883e+02
162             	3.06775153e+02
163             	3.06781476e+02
164             	3.06787733e+02
165             	3.06793912e+02
166             	3.06799935e+02
167             	3.06805703e+02
168             	3.06811276e+02
169             	3.06816560e+02
170             	3.06821586e+02
171             	3.06826351e+02
172             	3.06830893e+02
173             	3.06835190e+02
174             	3.06839463e+02
175             	3.06843830e+02
176             	3.06848352e+02
177             	3.06853030e+02
178             	3.06857911e+02
179             	3.06862976e+02
180             	3.06868180e+02
181             	3.06873330e+02
182             	3.06878354e+02
183             	3.06883178e+02
184             	3.06887763e+02
185             	3.06892016e+02
186             	3.06895886e+02
187             	3.06899393e+02
188             	3.06902618e+02
189             	3.06905658e+02
190             	3.06908660e+02
191             	3.06911842e+02
192             	3.06915233e+02
193             	3.06918874e+02
194             	3.06922731e+02
195             	3.06926798e+02
196             	3.06931016e+02
197             	3.06935280e+02
198             	3.06939457e+02
199             	3.06943486e+02
200             	3.06947244e+02
201             	3.06950738e+02
202             	3.06953962e+02
203             	3.06956867e+02
204             	3.06959558e+02
205             	3.06962191e+02
206             	3.06964880e+02
207             	3.06967673e+02
208             	3.06970599e+02
209             	3.06973723e+02
210             	3.06976988e+02
211             	3.06980254e+02
212             	3.06983576e+02
213             	3.06986938e+02
214             	3.06990131e+02
215             	3.06993190e+02
216             	3.06996087e+02
217             	3.06998782e+02
218             	3.07001345e+02
219             	3.07003737e+02
220             	3.07006018e+02
221             	3.07008205e+02
222             	3.07010315e+02
223             	3.07012394e+02
224             	3.07014416e+02
225             	3.07016429e+02
226             	3.07018440e+02
227             	3.07020480e+02
228             	3.07022557e+02
229             	3.07024704e+02
230             	3.07026917e+02
231             	3.07029196e+02
232             	3.07031519e+02
233             	3.07033886e+02
234             	3.07036284e+02
235             	3.07038711e+02
236             	3.07041155e+02
237             	3.07043608e+02
238             	3.07046058e+02
239             	3.07048491e+02
240             	3.07050837e+02
241             	3.07053165e+02
242             	3.07055437e+02
243             	3.07057618e+02
244             	3.07059769e+02
245             	3.07061808e+02
246             	3.07063769e+02
247             	3.07065619e+02
248             	3.07067379e+02
249             	3.07069036e+02
250             	3.07070612e+02
251             	3.07072157e+02
252             	3.07073729e+02
253             	3.07075317e+02
254             	3.07076969e+02
255             	3.07078682e+02
256             	3.07080444e+02
257             	3.07082239e+02
258             	3.07083992e+02
259             	3.07085709e+02
260             	3.07087371e+02
261             	3.07088952e+02
262             	3.07090444e+02
263             	3.07091841e+02
264             	3.07093155e+02
265             	3.07094377e+02
266             	3.07095527e+02
267             	3.07096614e+02
268             	3.07097711e+02
269             	3.07098819e+02
270             	3.07099980e+02
271             	3.07101203e+02
272             	3.07102522e+02
273             	3.07103865e+02
274             	3.07105255e+02
275             	3.07106668e+02
276             	3.07108071e+02
277             	3.07109448e+02
278             	3.07110741e+02
279             	3.07111971e+02
280             	3.07113108e+02
281             	3.07114151e+02
282             	3.07115099e+02
283             	3.07115996e+02
284             	3.07116876e+02
285             	3.07117743e+02
286             	3.07118630e+02
287             	3.07119552e+02
288             	3.07120512e+02
289             	3.07121518e+02
290             	3.07122574e+02
291             	3.07123682e+02
292             	3.07124845e+02
293             	3.07126050e+02
294             	3.07127253e+02
295             	3.07128419e+02
296             	3.07129527e+02
297             	3.07130547e+02
298             	3.07131466e+02
299             	3.07132285e+02
300             	3.07133015e+02
301             	3.07133675e+02
302             	3.07134278e+02
303             	3.07134881e+02
304             	3.07135544e+02
305             	3.07136267e+02
306             	3.07137068e+02
307             	3.07137945e+02
308             	3.07138897e+02
309             	3.07139877e+02
310             	3.07140870e+02
311             	3.07141826e+02
312             	3.07142728e+02
313             	3.07143576e+02
314             	3.07144345e+02
315             	3.07145037e+02
316             	3.07145672e+02
317             	3.07146253e+02
318             	3.07146782e+02
319             	3.07147254e+02
320             	3.07147697e+02
321             	3.07148119e+02
322             	3.07148529e+02
323             	3.07148948e+02
324             	3.07149373e+02
325             	3.07149837e+02
326             	3.07150316e+02
327             	3.07150827e+02
328             	3.07151370e+02
329             	3.07151953e+02
330             	3.07152547e+02
331             	3.07153167e+02
332             	3.07153817e+02
333             	3.07154495e+02
334             	3.07155198e+02
335             	3.07155896e+02
336             	3.07156583e+02
337             	3.07157247e+02
338             	3.07157888e+02
339             	3.07158489e+02
340             	3.07159059e+02
341             	3.07159590e+02
342             	3.07160091e+02
343             	3.07160555e+02
344             	3.07160987e+02
345             	3.07161388e+02
346             	3.07161766e+02
347             	3.07162130e+02
348             	3.07162493e+02
349             	3.07162867e+02
350             	3.07163259e+02
351             	3.07163676e+02
352             	3.07164121e+02
353             	3.07164591e+02
354             	3.07165088e+02
355             	3.07165605e+02
356             	3.07166142e+02
357             	3.07166678e+02
358             	3.07167207e+02
359             	3.07167700e+02
360             	3.07168163e+02
361             	3.07168584e+02
362             	3.07168957e+02
363             	3.07169286e+02
364             	3.07169584e+02
365             	3.07169852e+02
366             	3.07170108e+02
367             	3.07170362e+02
368             	3.07170625e+02
369             	3.07170897e+02
370             	3.07171187e+02
371             	3.07171487e+02
372             	3.07171805e+02
373             	3.07172136e+02
374             	3.07172478e+02
375             	3.07172831e+02
376             	3.07173193e+02
377             	3.07173557e+02
378             	3.07173923e+02
379             	3.07174278e+02
380             	3.07174624e+02
381             	3.07174953e+02
382             	3.07175264e+02
383             	3.07175550e+02
384             	3.07175812e+02
385             	3.07176046e+02
386             	3.07176255e+02
387             	3.07176439e+02
388             	3.07176608e+02
389             	3.07176780e+02
390             	3.07176973e+02
391             	3.07177192e+02
392             	3.07177439e+02
393             	3.07177713e+02
394             	3.07178010e+02
395             	3.07178321e+02
396             	3.07178615e+02
397             	3.07178888e+02
398             	3.07179143e+02
399             	3.07179376e+02
400             	3.07179587e+02
401             	3.07179777e+02
402             	3.07179951e+02
403             	3.07180113e+02
404             	3.07180269e+02
405             	3.07180428e+02
406             	3.07180589e+02
407             	3.07180760e+02
408             	3.07180945e+02
409             	3.07181144e+02
410             	3.07181356e+02
411             	3.07181578e+02
412             	3.07181806e+02
413             	3.07182041e+02
414             	3.07182282e+02
415             	3.07182520e+02
416             	3.07182756e+02
417             	3.07182981e+02
418             	3.07183193e+02
419             	3.07183386e+02
420             	3.07183566e+02
421             	3.07183730e+02
422             	3.07183880e+02
423             	3.07184022e+02
424             	3.07184155e+02
425             	3.07184290e+02
426             	3.07184428e+02
427             	3.07184570e+02
428             	3.07184715e+02
429             	3.07184864e+02
430             	3.07185015e+02
431             	3.07185168e+02
432             	3.07185323e+02
433             	3.07185480e+02
434             	3.07185638e+02
435             	3.07185796e+02
436             	3.07185954e+02
437             	3.07186109e+02
438             	3.07186263e+02
439             	3.07186412e+02
440             	3.07186557e+02
441             	3.07186695e+02
442             	3.07186825e+02
443             	3.07186947e+02
444             	3.07187062e+02
445             	3.07187168e+02
446             	3.07187268e+02
447             	3.07187363e+02
448             	3.07187456e+02
449             	3.07187548e+02
450             	3.07187645e+02
451             	3.07187748e+02
452             	3.07187857e+02
453             	3.07187972e+02
454             	3.07188090e+02
455             	3.07188212e+02
456             	3.07188336e+02
457             	3.07188458e+02
458             	3.07188579e+02
459             	3.07188698e+02
460             	3.07188811e+02
461             	3.07188921e+02
462             	3.07189027e+02
463             	3.07189132e+02
464             	3.07189233e+02
465             	3.07189331e+02
466             	3.07189425e+02
467             	3.07189516e+02
468             	3.07189605e+02
469             	3.07189689e+02
470             	3.07189767e+02
471             	3.07189842e+02
472             	3.07189914e+02
473             	3.07189984e+02
474             	3.07190054e+02
475             	3.07190127e+02
476             	3.07190201e+02
477             	3.07190278e+02
478             	3.07190357e+02
479             	3.07190438e+02
480             	3.07190521e+02
481             	3.07190605e+02
482             	3.07190689e+02
483             	3.07190773e+02
484             	3.07190855e+02
485             	3.07190934e+02
486             	3.07191009e+02
487             	3.07191081e+02
488             	3.07191150e+02
489             	3.07191215e+02
490             	3.07191276e+02
491             	3.07191336e+02
492             	3.07191394e+02
493             	3.07191448e+02
494             	3.07191501e+02
495             	3.07191553e+02
496             	3.07191603e+02
497             	3.07191654e+02
498             	3.07191708e+02
499             	3.07191766e+02
500             	3.07191828e+02
501             	3.07191893e+02
502             	3.07191961e+02
503             	3.07192031e+02
504             	3.07192097e+02
505             	3.07192159e+02
506             	3.07192213e+02
507             	3.07192260e+02
508             	3.07192301e+02
509             	3.07192340e+02
510             	3.07192377e+02
511             	3.07192415e+02
512             	3.07192455e+02
513             	3.07192497e+02
514             	3.07192542e+02
515             	3.07192590e+02
516             	3.07192641e+02
517             	3.07192694e+02
518             	3.07192748e+02
519             	3.07192804e+02
520             	3.07192859e+02
521             	3.07192910e+02
522             	3.07192956e+02
523             	3.07192997e+02
524             	3.07193032e+02
525             	3.07193062e+02
526             	3.07193088e+02
527             	3.07193112e+02
528             	3.07193137e+02
529             	3.07193165e+02
530             	3.07193196e+02
531             	3.07193231e+02
532             	3.07193269e+02
533             	3.07193310e+02
534             	3.07193353e+02
535             	3.07193398e+02
536             	3.07193442e+02
537             	3.07193484e+02
538             	3.07193521e+02
539             	3.07193556e+02
540             	3.07193586e+02
541             	3.07193613e+02
542             	3.07193639e+02
543             	3.07193665e+02
544             	3.07193693e+02
545             	3.07193721e+02
546             	3.07193751e+02
547             	3.07193783e+02
548             	3.07193816e+02
549             	3.07193851e+02
550             	3.07193887e+02
551             	3.07193924e+02
552             	3.07193960e+02
553             	3.07193995e+02
554             	3.07194028e+02
555             	3.07194059e+02
556             	3.07194087e+02
557             	3.07194113e+02
558             	3.07194136e+02
559             	3.07194158e+02
560             	3.07194177e+02
561             	3.07194196e+02
562             	3.07194215e+02
563             	3.07194235e+02
564             	3.07194257e+02
565             	3.07194279e+02
566             	3.07194303e+02
567             	3.07194327e+02
568             	3.07194350e+02
569             	3.07194372e+02
570             	3.07194394e+02
571             	3.07194416e+02
572             	3.07194438e+02
573             	3.07194461e+02
574             	3.07194484e+02
575             	3.07194510e+02
576             	3.07194536e+02
577             	3.07194564e+02
578             	3.07194593e+02
579             	3.07194622e+02
580             	3.07194650e+02
581             	3.07194675e+02
582             	3.07194699e+02
583             	3.07194720e+02
584             	3.07194739e+02
585             	3.07194755e+02
586             	3.07194770e+02
587             	3.07194783e+02
588             	3.07194797e+02
589             	3.07194811e+02
590             	3.07194826e+02
591             	3.07194842e+02
592             	3.07194859e+02
593             	3.07194877e+02
594             	3.07194896e+02
595             	3.07194916e+02
596             	3.07194936e+02
597             	3.07194956e+02
598             	3.07194977e+02
599             	3.07194997e+02
600             	3.07195017e+02
601             	3.07195036e+02
602             	3.07195055e+02
603             	3.07195074e+02
604             	3.07195092e+02
605             	3.07195107e+02
606             	3.07195124e+02
607             	3.07195140e+02
608             	3.07195155e+02
609             	3.07195167e+02
610             	3.07195178e+02
611             	3.07195190e+02
612             	3.07195202e+02
613             	3.07195212e+02
614             	3.07195221e+02
615             	3.07195232e+02
616             	3.07195241e+02
617             	3.07195250e+02
618             	3.07195258e+02
619             	3.07195268e+02
620             	3.07195279e+02
621             	3.07195290e+02
