# Region        : cellZone component_4
# Cells         : 24
# Volume        : 3.21172509e-02
# Time          	volAverage(T)
1               	3.04711490e+02
2               	3.09218349e+02
3               	3.11904939e+02
4               	3.13558480e+02
5               	3.15161985e+02
6               	3.16689535e+02
7               	3.18083447e+02
8               	3.19186684e+02
9               	3.19995471e+02
10              	3.20760189e+02
11              	3.21576179e+02
12              	3.22284327e+02
13              	3.23084766e+02
14              	3.24025403e+02
15              	3.24931147e+02
16              	3.25595533e+02
17              	3.26142092e+02
18              	3.26664767e+02
19              	3.26912515e+02
20              	3.26587175e+02
21              	3.26488029e+02
22              	3.26515129e+02
23              	3.26626960e+02
24              	3.26869550e+02
25              	3.27235932e+02
26              	3.27342141e+02
27              	3.27301961e+02
28              	3.27275504e+02
29              	3.27164070e+02
30              	3.26709937e+02
31              	3.26093879e+02
32              	3.25368122e+02
33              	3.24839532e+02
34              	3.24583830e+02
35              	3.24551296e+02
36              	3.24496874e+02
37              	3.24369987e+02
38              	3.24491329e+02
39              	3.24986015e+02
40              	3.25678832e+02
41              	3.26335233e+02
42              	3.26956411e+02
43              	3.27570683e+02
44              	3.28083998e+02
45              	3.28419521e+02
46              	3.28779044e+02
47              	3.28927322e+02
48              	3.29166522e+02
49              	3.29201263e+02
50              	3.29179453e+02
51              	3.29190460e+02
52              	3.29067171e+02
53              	3.28896501e+02
54              	3.28722289e+02
55              	3.28670102e+02
56              	3.28529267e+02
57              	3.28418996e+02
58              	3.28441383e+02
59              	3.28511119e+02
60              	3.28592226e+02
61              	3.28605494e+02
62              	3.28506395e+02
63              	3.28217085e+02
64              	3.28012349e+02
65              	3.27924168e+02
66              	3.27801497e+02
67              	3.27607623e+02
68              	3.27568548e+02
69              	3.27498384e+02
70              	3.27652855e+02
71              	3.27990510e+02
72              	3.28273368e+02
73              	3.28600798e+02
74              	3.28838028e+02
75              	3.28958163e+02
76              	3.28996431e+02
77              	3.29216505e+02
78              	3.29264455e+02
79              	3.29260455e+02
80              	3.29189990e+02
81              	3.28910951e+02
82              	3.28708226e+02
83              	3.28474385e+02
84              	3.28530444e+02
85              	3.28723837e+02
86              	3.28944647e+02
87              	3.29099753e+02
88              	3.29232115e+02
89              	3.29389897e+02
90              	3.29602110e+02
91              	3.29836386e+02
92              	3.29942460e+02
93              	3.30153977e+02
94              	3.30395232e+02
95              	3.30612830e+02
96              	3.30714693e+02
97              	3.30835307e+02
98              	3.30923683e+02
99              	3.31074562e+02
100             	3.31230657e+02
101             	3.31400671e+02
102             	3.31547878e+02
103             	3.31707053e+02
104             	3.31902523e+02
105             	3.32106228e+02
106             	3.32293819e+02
107             	3.32455034e+02
108             	3.32594700e+02
109             	3.32718230e+02
110             	3.32827574e+02
111             	3.32974769e+02
112             	3.33146483e+02
113             	3.33080091e+02
114             	3.33152142e+02
115             	3.33338268e+02
116             	3.33513783e+02
117             	3.33597125e+02
118             	3.33588047e+02
119             	3.33515005e+02
120             	3.33417258e+02
121             	3.33305129e+02
122             	3.33239176e+02
123             	3.33270489e+02
124             	3.33422981e+02
125             	3.33608769e+02
126             	3.33760511e+02
127             	3.33932119e+02
128             	3.34129773e+02
129             	3.34306407e+02
130             	3.34403898e+02
131             	3.34257695e+02
132             	3.34187651e+02
133             	3.34208825e+02
134             	3.34109057e+02
135             	3.33989748e+02
136             	3.33922602e+02
137             	3.33835171e+02
138             	3.33877318e+02
139             	3.33958814e+02
140             	3.34007406e+02
141             	3.34037574e+02
142             	3.34089372e+02
143             	3.34183280e+02
144             	3.34272425e+02
145             	3.34381586e+02
146             	3.34505544e+02
147             	3.34650819e+02
148             	3.34605131e+02
149             	3.34624009e+02
150             	3.34708826e+02
151             	3.34820631e+02
152             	3.34757765e+02
153             	3.34766000e+02
154             	3.34880707e+02
155             	3.35052641e+02
156             	3.35225060e+02
157             	3.35365504e+02
158             	3.35476847e+02
159             	3.35583034e+02
160             	3.35697144e+02
161             	3.35848839e+02
162             	3.35986764e+02
163             	3.36102626e+02
164             	3.36069016e+02
165             	3.36134472e+02
166             	3.36264704e+02
167             	3.36366968e+02
168             	3.36403016e+02
169             	3.36380758e+02
170             	3.36321184e+02
171             	3.36246501e+02
172             	3.36177440e+02
173             	3.36100311e+02
174             	3.36008102e+02
175             	3.35913539e+02
176             	3.35852569e+02
177             	3.35844570e+02
178             	3.35915212e+02
179             	3.36062427e+02
180             	3.36075038e+02
181             	3.36132973e+02
182             	3.36240364e+02
183             	3.36360909e+02
184             	3.36462517e+02
185             	3.36376357e+02
186             	3.36356596e+02
187             	3.36375442e+02
188             	3.36388473e+02
189             	3.36394920e+02
190             	3.36381523e+02
191             	3.36337473e+02
192             	3.36284315e+02
193             	3.36197775e+02
194             	3.36177659e+02
195             	3.36254771e+02
196             	3.36387719e+02
197             	3.36489055e+02
198             	3.36551106e+02
199             	3.36590216e+02
200             	3.36632318e+02
201             	3.36535838e+02
202             	3.36517513e+02
203             	3.36565937e+02
204             	3.36618633e+02
205             	3.36630744e+02
206             	3.36594952e+02
207             	3.36488380e+02
208             	3.36431925e+02
209             	3.36488135e+02
210             	3.36598530e+02
211             	3.36738105e+02
212             	3.36733374e+02
213             	3.36785048e+02
214             	3.36902949e+02
215             	3.37009781e+02
216             	3.37078603e+02
217             	3.37129381e+02
218             	3.36970542e+02
219             	3.36894225e+02
220             	3.36883242e+02
221             	3.36866720e+02
222             	3.36794596e+02
223             	3.36667498e+02
224             	3.36499973e+02
225             	3.36376878e+02
226             	3.36372887e+02
227             	3.36444556e+02
228             	3.36537971e+02
229             	3.36609488e+02
230             	3.36664692e+02
231             	3.36726246e+02
232             	3.36768807e+02
233             	3.36661536e+02
234             	3.36636101e+02
235             	3.36515554e+02
236             	3.36479943e+02
237             	3.36488352e+02
238             	3.36408831e+02
239             	3.36244884e+02
240             	3.36088386e+02
241             	3.36062652e+02
242             	3.36124306e+02
243             	3.36189949e+02
244             	3.36243011e+02
245             	3.36313086e+02
246             	3.36411238e+02
247             	3.36540741e+02
248             	3.36692819e+02
249             	3.36847266e+02
250             	3.37001282e+02
251             	3.36938453e+02
252             	3.36923359e+02
253             	3.36782798e+02
254             	3.36707476e+02
255             	3.36648148e+02
256             	3.36561518e+02
257             	3.36431866e+02
258             	3.36255940e+02
259             	3.36145699e+02
260             	3.36128134e+02
261             	3.36146270e+02
262             	3.36151214e+02
263             	3.36150959e+02
264             	3.36176317e+02
265             	3.36240331e+02
266             	3.36312345e+02
267             	3.36254548e+02
268             	3.36259925e+02
269             	3.36348248e+02
270             	3.36428565e+02
271             	3.36460366e+02
272             	3.36446124e+02
273             	3.36406990e+02
274             	3.36329052e+02
275             	3.36275391e+02
276             	3.36318699e+02
277             	3.36429421e+02
278             	3.36556277e+02
279             	3.36657556e+02
280             	3.36748209e+02
281             	3.36844180e+02
282             	3.36932657e+02
283             	3.37023453e+02
284             	3.37075492e+02
285             	3.37101539e+02
286             	3.36961485e+02
287             	3.36900553e+02
288             	3.36894585e+02
289             	3.36853641e+02
290             	3.36778252e+02
291             	3.36696360e+02
292             	3.36614210e+02
293             	3.36529342e+02
294             	3.36448166e+02
295             	3.36402654e+02
296             	3.36386117e+02
297             	3.36408210e+02
298             	3.36468183e+02
299             	3.36546216e+02
300             	3.36621104e+02
301             	3.36684198e+02
302             	3.36735680e+02
303             	3.36760512e+02
304             	3.36768771e+02
305             	3.36780059e+02
306             	3.36790412e+02
307             	3.36784934e+02
308             	3.36753452e+02
309             	3.36702373e+02
310             	3.36644455e+02
311             	3.36571934e+02
312             	3.36528579e+02
313             	3.36502076e+02
314             	3.36516952e+02
315             	3.36559758e+02
316             	3.36594058e+02
317             	3.36613924e+02
318             	3.36634737e+02
319             	3.36671403e+02
320             	3.36727719e+02
321             	3.36789017e+02
322             	3.36832861e+02
323             	3.36855695e+02
324             	3.36864155e+02
325             	3.36869208e+02
326             	3.36866453e+02
327             	3.36855547e+02
328             	3.36838369e+02
329             	3.36817311e+02
330             	3.36792928e+02
331             	3.36767013e+02
332             	3.36731211e+02
333             	3.36697484e+02
334             	3.36679554e+02
335             	3.36678974e+02
336             	3.36673426e+02
337             	3.36692375e+02
338             	3.36732563e+02
339             	3.36768619e+02
340             	3.36804381e+02
341             	3.36844058e+02
342             	3.36886798e+02
343             	3.36932206e+02
344             	3.36980384e+02
345             	3.37024473e+02
346             	3.37062431e+02
347             	3.37091762e+02
348             	3.37113821e+02
349             	3.37135032e+02
350             	3.37156293e+02
351             	3.37174146e+02
352             	3.37188696e+02
353             	3.37200345e+02
354             	3.37208860e+02
355             	3.37215558e+02
356             	3.37218354e+02
357             	3.37215900e+02
358             	3.37207025e+02
359             	3.37180865e+02
360             	3.37145325e+02
361             	3.37114534e+02
362             	3.37092281e+02
363             	3.37071519e+02
364             	3.37048817e+02
365             	3.37024064e+02
366             	3.36998698e+02
367             	3.36981914e+02
368             	3.36975486e+02
369             	3.36973234e+02
370             	3.36965068e+02
371             	3.36983147e+02
372             	3.37023006e+02
373             	3.37060964e+02
374             	3.37087221e+02
375             	3.37106634e+02
376             	3.37126268e+02
377             	3.37147113e+02
378             	3.37166809e+02
379             	3.37184031e+02
380             	3.37180109e+02
381             	3.37162762e+02
382             	3.37147911e+02
383             	3.37142399e+02
384             	3.37137388e+02
385             	3.37128105e+02
386             	3.37115292e+02
387             	3.37102859e+02
388             	3.37092900e+02
389             	3.37088368e+02
390             	3.37079107e+02
391             	3.37048727e+02
392             	3.37038077e+02
393             	3.37053853e+02
394             	3.37074160e+02
395             	3.37082662e+02
396             	3.37081761e+02
397             	3.37098508e+02
398             	3.37129940e+02
399             	3.37167430e+02
400             	3.37191333e+02
401             	3.37205332e+02
402             	3.37216464e+02
403             	3.37226982e+02
404             	3.37229510e+02
405             	3.37223691e+02
406             	3.37204703e+02
407             	3.37178234e+02
408             	3.37154450e+02
409             	3.37136712e+02
410             	3.37118946e+02
411             	3.37099589e+02
412             	3.37080384e+02
413             	3.37060398e+02
414             	3.37049191e+02
415             	3.37048831e+02
416             	3.37049250e+02
417             	3.37056790e+02
418             	3.37073161e+02
419             	3.37090098e+02
420             	3.37106048e+02
421             	3.37119866e+02
422             	3.37134172e+02
423             	3.37147854e+02
424             	3.37158973e+02
425             	3.37162965e+02
426             	3.37163898e+02
427             	3.37169835e+02
428             	3.37182966e+02
429             	3.37200589e+02
430             	3.37217196e+02
431             	3.37219137e+02
432             	3.37211711e+02
433             	3.37205765e+02
434             	3.37200912e+02
435             	3.37188315e+02
436             	3.37162488e+02
437             	3.37132780e+02
438             	3.37086223e+02
439             	3.37063216e+02
440             	3.37063904e+02
441             	3.37068824e+02
442             	3.37057732e+02
443             	3.37061307e+02
444             	3.37083029e+02
445             	3.37115500e+02
446             	3.37147744e+02
447             	3.37176626e+02
448             	3.37203373e+02
449             	3.37228271e+02
450             	3.37250220e+02
451             	3.37268175e+02
452             	3.37279340e+02
453             	3.37284804e+02
454             	3.37284625e+02
455             	3.37281220e+02
456             	3.37272889e+02
457             	3.37258561e+02
458             	3.37238531e+02
459             	3.37217441e+02
460             	3.37199940e+02
461             	3.37185837e+02
462             	3.37169798e+02
463             	3.37157286e+02
464             	3.37146204e+02
465             	3.37140560e+02
466             	3.37133990e+02
467             	3.37138365e+02
468             	3.37153640e+02
469             	3.37167237e+02
470             	3.37175078e+02
471             	3.37179882e+02
472             	3.37185440e+02
473             	3.37192949e+02
474             	3.37200190e+02
475             	3.37207660e+02
476             	3.37214534e+02
477             	3.37219174e+02
478             	3.37221276e+02
479             	3.37222304e+02
480             	3.37221639e+02
481             	3.37221091e+02
482             	3.37216721e+02
483             	3.37211228e+02
484             	3.37206200e+02
485             	3.37203453e+02
486             	3.37198654e+02
487             	3.37189877e+02
488             	3.37186074e+02
489             	3.37188921e+02
490             	3.37193434e+02
491             	3.37195807e+02
492             	3.37195348e+02
493             	3.37194407e+02
494             	3.37191803e+02
495             	3.37181529e+02
496             	3.37169121e+02
497             	3.37159277e+02
498             	3.37153005e+02
499             	3.37147589e+02
500             	3.37141844e+02
501             	3.37136390e+02
502             	3.37120690e+02
503             	3.37120601e+02
504             	3.37136985e+02
505             	3.37156248e+02
506             	3.37169993e+02
507             	3.37179968e+02
508             	3.37184713e+02
509             	3.37199054e+02
510             	3.37222264e+02
511             	3.37246285e+02
512             	3.37263687e+02
513             	3.37273863e+02
514             	3.37291259e+02
515             	3.37305194e+02
516             	3.37313955e+02
517             	3.37310090e+02
518             	3.37297106e+02
519             	3.37279346e+02
520             	3.37256326e+02
521             	3.37230811e+02
522             	3.37204499e+02
523             	3.37177896e+02
524             	3.37146817e+02
525             	3.37113939e+02
526             	3.37084034e+02
527             	3.37059074e+02
528             	3.37041818e+02
529             	3.37030373e+02
530             	3.37024690e+02
531             	3.37023957e+02
532             	3.37021982e+02
533             	3.37040416e+02
534             	3.37075606e+02
535             	3.37110260e+02
536             	3.37137214e+02
537             	3.37158264e+02
538             	3.37176878e+02
539             	3.37194763e+02
540             	3.37211053e+02
541             	3.37223812e+02
542             	3.37236058e+02
543             	3.37245352e+02
544             	3.37252080e+02
545             	3.37255965e+02
546             	3.37257951e+02
547             	3.37253328e+02
548             	3.37243076e+02
549             	3.37231638e+02
550             	3.37220593e+02
551             	3.37207450e+02
552             	3.37187495e+02
553             	3.37152792e+02
554             	3.37114312e+02
555             	3.37082781e+02
556             	3.37055378e+02
557             	3.37024852e+02
558             	3.37003931e+02
559             	3.37017146e+02
560             	3.37049891e+02
561             	3.37077119e+02
562             	3.37094990e+02
563             	3.37114028e+02
564             	3.37134357e+02
565             	3.37152308e+02
566             	3.37162125e+02
567             	3.37169276e+02
568             	3.37178914e+02
569             	3.37191806e+02
570             	3.37200843e+02
571             	3.37209221e+02
572             	3.37221621e+02
573             	3.37238105e+02
574             	3.37240933e+02
575             	3.37234841e+02
576             	3.37228603e+02
577             	3.37220950e+02
578             	3.37204054e+02
579             	3.37185125e+02
580             	3.37183229e+02
581             	3.37191730e+02
582             	3.37197312e+02
583             	3.37193368e+02
584             	3.37180649e+02
585             	3.37161054e+02
586             	3.37136628e+02
587             	3.37111360e+02
588             	3.37088335e+02
589             	3.37064974e+02
590             	3.37041968e+02
591             	3.37024162e+02
592             	3.37010547e+02
593             	3.36989043e+02
594             	3.36980526e+02
595             	3.36987857e+02
596             	3.37011540e+02
597             	3.37055792e+02
598             	3.37104080e+02
599             	3.37144828e+02
600             	3.37184936e+02
601             	3.37221350e+02
602             	3.37252097e+02
603             	3.37274549e+02
604             	3.37293624e+02
605             	3.37308567e+02
606             	3.37316438e+02
607             	3.37312482e+02
608             	3.37297193e+02
609             	3.37271564e+02
610             	3.37235927e+02
611             	3.37205420e+02
612             	3.37174666e+02
613             	3.37154776e+02
614             	3.37144660e+02
615             	3.37136834e+02
616             	3.37127597e+02
617             	3.37117722e+02
618             	3.37106627e+02
619             	3.37095687e+02
620             	3.37086555e+02
621             	3.37078449e+02
