# Region        : cellZone component_2
# Cells         : 108
# Volume        : 2.03568770e-01
# Time          	volAverage(T)
1               	3.00545619e+02
2               	3.01081855e+02
3               	3.01546159e+02
4               	3.01960692e+02
5               	3.02355464e+02
6               	3.02739422e+02
7               	3.03113897e+02
8               	3.03476726e+02
9               	3.03830941e+02
10              	3.04182121e+02
11              	3.04518540e+02
12              	3.04838908e+02
13              	3.05146181e+02
14              	3.05434656e+02
15              	3.05709440e+02
16              	3.05966711e+02
17              	3.06222385e+02
18              	3.06488749e+02
19              	3.06753396e+02
20              	3.07000274e+02
21              	3.07216594e+02
22              	3.07416101e+02
23              	3.07611813e+02
24              	3.07808786e+02
25              	3.08014453e+02
26              	3.08235198e+02
27              	3.08457655e+02
28              	3.08674283e+02
29              	3.08881700e+02
30              	3.09074532e+02
31              	3.09261634e+02
32              	3.09436198e+02
33              	3.09593296e+02
34              	3.09761377e+02
35              	3.09898083e+02
36              	3.09973658e+02
37              	3.09999907e+02
38              	3.10018682e+02
39              	3.10074234e+02
40              	3.10175884e+02
41              	3.10294943e+02
42              	3.10406255e+02
43              	3.10513654e+02
44              	3.10626648e+02
45              	3.10744269e+02
46              	3.10853795e+02
47              	3.10955470e+02
48              	3.11050558e+02
49              	3.11139463e+02
50              	3.11220974e+02
51              	3.11292842e+02
52              	3.11360599e+02
53              	3.11426545e+02
54              	3.11482754e+02
55              	3.11531725e+02
56              	3.11580623e+02
57              	3.11631505e+02
58              	3.11685100e+02
59              	3.11743405e+02
60              	3.11801989e+02
61              	3.11865777e+02
62              	3.11933340e+02
63              	3.12000614e+02
64              	3.12065786e+02
65              	3.12120759e+02
66              	3.12169205e+02
67              	3.12213997e+02
68              	3.12255579e+02
69              	3.12300535e+02
70              	3.12346100e+02
71              	3.12392203e+02
72              	3.12438873e+02
73              	3.12486729e+02
74              	3.12533100e+02
75              	3.12577547e+02
76              	3.12621491e+02
77              	3.12665865e+02
78              	3.12710375e+02
79              	3.12752774e+02
80              	3.12794589e+02
81              	3.12838017e+02
82              	3.12877811e+02
83              	3.12917169e+02
84              	3.12956100e+02
85              	3.12996346e+02
86              	3.13035252e+02
87              	3.13075804e+02
88              	3.13114084e+02
89              	3.13154865e+02
90              	3.13197137e+02
91              	3.13240629e+02
92              	3.13287468e+02
93              	3.13333473e+02
94              	3.13370367e+02
95              	3.13405125e+02
96              	3.13440947e+02
97              	3.13475294e+02
98              	3.13506139e+02
99              	3.13534387e+02
100             	3.13563487e+02
101             	3.13584754e+02
102             	3.13603765e+02
103             	3.13621645e+02
104             	3.13635657e+02
105             	3.13650633e+02
106             	3.13666344e+02
107             	3.13682497e+02
108             	3.13699389e+02
109             	3.13716562e+02
110             	3.13732299e+02
111             	3.13747365e+02
112             	3.13761058e+02
113             	3.13773746e+02
114             	3.13788965e+02
115             	3.13795401e+02
116             	3.13807368e+02
117             	3.13823110e+02
118             	3.13841122e+02
119             	3.13858125e+02
120             	3.13873105e+02
121             	3.13888150e+02
122             	3.13901534e+02
123             	3.13912750e+02
124             	3.13921077e+02
125             	3.13928748e+02
126             	3.13936294e+02
127             	3.13944698e+02
128             	3.13952479e+02
129             	3.13958977e+02
130             	3.13966131e+02
131             	3.13973805e+02
132             	3.13982668e+02
133             	3.13992820e+02
134             	3.14004113e+02
135             	3.14019899e+02
136             	3.14031163e+02
137             	3.14042691e+02
138             	3.14056164e+02
139             	3.14070721e+02
140             	3.14084928e+02
141             	3.14098547e+02
142             	3.14110871e+02
143             	3.14124213e+02
144             	3.14137982e+02
145             	3.14151890e+02
146             	3.14165272e+02
147             	3.14178406e+02
148             	3.14191083e+02
149             	3.14203599e+02
150             	3.14215863e+02
151             	3.14227385e+02
152             	3.14238699e+02
153             	3.14250757e+02
154             	3.14256290e+02
155             	3.14265485e+02
156             	3.14273813e+02
157             	3.14281468e+02
158             	3.14289222e+02
159             	3.14296473e+02
160             	3.14302901e+02
161             	3.14304778e+02
162             	3.14308210e+02
163             	3.14312558e+02
164             	3.14317246e+02
165             	3.14321800e+02
166             	3.14326137e+02
167             	3.14330307e+02
168             	3.14334352e+02
169             	3.14338234e+02
170             	3.14342558e+02
171             	3.14348125e+02
172             	3.14354347e+02
173             	3.14361063e+02
174             	3.14370080e+02
175             	3.14381378e+02
176             	3.14391808e+02
177             	3.14399706e+02
178             	3.14405028e+02
179             	3.14411275e+02
180             	3.14418468e+02
181             	3.14425623e+02
182             	3.14431589e+02
183             	3.14436804e+02
184             	3.14442272e+02
185             	3.14447776e+02
186             	3.14453770e+02
187             	3.14460305e+02
188             	3.14467151e+02
189             	3.14475251e+02
190             	3.14483420e+02
191             	3.14491076e+02
192             	3.14499593e+02
193             	3.14508605e+02
194             	3.14517125e+02
195             	3.14523910e+02
196             	3.14529537e+02
197             	3.14534874e+02
198             	3.14538754e+02
199             	3.14542957e+02
200             	3.14547632e+02
201             	3.14551816e+02
202             	3.14555292e+02
203             	3.14558725e+02
204             	3.14562653e+02
205             	3.14567031e+02
206             	3.14571811e+02
207             	3.14576936e+02
208             	3.14582611e+02
209             	3.14588832e+02
210             	3.14595446e+02
211             	3.14601954e+02
212             	3.14608240e+02
213             	3.14613704e+02
214             	3.14618424e+02
215             	3.14622326e+02
216             	3.14625531e+02
217             	3.14628607e+02
218             	3.14630692e+02
219             	3.14632184e+02
220             	3.14633676e+02
221             	3.14635384e+02
222             	3.14637320e+02
223             	3.14639503e+02
224             	3.14642017e+02
225             	3.14644936e+02
226             	3.14648246e+02
227             	3.14652230e+02
228             	3.14656294e+02
229             	3.14659247e+02
230             	3.14661966e+02
231             	3.14664728e+02
232             	3.14668059e+02
233             	3.14671331e+02
234             	3.14674289e+02
235             	3.14676154e+02
236             	3.14678200e+02
237             	3.14680478e+02
238             	3.14683012e+02
239             	3.14685728e+02
240             	3.14688527e+02
241             	3.14691553e+02
242             	3.14693674e+02
243             	3.14696805e+02
244             	3.14700276e+02
245             	3.14704008e+02
246             	3.14707771e+02
247             	3.14711437e+02
248             	3.14714950e+02
249             	3.14718276e+02
250             	3.14721154e+02
251             	3.14723787e+02
252             	3.14727188e+02
253             	3.14729041e+02
254             	3.14730660e+02
255             	3.14732696e+02
256             	3.14734900e+02
257             	3.14737036e+02
258             	3.14739089e+02
259             	3.14741104e+02
260             	3.14742781e+02
261             	3.14744462e+02
262             	3.14746042e+02
263             	3.14747365e+02
264             	3.14748408e+02
265             	3.14749384e+02
266             	3.14750567e+02
267             	3.14750955e+02
268             	3.14751911e+02
269             	3.14753402e+02
270             	3.14754874e+02
271             	3.14756152e+02
272             	3.14757383e+02
273             	3.14758958e+02
274             	3.14760665e+02
275             	3.14762002e+02
276             	3.14763024e+02
277             	3.14764408e+02
278             	3.14764790e+02
279             	3.14765016e+02
280             	3.14765419e+02
281             	3.14766035e+02
282             	3.14766798e+02
283             	3.14767508e+02
284             	3.14768247e+02
285             	3.14769010e+02
286             	3.14769919e+02
287             	3.14771074e+02
288             	3.14772369e+02
289             	3.14773649e+02
290             	3.14774831e+02
291             	3.14776262e+02
292             	3.14778038e+02
293             	3.14780003e+02
294             	3.14781987e+02
295             	3.14783779e+02
296             	3.14785264e+02
297             	3.14786806e+02
298             	3.14788359e+02
299             	3.14789911e+02
300             	3.14791216e+02
301             	3.14791971e+02
302             	3.14792100e+02
303             	3.14792504e+02
304             	3.14792662e+02
305             	3.14793205e+02
306             	3.14793359e+02
307             	3.14793002e+02
308             	3.14792391e+02
309             	3.14791829e+02
310             	3.14791529e+02
311             	3.14791281e+02
312             	3.14790983e+02
313             	3.14790766e+02
314             	3.14790547e+02
315             	3.14790432e+02
316             	3.14790408e+02
317             	3.14790431e+02
318             	3.14790533e+02
319             	3.14790715e+02
320             	3.14791087e+02
321             	3.14791621e+02
322             	3.14792130e+02
323             	3.14792822e+02
324             	3.14792940e+02
325             	3.14792834e+02
326             	3.14793306e+02
327             	3.14794202e+02
328             	3.14795107e+02
329             	3.14795880e+02
330             	3.14796565e+02
331             	3.14797280e+02
332             	3.14797606e+02
333             	3.14798227e+02
334             	3.14798718e+02
335             	3.14799371e+02
336             	3.14800121e+02
337             	3.14800931e+02
338             	3.14801796e+02
339             	3.14802665e+02
340             	3.14803488e+02
341             	3.14804465e+02
342             	3.14804845e+02
343             	3.14805180e+02
344             	3.14805323e+02
345             	3.14805154e+02
346             	3.14805142e+02
347             	3.14805325e+02
348             	3.14805498e+02
349             	3.14805043e+02
350             	3.14804448e+02
351             	3.14804043e+02
352             	3.14803752e+02
353             	3.14803520e+02
354             	3.14803304e+02
355             	3.14803105e+02
356             	3.14802853e+02
357             	3.14802533e+02
358             	3.14802177e+02
359             	3.14801940e+02
360             	3.14802006e+02
361             	3.14802248e+02
362             	3.14802709e+02
363             	3.14803332e+02
364             	3.14804133e+02
365             	3.14805176e+02
366             	3.14806128e+02
367             	3.14807278e+02
368             	3.14808028e+02
369             	3.14809028e+02
370             	3.14810206e+02
371             	3.14811428e+02
372             	3.14812602e+02
373             	3.14813513e+02
374             	3.14814332e+02
375             	3.14815086e+02
376             	3.14815737e+02
377             	3.14816293e+02
378             	3.14816786e+02
379             	3.14816819e+02
380             	3.14816741e+02
381             	3.14816639e+02
382             	3.14816613e+02
383             	3.14816596e+02
384             	3.14816572e+02
385             	3.14816566e+02
386             	3.14816533e+02
387             	3.14816439e+02
388             	3.14816354e+02
389             	3.14816348e+02
390             	3.14816469e+02
391             	3.14816663e+02
392             	3.14816846e+02
393             	3.14816920e+02
394             	3.14816832e+02
395             	3.14816586e+02
396             	3.14816180e+02
397             	3.14815736e+02
398             	3.14815292e+02
399             	3.14814817e+02
400             	3.14814419e+02
401             	3.14814320e+02
402             	3.14814321e+02
403             	3.14814414e+02
404             	3.14814565e+02
405             	3.14814740e+02
406             	3.14815017e+02
407             	3.14815291e+02
408             	3.14815496e+02
409             	3.14815847e+02
410             	3.14816347e+02
411             	3.14816853e+02
412             	3.14817309e+02
413             	3.14817806e+02
414             	3.14818441e+02
415             	3.14819198e+02
416             	3.14820078e+02
417             	3.14821068e+02
418             	3.14822078e+02
419             	3.14823016e+02
420             	3.14823781e+02
421             	3.14824338e+02
422             	3.14824669e+02
423             	3.14824711e+02
424             	3.14824480e+02
425             	3.14824132e+02
426             	3.14823512e+02
427             	3.14822501e+02
428             	3.14821689e+02
429             	3.14820891e+02
430             	3.14820144e+02
431             	3.14819554e+02
432             	3.14819016e+02
433             	3.14818679e+02
434             	3.14818510e+02
435             	3.14818348e+02
436             	3.14818195e+02
437             	3.14818036e+02
438             	3.14817826e+02
439             	3.14817555e+02
440             	3.14817279e+02
441             	3.14816890e+02
442             	3.14816450e+02
443             	3.14816247e+02
444             	3.14815798e+02
445             	3.14815410e+02
446             	3.14815078e+02
447             	3.14814674e+02
448             	3.14814650e+02
449             	3.14814372e+02
450             	3.14814148e+02
451             	3.14814052e+02
452             	3.14814073e+02
453             	3.14814239e+02
454             	3.14814567e+02
455             	3.14815067e+02
456             	3.14815515e+02
457             	3.14816004e+02
458             	3.14816509e+02
459             	3.14816599e+02
460             	3.14817536e+02
461             	3.14819108e+02
462             	3.14820871e+02
463             	3.14822747e+02
464             	3.14824590e+02
465             	3.14826342e+02
466             	3.14827831e+02
467             	3.14829000e+02
468             	3.14829757e+02
469             	3.14830112e+02
470             	3.14830051e+02
471             	3.14829372e+02
472             	3.14828197e+02
473             	3.14826955e+02
474             	3.14825719e+02
475             	3.14823944e+02
476             	3.14822071e+02
477             	3.14820387e+02
478             	3.14818689e+02
479             	3.14817218e+02
480             	3.14815894e+02
481             	3.14814601e+02
482             	3.14813314e+02
483             	3.14811791e+02
484             	3.14810259e+02
485             	3.14809022e+02
486             	3.14808166e+02
487             	3.14807571e+02
488             	3.14806898e+02
489             	3.14806610e+02
490             	3.14806315e+02
491             	3.14805899e+02
492             	3.14806158e+02
493             	3.14806429e+02
494             	3.14806461e+02
495             	3.14806333e+02
496             	3.14806518e+02
497             	3.14806679e+02
498             	3.14807154e+02
499             	3.14807915e+02
500             	3.14808903e+02
501             	3.14810156e+02
502             	3.14811658e+02
503             	3.14813315e+02
504             	3.14814935e+02
505             	3.14816439e+02
506             	3.14817771e+02
507             	3.14819158e+02
508             	3.14820541e+02
509             	3.14821744e+02
510             	3.14822730e+02
511             	3.14823369e+02
512             	3.14823551e+02
513             	3.14823240e+02
514             	3.14822615e+02
515             	3.14821877e+02
516             	3.14821070e+02
517             	3.14820317e+02
518             	3.14819581e+02
519             	3.14818720e+02
520             	3.14817450e+02
521             	3.14816081e+02
522             	3.14814656e+02
523             	3.14813296e+02
524             	3.14811919e+02
525             	3.14810497e+02
526             	3.14809025e+02
527             	3.14807495e+02
528             	3.14806066e+02
529             	3.14804810e+02
530             	3.14803845e+02
531             	3.14803136e+02
532             	3.14802602e+02
533             	3.14802488e+02
534             	3.14802831e+02
535             	3.14803244e+02
536             	3.14803750e+02
537             	3.14804212e+02
538             	3.14804703e+02
539             	3.14805186e+02
540             	3.14805763e+02
541             	3.14806536e+02
542             	3.14807418e+02
543             	3.14808282e+02
544             	3.14809146e+02
545             	3.14810046e+02
546             	3.14811061e+02
547             	3.14811993e+02
548             	3.14812800e+02
549             	3.14813778e+02
550             	3.14815001e+02
551             	3.14816290e+02
552             	3.14817431e+02
553             	3.14818213e+02
554             	3.14818469e+02
555             	3.14818105e+02
556             	3.14817262e+02
557             	3.14816017e+02
558             	3.14814431e+02
559             	3.14812588e+02
560             	3.14810573e+02
561             	3.14808551e+02
562             	3.14806737e+02
563             	3.14805137e+02
564             	3.14803781e+02
565             	3.14802661e+02
566             	3.14801701e+02
567             	3.14800881e+02
568             	3.14800158e+02
569             	3.14799538e+02
570             	3.14798971e+02
571             	3.14798440e+02
572             	3.14797887e+02
573             	3.14797613e+02
574             	3.14797619e+02
575             	3.14797077e+02
576             	3.14796706e+02
577             	3.14796816e+02
578             	3.14797295e+02
579             	3.14797307e+02
580             	3.14797039e+02
581             	3.14796727e+02
582             	3.14796327e+02
583             	3.14795864e+02
584             	3.14795659e+02
585             	3.14795790e+02
586             	3.14796460e+02
587             	3.14797543e+02
588             	3.14798798e+02
589             	3.14800281e+02
590             	3.14802013e+02
591             	3.14804130e+02
592             	3.14806566e+02
593             	3.14809218e+02
594             	3.14811903e+02
595             	3.14814419e+02
596             	3.14816597e+02
597             	3.14818412e+02
598             	3.14819842e+02
599             	3.14820808e+02
600             	3.14821270e+02
601             	3.14821224e+02
602             	3.14820625e+02
603             	3.14819593e+02
604             	3.14818091e+02
605             	3.14817127e+02
606             	3.14815431e+02
607             	3.14813416e+02
608             	3.14811535e+02
609             	3.14809842e+02
610             	3.14808190e+02
611             	3.14806647e+02
612             	3.14805335e+02
613             	3.14804209e+02
614             	3.14803241e+02
615             	3.14802603e+02
616             	3.14802130e+02
617             	3.14802291e+02
618             	3.14802437e+02
619             	3.14802636e+02
620             	3.14803014e+02
621             	3.14803549e+02
