# Region        : cellZone component_1
# Cells         : 52
# Volume        : 7.19072783e-02
# Time          	volAverage(T)
1               	3.01017982e+02
2               	3.02012483e+02
3               	3.02932229e+02
4               	3.03821360e+02
5               	3.04699515e+02
6               	3.05573395e+02
7               	3.06444117e+02
8               	3.07319571e+02
9               	3.08193198e+02
10              	3.09065468e+02
11              	3.09927461e+02
12              	3.10771313e+02
13              	3.11594435e+02
14              	3.12409661e+02
15              	3.13225697e+02
16              	3.14051011e+02
17              	3.14867849e+02
18              	3.15683380e+02
19              	3.16491661e+02
20              	3.17295288e+02
21              	3.18089188e+02
22              	3.18872825e+02
23              	3.19637670e+02
24              	3.20393303e+02
25              	3.21143175e+02
26              	3.21886427e+02
27              	3.22629618e+02
28              	3.23367925e+02
29              	3.24100547e+02
30              	3.24826662e+02
31              	3.25543673e+02
32              	3.26251469e+02
33              	3.26959034e+02
34              	3.27665491e+02
35              	3.28373523e+02
36              	3.29083007e+02
37              	3.29777543e+02
38              	3.30452265e+02
39              	3.31126857e+02
40              	3.31779610e+02
41              	3.32419170e+02
42              	3.33040369e+02
43              	3.33649477e+02
44              	3.34253896e+02
45              	3.34863769e+02
46              	3.35458504e+02
47              	3.36038821e+02
48              	3.36596429e+02
49              	3.37162285e+02
50              	3.37737176e+02
51              	3.38306018e+02
52              	3.38875399e+02
53              	3.39446488e+02
54              	3.40015062e+02
55              	3.40579133e+02
56              	3.41146149e+02
57              	3.41706603e+02
58              	3.42259776e+02
59              	3.42802366e+02
60              	3.43352341e+02
61              	3.43893825e+02
62              	3.44423402e+02
63              	3.44946255e+02
64              	3.45456199e+02
65              	3.45969956e+02
66              	3.46478470e+02
67              	3.46992104e+02
68              	3.47505578e+02
69              	3.48004845e+02
70              	3.48490450e+02
71              	3.48987541e+02
72              	3.49482890e+02
73              	3.49967943e+02
74              	3.50436619e+02
75              	3.50896489e+02
76              	3.51353591e+02
77              	3.51803979e+02
78              	3.52254821e+02
79              	3.52703190e+02
80              	3.53138989e+02
81              	3.53560452e+02
82              	3.53980604e+02
83              	3.54396311e+02
84              	3.54807271e+02
85              	3.55211373e+02
86              	3.55611340e+02
87              	3.56001468e+02
88              	3.56390861e+02
89              	3.56773190e+02
90              	3.57153519e+02
91              	3.57534003e+02
92              	3.57913402e+02
93              	3.58298434e+02
94              	3.58672407e+02
95              	3.59043692e+02
96              	3.59414285e+02
97              	3.59771886e+02
98              	3.60129949e+02
99              	3.60469203e+02
100             	3.60817508e+02
101             	3.61160887e+02
102             	3.61504184e+02
103             	3.61844079e+02
104             	3.62178225e+02
105             	3.62505246e+02
106             	3.62833995e+02
107             	3.63159724e+02
108             	3.63479194e+02
109             	3.63796534e+02
110             	3.64110749e+02
111             	3.64421914e+02
112             	3.64729783e+02
113             	3.65032067e+02
114             	3.65324507e+02
115             	3.65615082e+02
116             	3.65899890e+02
117             	3.66180915e+02
118             	3.66453919e+02
119             	3.66720595e+02
120             	3.66983930e+02
121             	3.67244988e+02
122             	3.67504399e+02
123             	3.67761607e+02
124             	3.68015203e+02
125             	3.68265602e+02
126             	3.68514917e+02
127             	3.68765111e+02
128             	3.69008159e+02
129             	3.69245626e+02
130             	3.69485302e+02
131             	3.69719392e+02
132             	3.69947894e+02
133             	3.70155530e+02
134             	3.70372240e+02
135             	3.70587224e+02
136             	3.70800508e+02
137             	3.71013225e+02
138             	3.71223441e+02
139             	3.71425939e+02
140             	3.71626104e+02
141             	3.71827000e+02
142             	3.72026745e+02
143             	3.72223352e+02
144             	3.72417217e+02
145             	3.72607933e+02
146             	3.72794969e+02
147             	3.72979298e+02
148             	3.73161111e+02
149             	3.73340871e+02
150             	3.73517299e+02
151             	3.73690095e+02
152             	3.73863214e+02
153             	3.74030814e+02
154             	3.74195901e+02
155             	3.74358404e+02
156             	3.74518981e+02
157             	3.74678347e+02
158             	3.74836541e+02
159             	3.74993811e+02
160             	3.75150173e+02
161             	3.75304886e+02
162             	3.75458223e+02
163             	3.75610258e+02
164             	3.75760124e+02
165             	3.75908095e+02
166             	3.76054767e+02
167             	3.76199252e+02
168             	3.76343937e+02
169             	3.76484047e+02
170             	3.76623830e+02
171             	3.76760014e+02
172             	3.76894838e+02
173             	3.77027514e+02
174             	3.77158422e+02
175             	3.77287537e+02
176             	3.77414743e+02
177             	3.77536468e+02
178             	3.77659561e+02
179             	3.77781284e+02
180             	3.77900377e+02
181             	3.78016880e+02
182             	3.78131091e+02
183             	3.78245376e+02
184             	3.78355435e+02
185             	3.78463330e+02
186             	3.78569641e+02
187             	3.78674281e+02
188             	3.78777114e+02
189             	3.78878085e+02
190             	3.78976942e+02
191             	3.79073722e+02
192             	3.79168788e+02
193             	3.79262895e+02
194             	3.79355757e+02
195             	3.79447578e+02
196             	3.79538481e+02
197             	3.79628295e+02
198             	3.79717076e+02
199             	3.79804775e+02
200             	3.79891352e+02
201             	3.79976745e+02
202             	3.80060885e+02
203             	3.80143721e+02
204             	3.80225638e+02
205             	3.80306771e+02
206             	3.80386875e+02
207             	3.80465834e+02
208             	3.80543617e+02
209             	3.80620119e+02
210             	3.80695273e+02
211             	3.80769271e+02
212             	3.80841961e+02
213             	3.80913455e+02
214             	3.80983932e+02
215             	3.81053584e+02
216             	3.81122330e+02
217             	3.81190200e+02
218             	3.81257376e+02
219             	3.81323741e+02
220             	3.81389235e+02
221             	3.81454588e+02
222             	3.81518397e+02
223             	3.81581378e+02
224             	3.81643713e+02
225             	3.81705466e+02
226             	3.81766956e+02
227             	3.81829162e+02
228             	3.81890362e+02
229             	3.81950602e+02
230             	3.82009136e+02
231             	3.82068472e+02
232             	3.82127314e+02
233             	3.82185493e+02
234             	3.82242837e+02
235             	3.82299565e+02
236             	3.82354886e+02
237             	3.82408638e+02
238             	3.82461185e+02
239             	3.82512452e+02
240             	3.82563961e+02
241             	3.82612471e+02
242             	3.82660010e+02
243             	3.82706657e+02
244             	3.82752759e+02
245             	3.82799452e+02
246             	3.82845123e+02
247             	3.82890306e+02
248             	3.82934780e+02
249             	3.82978614e+02
250             	3.83021865e+02
251             	3.83064547e+02
252             	3.83106981e+02
253             	3.83148181e+02
254             	3.83188825e+02
255             	3.83229079e+02
256             	3.83268830e+02
257             	3.83308248e+02
258             	3.83347342e+02
259             	3.83386398e+02
260             	3.83425803e+02
261             	3.83464993e+02
262             	3.83503704e+02
263             	3.83541991e+02
264             	3.83579857e+02
265             	3.83617525e+02
266             	3.83654037e+02
267             	3.83689972e+02
268             	3.83724742e+02
269             	3.83758834e+02
270             	3.83792324e+02
271             	3.83825221e+02
272             	3.83857581e+02
273             	3.83890286e+02
274             	3.83922203e+02
275             	3.83953861e+02
276             	3.83985543e+02
277             	3.84017201e+02
278             	3.84048845e+02
279             	3.84080465e+02
280             	3.84112032e+02
281             	3.84143563e+02
282             	3.84174142e+02
283             	3.84205220e+02
284             	3.84235982e+02
285             	3.84266276e+02
286             	3.84296075e+02
287             	3.84325384e+02
288             	3.84354174e+02
289             	3.84382441e+02
290             	3.84410115e+02
291             	3.84437163e+02
292             	3.84463928e+02
293             	3.84490178e+02
294             	3.84515890e+02
295             	3.84541121e+02
296             	3.84565318e+02
297             	3.84589353e+02
298             	3.84612978e+02
299             	3.84635891e+02
300             	3.84658255e+02
301             	3.84680274e+02
302             	3.84701926e+02
303             	3.84723806e+02
304             	3.84745537e+02
305             	3.84767111e+02
306             	3.84788616e+02
307             	3.84810135e+02
308             	3.84831767e+02
309             	3.84858120e+02
310             	3.84878979e+02
311             	3.84899474e+02
312             	3.84920628e+02
313             	3.84941153e+02
314             	3.84959121e+02
315             	3.84978888e+02
316             	3.85000546e+02
317             	3.85021476e+02
318             	3.85041285e+02
319             	3.85062319e+02
320             	3.85085087e+02
321             	3.85105018e+02
322             	3.85129571e+02
323             	3.85149844e+02
324             	3.85170683e+02
325             	3.85192127e+02
326             	3.85213033e+02
327             	3.85233121e+02
328             	3.85250965e+02
329             	3.85267587e+02
330             	3.85281147e+02
331             	3.85298332e+02
332             	3.85315980e+02
333             	3.85332486e+02
334             	3.85348278e+02
335             	3.85363871e+02
336             	3.85380600e+02
337             	3.85405463e+02
338             	3.85430067e+02
339             	3.85444213e+02
340             	3.85458085e+02
341             	3.85474742e+02
342             	3.85489821e+02
343             	3.85507737e+02
344             	3.85525029e+02
345             	3.85538714e+02
346             	3.85553008e+02
347             	3.85567462e+02
348             	3.85581074e+02
349             	3.85595338e+02
350             	3.85610163e+02
351             	3.85623157e+02
352             	3.85635793e+02
353             	3.85649417e+02
354             	3.85662845e+02
355             	3.85677985e+02
356             	3.85690825e+02
357             	3.85704146e+02
358             	3.85717534e+02
359             	3.85730724e+02
360             	3.85745186e+02
361             	3.85758960e+02
362             	3.85771884e+02
363             	3.85785471e+02
364             	3.85796991e+02
365             	3.85807655e+02
366             	3.85820001e+02
367             	3.85832330e+02
368             	3.85843297e+02
369             	3.85855938e+02
370             	3.85870112e+02
371             	3.85884598e+02
372             	3.85897940e+02
373             	3.85913630e+02
374             	3.85924723e+02
375             	3.85936146e+02
376             	3.85948448e+02
377             	3.85960755e+02
378             	3.85972684e+02
379             	3.85984685e+02
380             	3.85997460e+02
381             	3.86009399e+02
382             	3.86022136e+02
383             	3.86034974e+02
384             	3.86047865e+02
385             	3.86060944e+02
386             	3.86073620e+02
387             	3.86086553e+02
388             	3.86098506e+02
389             	3.86111329e+02
390             	3.86121952e+02
391             	3.86132942e+02
392             	3.86144748e+02
393             	3.86156298e+02
394             	3.86168861e+02
395             	3.86179287e+02
396             	3.86189321e+02
397             	3.86199675e+02
398             	3.86210331e+02
399             	3.86221050e+02
400             	3.86231381e+02
401             	3.86241210e+02
402             	3.86251348e+02
403             	3.86261892e+02
404             	3.86272521e+02
405             	3.86283121e+02
406             	3.86295165e+02
407             	3.86309225e+02
408             	3.86322139e+02
409             	3.86335233e+02
410             	3.86348837e+02
411             	3.86362390e+02
412             	3.86375565e+02
413             	3.86388387e+02
414             	3.86402233e+02
415             	3.86414293e+02
416             	3.86425440e+02
417             	3.86435942e+02
418             	3.86446461e+02
419             	3.86456205e+02
420             	3.86467545e+02
421             	3.86479349e+02
422             	3.86491006e+02
423             	3.86502023e+02
424             	3.86512603e+02
425             	3.86523235e+02
426             	3.86533909e+02
427             	3.86544444e+02
428             	3.86555023e+02
429             	3.86566527e+02
430             	3.86578875e+02
431             	3.86590999e+02
432             	3.86602258e+02
433             	3.86614424e+02
434             	3.86626652e+02
435             	3.86639449e+02
436             	3.86653371e+02
437             	3.86667754e+02
438             	3.86683786e+02
439             	3.86696449e+02
440             	3.86708420e+02
441             	3.86720319e+02
442             	3.86733239e+02
443             	3.86745671e+02
444             	3.86757620e+02
445             	3.86769055e+02
446             	3.86781354e+02
447             	3.86790762e+02
448             	3.86802511e+02
449             	3.86814617e+02
450             	3.86826309e+02
451             	3.86837591e+02
452             	3.86850318e+02
453             	3.86862533e+02
454             	3.86872371e+02
455             	3.86882130e+02
456             	3.86892040e+02
457             	3.86901969e+02
458             	3.86912691e+02
459             	3.86923498e+02
460             	3.86934273e+02
461             	3.86945190e+02
462             	3.86956484e+02
463             	3.86968335e+02
464             	3.86980705e+02
465             	3.86993627e+02
466             	3.87006805e+02
467             	3.87020005e+02
468             	3.87033267e+02
469             	3.87046727e+02
470             	3.87059987e+02
471             	3.87072921e+02
472             	3.87086734e+02
473             	3.87099502e+02
474             	3.87111468e+02
475             	3.87124062e+02
476             	3.87136876e+02
477             	3.87149737e+02
478             	3.87162567e+02
479             	3.87175321e+02
480             	3.87188573e+02
481             	3.87200587e+02
482             	3.87212391e+02
483             	3.87224154e+02
484             	3.87236708e+02
485             	3.87250142e+02
486             	3.87262011e+02
487             	3.87273840e+02
488             	3.87286005e+02
489             	3.87298468e+02
490             	3.87309593e+02
491             	3.87320343e+02
492             	3.87332888e+02
493             	3.87345538e+02
494             	3.87357775e+02
495             	3.87369674e+02
496             	3.87381388e+02
497             	3.87392874e+02
498             	3.87404111e+02
499             	3.87415208e+02
500             	3.87426226e+02
501             	3.87437109e+02
502             	3.87447801e+02
503             	3.87458226e+02
504             	3.87469548e+02
505             	3.87479643e+02
506             	3.87489503e+02
507             	3.87499529e+02
508             	3.87509779e+02
509             	3.87520217e+02
510             	3.87530783e+02
511             	3.87541371e+02
512             	3.87551765e+02
513             	3.87562195e+02
514             	3.87571682e+02
515             	3.87581742e+02
516             	3.87591841e+02
517             	3.87601979e+02
518             	3.87612127e+02
519             	3.87622499e+02
520             	3.87632630e+02
521             	3.87642946e+02
522             	3.87653459e+02
523             	3.87664262e+02
524             	3.87675297e+02
525             	3.87685968e+02
526             	3.87697185e+02
527             	3.87708869e+02
528             	3.87720588e+02
529             	3.87732561e+02
530             	3.87744595e+02
531             	3.87756364e+02
532             	3.87767701e+02
533             	3.87778935e+02
534             	3.87790233e+02
535             	3.87801513e+02
536             	3.87812734e+02
537             	3.87823959e+02
538             	3.87835282e+02
539             	3.87846630e+02
540             	3.87858075e+02
541             	3.87869643e+02
542             	3.87881259e+02
543             	3.87892936e+02
544             	3.87904683e+02
545             	3.87916467e+02
546             	3.87928213e+02
547             	3.87939914e+02
548             	3.87951162e+02
549             	3.87962726e+02
550             	3.87974283e+02
551             	3.87985732e+02
552             	3.87997080e+02
553             	3.88008373e+02
554             	3.88019625e+02
555             	3.88030842e+02
556             	3.88042019e+02
557             	3.88053168e+02
558             	3.88064291e+02
559             	3.88075377e+02
560             	3.88086418e+02
561             	3.88097565e+02
562             	3.88108574e+02
563             	3.88119542e+02
564             	3.88130702e+02
565             	3.88142021e+02
566             	3.88153409e+02
567             	3.88164911e+02
568             	3.88176584e+02
569             	3.88188443e+02
570             	3.88200438e+02
571             	3.88212551e+02
572             	3.88224530e+02
573             	3.88236690e+02
574             	3.88248858e+02
575             	3.88260962e+02
576             	3.88273011e+02
577             	3.88285310e+02
578             	3.88296637e+02
579             	3.88308176e+02
580             	3.88319726e+02
581             	3.88331131e+02
582             	3.88342349e+02
583             	3.88353366e+02
584             	3.88364211e+02
585             	3.88374913e+02
586             	3.88385535e+02
587             	3.88396148e+02
588             	3.88406803e+02
589             	3.88417769e+02
590             	3.88428585e+02
591             	3.88439471e+02
592             	3.88450488e+02
593             	3.88461542e+02
594             	3.88472670e+02
595             	3.88483861e+02
596             	3.88495099e+02
597             	3.88506381e+02
598             	3.88517715e+02
599             	3.88529110e+02
600             	3.88540572e+02
601             	3.88552107e+02
602             	3.88563722e+02
603             	3.88575420e+02
604             	3.88587195e+02
605             	3.88599041e+02
606             	3.88610940e+02
607             	3.88622882e+02
608             	3.88634842e+02
609             	3.88646815e+02
610             	3.88658787e+02
611             	3.88670770e+02
612             	3.88682750e+02
613             	3.88694724e+02
614             	3.88706672e+02
615             	3.88718565e+02
616             	3.88730455e+02
617             	3.88742348e+02
618             	3.88754268e+02
619             	3.88766207e+02
620             	3.88778255e+02
621             	3.88790413e+02
