# Region        : cellZone component_2
# Cells         : 8
# Volume        : 1.06045588e-02
# Time          	volAverage(T)
1               	3.04213137e+02
2               	3.08340429e+02
3               	3.11773305e+02
4               	3.14883842e+02
5               	3.17943471e+02
6               	3.21021369e+02
7               	3.24106826e+02
8               	3.27181475e+02
9               	3.30195476e+02
10              	3.33170970e+02
11              	3.36092386e+02
12              	3.38992931e+02
13              	3.41809260e+02
14              	3.44574434e+02
15              	3.47248767e+02
16              	3.49834629e+02
17              	3.52357573e+02
18              	3.54819418e+02
19              	3.57275412e+02
20              	3.59696579e+02
21              	3.62077849e+02
22              	3.64453019e+02
23              	3.66822770e+02
24              	3.69164851e+02
25              	3.71465379e+02
26              	3.73701569e+02
27              	3.75901591e+02
28              	3.78056917e+02
29              	3.80176883e+02
30              	3.82229075e+02
31              	3.84276378e+02
32              	3.86304984e+02
33              	3.88299742e+02
34              	3.90264748e+02
35              	3.92182397e+02
36              	3.94023047e+02
37              	3.95784025e+02
38              	3.97439908e+02
39              	3.99012748e+02
40              	4.00491990e+02
41              	4.01876427e+02
42              	4.03192495e+02
43              	4.04418929e+02
44              	4.05629089e+02
45              	4.06809385e+02
46              	4.07804311e+02
47              	4.08827114e+02
48              	4.09878809e+02
49              	4.10715544e+02
50              	4.11599709e+02
51              	4.12336578e+02
52              	4.13126154e+02
53              	4.13922843e+02
54              	4.14550138e+02
55              	4.15241005e+02
56              	4.15975197e+02
57              	4.16498169e+02
58              	4.17067880e+02
59              	4.17508963e+02
60              	4.18013810e+02
61              	4.18575401e+02
62              	4.19103601e+02
63              	4.19624973e+02
64              	4.20108826e+02
65              	4.20584664e+02
66              	4.20874455e+02
67              	4.21273292e+02
68              	4.21509882e+02
69              	4.21819133e+02
70              	4.21999217e+02
71              	4.22321205e+02
72              	4.22420200e+02
73              	4.22607167e+02
74              	4.22827539e+02
75              	4.22893656e+02
76              	4.23054361e+02
77              	4.23252068e+02
78              	4.23376507e+02
79              	4.23491265e+02
80              	4.23674820e+02
81              	4.23663543e+02
82              	4.23713701e+02
83              	4.23655255e+02
84              	4.23701546e+02
85              	4.23619767e+02
86              	4.23626018e+02
87              	4.23706562e+02
88              	4.23805663e+02
89              	4.23911540e+02
90              	4.23954565e+02
91              	4.23963103e+02
92              	4.24016460e+02
93              	4.23880904e+02
94              	4.23824268e+02
95              	4.23857540e+02
96              	4.23683005e+02
97              	4.23605247e+02
98              	4.23424585e+02
99              	4.23350922e+02
100             	4.23343306e+02
101             	4.23280155e+02
102             	4.23219780e+02
103             	4.23135719e+02
104             	4.23062538e+02
105             	4.22988487e+02
106             	4.22918526e+02
107             	4.22870221e+02
108             	4.22639855e+02
109             	4.22509663e+02
110             	4.22447107e+02
111             	4.22441352e+02
112             	4.22420919e+02
113             	4.22392122e+02
114             	4.22354554e+02
115             	4.22251327e+02
116             	4.22136956e+02
117             	4.22092461e+02
118             	4.21973638e+02
119             	4.21836842e+02
120             	4.21710523e+02
121             	4.21635533e+02
122             	4.21587153e+02
123             	4.21313216e+02
124             	4.21149335e+02
125             	4.21024160e+02
126             	4.20913782e+02
127             	4.20815309e+02
128             	4.20719159e+02
129             	4.20619725e+02
130             	4.20503728e+02
131             	4.20401661e+02
132             	4.20292492e+02
133             	4.20193941e+02
134             	4.20116587e+02
135             	4.20021635e+02
136             	4.19943117e+02
137             	4.19874580e+02
138             	4.19791374e+02
139             	4.19696483e+02
140             	4.19602356e+02
141             	4.19493595e+02
142             	4.19399672e+02
143             	4.19298019e+02
144             	4.19198379e+02
145             	4.19128360e+02
146             	4.19030914e+02
147             	4.18972691e+02
148             	4.18912502e+02
149             	4.18840316e+02
150             	4.18770156e+02
151             	4.18692040e+02
152             	4.18588133e+02
153             	4.18469801e+02
154             	4.18378353e+02
155             	4.18285027e+02
156             	4.18188609e+02
157             	4.18102622e+02
158             	4.18039505e+02
159             	4.18025946e+02
160             	4.18000637e+02
161             	4.17947571e+02
162             	4.17880607e+02
163             	4.17817266e+02
164             	4.17768940e+02
165             	4.17699839e+02
166             	4.17622825e+02
167             	4.17558180e+02
168             	4.17503149e+02
169             	4.17446842e+02
170             	4.17398672e+02
171             	4.17348570e+02
172             	4.17304508e+02
173             	4.17280046e+02
174             	4.17254110e+02
175             	4.17224515e+02
176             	4.17188350e+02
177             	4.17148561e+02
178             	4.17113590e+02
179             	4.17089883e+02
180             	4.17072574e+02
181             	4.17063490e+02
182             	4.17062696e+02
183             	4.17070167e+02
184             	4.17065219e+02
185             	4.17079079e+02
186             	4.17087240e+02
187             	4.17100362e+02
188             	4.17112218e+02
189             	4.17131711e+02
190             	4.17146489e+02
191             	4.17151874e+02
192             	4.17159624e+02
193             	4.17166343e+02
194             	4.17173966e+02
195             	4.17183982e+02
196             	4.17200198e+02
197             	4.17224407e+02
198             	4.17257719e+02
199             	4.17286628e+02
200             	4.17318388e+02
201             	4.17354151e+02
202             	4.17394108e+02
203             	4.17441028e+02
204             	4.17483568e+02
205             	4.17526386e+02
206             	4.17570202e+02
207             	4.17615876e+02
208             	4.17663506e+02
209             	4.17711790e+02
210             	4.17757802e+02
211             	4.17813272e+02
212             	4.17874943e+02
213             	4.17939894e+02
214             	4.18005112e+02
215             	4.18074916e+02
216             	4.18149364e+02
217             	4.18227419e+02
218             	4.18311589e+02
219             	4.18394311e+02
220             	4.18473744e+02
221             	4.18551898e+02
222             	4.18629026e+02
223             	4.18704714e+02
224             	4.18780005e+02
225             	4.18853545e+02
226             	4.18927753e+02
227             	4.19002934e+02
228             	4.19082051e+02
229             	4.19160478e+02
230             	4.19238834e+02
231             	4.19316764e+02
232             	4.19401012e+02
233             	4.19489562e+02
234             	4.19579458e+02
235             	4.19668204e+02
236             	4.19753467e+02
237             	4.19829518e+02
238             	4.19917021e+02
239             	4.20010653e+02
240             	4.20101833e+02
241             	4.20194162e+02
242             	4.20291207e+02
243             	4.20398165e+02
244             	4.20509135e+02
245             	4.20621184e+02
246             	4.20760212e+02
247             	4.20875266e+02
248             	4.20986328e+02
249             	4.21098713e+02
250             	4.21209199e+02
251             	4.21303402e+02
252             	4.21403641e+02
253             	4.21495309e+02
254             	4.21586088e+02
255             	4.21673782e+02
256             	4.21764329e+02
257             	4.21860184e+02
258             	4.21964838e+02
259             	4.22070501e+02
260             	4.22176995e+02
261             	4.22283510e+02
262             	4.22390503e+02
263             	4.22496778e+02
264             	4.22603107e+02
265             	4.22707105e+02
266             	4.22810058e+02
267             	4.22914731e+02
268             	4.23020689e+02
269             	4.23131556e+02
270             	4.23235835e+02
271             	4.23339351e+02
272             	4.23440829e+02
273             	4.23539366e+02
274             	4.23641546e+02
275             	4.23742883e+02
276             	4.23843068e+02
277             	4.23943311e+02
278             	4.24040220e+02
279             	4.24134765e+02
280             	4.24225373e+02
281             	4.24317211e+02
282             	4.24410702e+02
283             	4.24505223e+02
284             	4.24602418e+02
285             	4.24701032e+02
286             	4.24801611e+02
287             	4.24902076e+02
288             	4.25005283e+02
289             	4.25107392e+02
290             	4.25208535e+02
291             	4.25310313e+02
292             	4.25414730e+02
293             	4.25515563e+02
294             	4.25614532e+02
295             	4.25712628e+02
296             	4.25809974e+02
297             	4.25906427e+02
298             	4.26002156e+02
299             	4.26097723e+02
300             	4.26193561e+02
301             	4.26289698e+02
302             	4.26382928e+02
303             	4.26474619e+02
304             	4.26565333e+02
305             	4.26655263e+02
306             	4.26744074e+02
307             	4.26834906e+02
308             	4.26927675e+02
309             	4.27015105e+02
310             	4.27097879e+02
311             	4.27178389e+02
312             	4.27251932e+02
313             	4.27328298e+02
314             	4.27404217e+02
315             	4.27478689e+02
316             	4.27552188e+02
317             	4.27625217e+02
318             	4.27698052e+02
319             	4.27770929e+02
320             	4.27844179e+02
321             	4.27922981e+02
322             	4.27997931e+02
323             	4.28066997e+02
324             	4.28134327e+02
325             	4.28200299e+02
326             	4.28255026e+02
327             	4.28317496e+02
328             	4.28374416e+02
329             	4.28429790e+02
330             	4.28497453e+02
331             	4.28566047e+02
332             	4.28642831e+02
333             	4.28726894e+02
334             	4.28806870e+02
335             	4.28877404e+02
336             	4.28943654e+02
337             	4.29010223e+02
338             	4.29076240e+02
339             	4.29133514e+02
340             	4.29174597e+02
341             	4.29207860e+02
342             	4.29249130e+02
343             	4.29296405e+02
344             	4.29354922e+02
345             	4.29415816e+02
346             	4.29466919e+02
347             	4.29519829e+02
348             	4.29573564e+02
349             	4.29629599e+02
350             	4.29687205e+02
351             	4.29739495e+02
352             	4.29794927e+02
353             	4.29853421e+02
354             	4.29913279e+02
355             	4.29974952e+02
356             	4.30032941e+02
357             	4.30089762e+02
358             	4.30147979e+02
359             	4.30197632e+02
360             	4.30247611e+02
361             	4.30285129e+02
362             	4.30314758e+02
363             	4.30344046e+02
364             	4.30378218e+02
365             	4.30408723e+02
366             	4.30441736e+02
367             	4.30477033e+02
368             	4.30514812e+02
369             	4.30558003e+02
370             	4.30607801e+02
371             	4.30662796e+02
372             	4.30706085e+02
373             	4.30747532e+02
374             	4.30781085e+02
375             	4.30808196e+02
376             	4.30838263e+02
377             	4.30871968e+02
378             	4.30903345e+02
379             	4.30934530e+02
380             	4.30965186e+02
381             	4.31002086e+02
382             	4.31032524e+02
383             	4.31062535e+02
384             	4.31095842e+02
385             	4.31128288e+02
386             	4.31160190e+02
387             	4.31191588e+02
388             	4.31223479e+02
389             	4.31257953e+02
390             	4.31290283e+02
391             	4.31318579e+02
392             	4.31338543e+02
393             	4.31360851e+02
394             	4.31394349e+02
395             	4.31421541e+02
396             	4.31447541e+02
397             	4.31475331e+02
398             	4.31504931e+02
399             	4.31538102e+02
400             	4.31571603e+02
401             	4.31603562e+02
402             	4.31628580e+02
403             	4.31646096e+02
404             	4.31659554e+02
405             	4.31670773e+02
406             	4.31683963e+02
407             	4.31696282e+02
408             	4.31707688e+02
409             	4.31718084e+02
410             	4.31724325e+02
411             	4.31736870e+02
412             	4.31754824e+02
413             	4.31774761e+02
414             	4.31801778e+02
415             	4.31831192e+02
416             	4.31862633e+02
417             	4.31885757e+02
418             	4.31905420e+02
419             	4.31924106e+02
420             	4.31942601e+02
421             	4.31952548e+02
422             	4.31960353e+02
423             	4.31966177e+02
424             	4.31969767e+02
425             	4.31971797e+02
426             	4.31974105e+02
427             	4.31978295e+02
428             	4.31977403e+02
429             	4.31985398e+02
430             	4.31995909e+02
431             	4.32022477e+02
432             	4.32034780e+02
433             	4.32058597e+02
434             	4.32077106e+02
435             	4.32095386e+02
436             	4.32109085e+02
437             	4.32119478e+02
438             	4.32126305e+02
439             	4.32129137e+02
440             	4.32122970e+02
441             	4.32101662e+02
442             	4.32094910e+02
443             	4.32091913e+02
444             	4.32087583e+02
445             	4.32100581e+02
446             	4.32107182e+02
447             	4.32116656e+02
448             	4.32131380e+02
449             	4.32150045e+02
450             	4.32171872e+02
451             	4.32193621e+02
452             	4.32214345e+02
453             	4.32233438e+02
454             	4.32247618e+02
455             	4.32261970e+02
456             	4.32275399e+02
457             	4.32290730e+02
458             	4.32297779e+02
459             	4.32302217e+02
460             	4.32305559e+02
461             	4.32306072e+02
462             	4.32298678e+02
463             	4.32288038e+02
464             	4.32285098e+02
465             	4.32283562e+02
466             	4.32281471e+02
467             	4.32283771e+02
468             	4.32289543e+02
469             	4.32293700e+02
470             	4.32300459e+02
471             	4.32309628e+02
472             	4.32320222e+02
473             	4.32331085e+02
474             	4.32341966e+02
475             	4.32353198e+02
476             	4.32359724e+02
477             	4.32364580e+02
478             	4.32368465e+02
479             	4.32368342e+02
480             	4.32366173e+02
481             	4.32365012e+02
482             	4.32361853e+02
483             	4.32355316e+02
484             	4.32349572e+02
485             	4.32340676e+02
486             	4.32333355e+02
487             	4.32327935e+02
488             	4.32324959e+02
489             	4.32323607e+02
490             	4.32323845e+02
491             	4.32325856e+02
492             	4.32330908e+02
493             	4.32335237e+02
494             	4.32340787e+02
495             	4.32350617e+02
496             	4.32370982e+02
497             	4.32382486e+02
498             	4.32392284e+02
499             	4.32403959e+02
500             	4.32414960e+02
501             	4.32423754e+02
502             	4.32427547e+02
503             	4.32425242e+02
504             	4.32407789e+02
505             	4.32401540e+02
506             	4.32397025e+02
507             	4.32389099e+02
508             	4.32386367e+02
509             	4.32388909e+02
510             	4.32391212e+02
511             	4.32395383e+02
512             	4.32400775e+02
513             	4.32411855e+02
514             	4.32423978e+02
515             	4.32429519e+02
516             	4.32427975e+02
517             	4.32426484e+02
518             	4.32420827e+02
519             	4.32410731e+02
520             	4.32403724e+02
521             	4.32395991e+02
522             	4.32386892e+02
523             	4.32376772e+02
524             	4.32371530e+02
525             	4.32366410e+02
526             	4.32364289e+02
527             	4.32372413e+02
528             	4.32373316e+02
529             	4.32375244e+02
530             	4.32373659e+02
531             	4.32368349e+02
532             	4.32361270e+02
533             	4.32348667e+02
534             	4.32338121e+02
535             	4.32329310e+02
536             	4.32311357e+02
537             	4.32297287e+02
538             	4.32285921e+02
539             	4.32277869e+02
540             	4.32271160e+02
541             	4.32266040e+02
542             	4.32264977e+02
543             	4.32267955e+02
544             	4.32272991e+02
545             	4.32279675e+02
546             	4.32291055e+02
547             	4.32300076e+02
548             	4.32308851e+02
549             	4.32316161e+02
550             	4.32321570e+02
551             	4.32326694e+02
552             	4.32329453e+02
553             	4.32330828e+02
554             	4.32330299e+02
555             	4.32325286e+02
556             	4.32323685e+02
557             	4.32321856e+02
558             	4.32319731e+02
559             	4.32320197e+02
560             	4.32322490e+02
561             	4.32326743e+02
562             	4.32333899e+02
563             	4.32343020e+02
564             	4.32353982e+02
565             	4.32367547e+02
566             	4.32380891e+02
567             	4.32391949e+02
568             	4.32400595e+02
569             	4.32408291e+02
570             	4.32414164e+02
571             	4.32416103e+02
572             	4.32415238e+02
573             	4.32412385e+02
574             	4.32407575e+02
575             	4.32403485e+02
576             	4.32400877e+02
577             	4.32391627e+02
578             	4.32384592e+02
579             	4.32377535e+02
580             	4.32369185e+02
581             	4.32359835e+02
582             	4.32348236e+02
583             	4.32336196e+02
584             	4.32328829e+02
585             	4.32325984e+02
586             	4.32324921e+02
587             	4.32330344e+02
588             	4.32349566e+02
589             	4.32366679e+02
590             	4.32373490e+02
591             	4.32376087e+02
592             	4.32381913e+02
593             	4.32370508e+02
594             	4.32360056e+02
595             	4.32339758e+02
596             	4.32319477e+02
597             	4.32301093e+02
598             	4.32283121e+02
599             	4.32270727e+02
600             	4.32263316e+02
601             	4.32261068e+02
602             	4.32258253e+02
603             	4.32258934e+02
604             	4.32264406e+02
605             	4.32271579e+02
606             	4.32272561e+02
607             	4.32270003e+02
608             	4.32264902e+02
609             	4.32258199e+02
610             	4.32249309e+02
611             	4.32238021e+02
612             	4.32226549e+02
613             	4.32216450e+02
614             	4.32206521e+02
615             	4.32199973e+02
616             	4.32191242e+02
617             	4.32182077e+02
618             	4.32171427e+02
619             	4.32160758e+02
620             	4.32147669e+02
621             	4.32133977e+02
