# Region        : cellZone component_3
# Cells         : 335
# Volume        : 6.61404590e-01
# Time          	volAverage(T)
1               	3.00475836e+02
2               	3.00944598e+02
3               	3.01355108e+02
4               	3.01727433e+02
5               	3.02088128e+02
6               	3.02444033e+02
7               	3.02793932e+02
8               	3.03137143e+02
9               	3.03474184e+02
10              	3.03805928e+02
11              	3.04131441e+02
12              	3.04449513e+02
13              	3.04761036e+02
14              	3.05065938e+02
15              	3.05366419e+02
16              	3.05658539e+02
17              	3.05944156e+02
18              	3.06225395e+02
19              	3.06502138e+02
20              	3.06775138e+02
21              	3.07042413e+02
22              	3.07310169e+02
23              	3.07573513e+02
24              	3.07830220e+02
25              	3.08079012e+02
26              	3.08316478e+02
27              	3.08550025e+02
28              	3.08781479e+02
29              	3.09006688e+02
30              	3.09225074e+02
31              	3.09435866e+02
32              	3.09640689e+02
33              	3.09844632e+02
34              	3.10043396e+02
35              	3.10238046e+02
36              	3.10428740e+02
37              	3.10611153e+02
38              	3.10784400e+02
39              	3.10944632e+02
40              	3.11094037e+02
41              	3.11238620e+02
42              	3.11375440e+02
43              	3.11504330e+02
44              	3.11623319e+02
45              	3.11748350e+02
46              	3.11871422e+02
47              	3.11987948e+02
48              	3.12097387e+02
49              	3.12199595e+02
50              	3.12295240e+02
51              	3.12387193e+02
52              	3.12473859e+02
53              	3.12555400e+02
54              	3.12632499e+02
55              	3.12704563e+02
56              	3.12774552e+02
57              	3.12843929e+02
58              	3.12913549e+02
59              	3.12981705e+02
60              	3.13047349e+02
61              	3.13112430e+02
62              	3.13174961e+02
63              	3.13232155e+02
64              	3.13283760e+02
65              	3.13331948e+02
66              	3.13378530e+02
67              	3.13422965e+02
68              	3.13469962e+02
69              	3.13516511e+02
70              	3.13561311e+02
71              	3.13604027e+02
72              	3.13646473e+02
73              	3.13686782e+02
74              	3.13725841e+02
75              	3.13760835e+02
76              	3.13794503e+02
77              	3.13825416e+02
78              	3.13854208e+02
79              	3.13881592e+02
80              	3.13908247e+02
81              	3.13934471e+02
82              	3.13960031e+02
83              	3.13986162e+02
84              	3.14012208e+02
85              	3.14040973e+02
86              	3.14070220e+02
87              	3.14097054e+02
88              	3.14122248e+02
89              	3.14147551e+02
90              	3.14172127e+02
91              	3.14196441e+02
92              	3.14219392e+02
93              	3.14242054e+02
94              	3.14261449e+02
95              	3.14278477e+02
96              	3.14294218e+02
97              	3.14309464e+02
98              	3.14323956e+02
99              	3.14338666e+02
100             	3.14358285e+02
101             	3.14377574e+02
102             	3.14396141e+02
103             	3.14413147e+02
104             	3.14430473e+02
105             	3.14447136e+02
106             	3.14462328e+02
107             	3.14475460e+02
108             	3.14486858e+02
109             	3.14496681e+02
110             	3.14505516e+02
111             	3.14514761e+02
112             	3.14524016e+02
113             	3.14534747e+02
114             	3.14546726e+02
115             	3.14560110e+02
116             	3.14573048e+02
117             	3.14589464e+02
118             	3.14604866e+02
119             	3.14618844e+02
120             	3.14631463e+02
121             	3.14643365e+02
122             	3.14654742e+02
123             	3.14665595e+02
124             	3.14676536e+02
125             	3.14686191e+02
126             	3.14694536e+02
127             	3.14702971e+02
128             	3.14710142e+02
129             	3.14715596e+02
130             	3.14719150e+02
131             	3.14724336e+02
132             	3.14731206e+02
133             	3.14740006e+02
134             	3.14749524e+02
135             	3.14758812e+02
136             	3.14766755e+02
137             	3.14774024e+02
138             	3.14781042e+02
139             	3.14787203e+02
140             	3.14792414e+02
141             	3.14797652e+02
142             	3.14803094e+02
143             	3.14808907e+02
144             	3.14814850e+02
145             	3.14820362e+02
146             	3.14826149e+02
147             	3.14832282e+02
148             	3.14838628e+02
149             	3.14844501e+02
150             	3.14849794e+02
151             	3.14854984e+02
152             	3.14859840e+02
153             	3.14863845e+02
154             	3.14867868e+02
155             	3.14872232e+02
156             	3.14876828e+02
157             	3.14881756e+02
158             	3.14886196e+02
159             	3.14889218e+02
160             	3.14891763e+02
161             	3.14894369e+02
162             	3.14897253e+02
163             	3.14900249e+02
164             	3.14903127e+02
165             	3.14906026e+02
166             	3.14908981e+02
167             	3.14911885e+02
168             	3.14915769e+02
169             	3.14919727e+02
170             	3.14923527e+02
171             	3.14927301e+02
172             	3.14931008e+02
173             	3.14934369e+02
174             	3.14937595e+02
175             	3.14940875e+02
176             	3.14944306e+02
177             	3.14947316e+02
178             	3.14950151e+02
179             	3.14952688e+02
180             	3.14954866e+02
181             	3.14956837e+02
182             	3.14958371e+02
183             	3.14960137e+02
184             	3.14961731e+02
185             	3.14963206e+02
186             	3.14964814e+02
187             	3.14966468e+02
188             	3.14968186e+02
189             	3.14970018e+02
190             	3.14972049e+02
191             	3.14974137e+02
192             	3.14976037e+02
193             	3.14977599e+02
194             	3.14978632e+02
195             	3.14980408e+02
196             	3.14982158e+02
197             	3.14983932e+02
198             	3.14985849e+02
199             	3.14987884e+02
200             	3.14989909e+02
201             	3.14992051e+02
202             	3.14994120e+02
203             	3.14995695e+02
204             	3.14997163e+02
205             	3.14998636e+02
206             	3.14999774e+02
207             	3.15000643e+02
208             	3.15001267e+02
209             	3.15001884e+02
210             	3.15002764e+02
211             	3.15003695e+02
212             	3.15004645e+02
213             	3.15005596e+02
214             	3.15006666e+02
215             	3.15007373e+02
216             	3.15008057e+02
217             	3.15008944e+02
218             	3.15009934e+02
219             	3.15010887e+02
220             	3.15011432e+02
221             	3.15011744e+02
222             	3.15012578e+02
223             	3.15013810e+02
224             	3.15015038e+02
225             	3.15016238e+02
226             	3.15017267e+02
227             	3.15018295e+02
228             	3.15019215e+02
229             	3.15020105e+02
230             	3.15020977e+02
231             	3.15021873e+02
232             	3.15022601e+02
233             	3.15023239e+02
234             	3.15023773e+02
235             	3.15024247e+02
236             	3.15024652e+02
237             	3.15025142e+02
238             	3.15025466e+02
239             	3.15025730e+02
240             	3.15026017e+02
241             	3.15026320e+02
242             	3.15026681e+02
243             	3.15027011e+02
244             	3.15027329e+02
245             	3.15027805e+02
246             	3.15028323e+02
247             	3.15028953e+02
248             	3.15029545e+02
249             	3.15030123e+02
250             	3.15030367e+02
251             	3.15030723e+02
252             	3.15031109e+02
253             	3.15031418e+02
254             	3.15031690e+02
255             	3.15031886e+02
256             	3.15031681e+02
257             	3.15031535e+02
258             	3.15031345e+02
259             	3.15031353e+02
260             	3.15031660e+02
261             	3.15032098e+02
262             	3.15032538e+02
263             	3.15033006e+02
264             	3.15033488e+02
265             	3.15033959e+02
266             	3.15034411e+02
267             	3.15034761e+02
268             	3.15035079e+02
269             	3.15035389e+02
270             	3.15035645e+02
271             	3.15036010e+02
272             	3.15036364e+02
273             	3.15036652e+02
274             	3.15036968e+02
275             	3.15037248e+02
276             	3.15037475e+02
277             	3.15037665e+02
278             	3.15037869e+02
279             	3.15037896e+02
280             	3.15037858e+02
281             	3.15037801e+02
282             	3.15037753e+02
283             	3.15037715e+02
284             	3.15037746e+02
285             	3.15037810e+02
286             	3.15037908e+02
287             	3.15038098e+02
288             	3.15038272e+02
289             	3.15038569e+02
290             	3.15038842e+02
291             	3.15039074e+02
292             	3.15039269e+02
293             	3.15039369e+02
294             	3.15039379e+02
295             	3.15039370e+02
296             	3.15039363e+02
297             	3.15039359e+02
298             	3.15039352e+02
299             	3.15039347e+02
300             	3.15039360e+02
301             	3.15039381e+02
302             	3.15039413e+02
303             	3.15039445e+02
304             	3.15039472e+02
305             	3.15039498e+02
306             	3.15039526e+02
307             	3.15039528e+02
308             	3.15039543e+02
309             	3.15039658e+02
310             	3.15039815e+02
311             	3.15039955e+02
312             	3.15040046e+02
313             	3.15040161e+02
314             	3.15040274e+02
315             	3.15040333e+02
316             	3.15040370e+02
317             	3.15040406e+02
318             	3.15040421e+02
319             	3.15040418e+02
320             	3.15040407e+02
321             	3.15040399e+02
322             	3.15040405e+02
323             	3.15040423e+02
324             	3.15040438e+02
325             	3.15040476e+02
326             	3.15040504e+02
327             	3.15040547e+02
328             	3.15040676e+02
329             	3.15040786e+02
330             	3.15040918e+02
331             	3.15041007e+02
332             	3.15041056e+02
333             	3.15041096e+02
334             	3.15041099e+02
335             	3.15041077e+02
336             	3.15041058e+02
337             	3.15041053e+02
338             	3.15041059e+02
339             	3.15041083e+02
340             	3.15041110e+02
341             	3.15041134e+02
342             	3.15041146e+02
343             	3.15041186e+02
344             	3.15041252e+02
345             	3.15041310e+02
346             	3.15041356e+02
347             	3.15041419e+02
348             	3.15041445e+02
349             	3.15041457e+02
350             	3.15041467e+02
351             	3.15041478e+02
352             	3.15041485e+02
353             	3.15041485e+02
354             	3.15041491e+02
355             	3.15041511e+02
356             	3.15041521e+02
357             	3.15041528e+02
358             	3.15041544e+02
359             	3.15041558e+02
360             	3.15041569e+02
361             	3.15041579e+02
362             	3.15041584e+02
363             	3.15041586e+02
364             	3.15041609e+02
365             	3.15041629e+02
366             	3.15041642e+02
367             	3.15041649e+02
368             	3.15041672e+02
369             	3.15041665e+02
370             	3.15041649e+02
371             	3.15041643e+02
372             	3.15041620e+02
373             	3.15041598e+02
374             	3.15041582e+02
375             	3.15041570e+02
376             	3.15041554e+02
377             	3.15041551e+02
378             	3.15041553e+02
379             	3.15041557e+02
380             	3.15041571e+02
381             	3.15041600e+02
382             	3.15041630e+02
383             	3.15041646e+02
384             	3.15041656e+02
385             	3.15041665e+02
386             	3.15041663e+02
387             	3.15041652e+02
388             	3.15041633e+02
389             	3.15041615e+02
390             	3.15041600e+02
391             	3.15041584e+02
392             	3.15041571e+02
393             	3.15041564e+02
394             	3.15041560e+02
395             	3.15041554e+02
396             	3.15041544e+02
397             	3.15041536e+02
398             	3.15041525e+02
399             	3.15041521e+02
400             	3.15041525e+02
401             	3.15041533e+02
402             	3.15041545e+02
403             	3.15041557e+02
404             	3.15041568e+02
405             	3.15041577e+02
406             	3.15041584e+02
407             	3.15041596e+02
408             	3.15041597e+02
409             	3.15041595e+02
410             	3.15041592e+02
411             	3.15041583e+02
412             	3.15041568e+02
413             	3.15041552e+02
414             	3.15041540e+02
415             	3.15041527e+02
416             	3.15041522e+02
417             	3.15041523e+02
418             	3.15041529e+02
419             	3.15041541e+02
420             	3.15041557e+02
421             	3.15041570e+02
422             	3.15041575e+02
423             	3.15041578e+02
424             	3.15041576e+02
425             	3.15041575e+02
426             	3.15041572e+02
427             	3.15041565e+02
428             	3.15041554e+02
429             	3.15041545e+02
430             	3.15041540e+02
431             	3.15041545e+02
432             	3.15041547e+02
433             	3.15041551e+02
434             	3.15041552e+02
435             	3.15041553e+02
436             	3.15041553e+02
437             	3.15041549e+02
438             	3.15041553e+02
439             	3.15041561e+02
440             	3.15041564e+02
441             	3.15041572e+02
442             	3.15041578e+02
443             	3.15041562e+02
444             	3.15041545e+02
445             	3.15041530e+02
446             	3.15041518e+02
447             	3.15041508e+02
448             	3.15041500e+02
449             	3.15041493e+02
450             	3.15041482e+02
451             	3.15041490e+02
452             	3.15041502e+02
453             	3.15041512e+02
454             	3.15041521e+02
455             	3.15041530e+02
456             	3.15041543e+02
457             	3.15041549e+02
458             	3.15041549e+02
459             	3.15041548e+02
460             	3.15041543e+02
461             	3.15041530e+02
462             	3.15041520e+02
463             	3.15041527e+02
464             	3.15041534e+02
465             	3.15041541e+02
466             	3.15041548e+02
467             	3.15041549e+02
468             	3.15041549e+02
469             	3.15041548e+02
470             	3.15041546e+02
471             	3.15041542e+02
472             	3.15041536e+02
473             	3.15041531e+02
474             	3.15041527e+02
475             	3.15041528e+02
476             	3.15041533e+02
477             	3.15041536e+02
478             	3.15041544e+02
479             	3.15041554e+02
480             	3.15041561e+02
481             	3.15041566e+02
482             	3.15041569e+02
483             	3.15041568e+02
484             	3.15041567e+02
485             	3.15041561e+02
486             	3.15041550e+02
487             	3.15041541e+02
488             	3.15041533e+02
489             	3.15041523e+02
490             	3.15041518e+02
491             	3.15041513e+02
492             	3.15041517e+02
493             	3.15041523e+02
494             	3.15041531e+02
495             	3.15041533e+02
496             	3.15041533e+02
497             	3.15041534e+02
498             	3.15041533e+02
499             	3.15041533e+02
500             	3.15041528e+02
501             	3.15041524e+02
502             	3.15041520e+02
503             	3.15041515e+02
504             	3.15041511e+02
505             	3.15041508e+02
506             	3.15041504e+02
507             	3.15041503e+02
508             	3.15041504e+02
509             	3.15041504e+02
510             	3.15041503e+02
511             	3.15041499e+02
512             	3.15041493e+02
513             	3.15041488e+02
514             	3.15041481e+02
515             	3.15041472e+02
516             	3.15041466e+02
517             	3.15041460e+02
518             	3.15041454e+02
519             	3.15041450e+02
520             	3.15041448e+02
521             	3.15041444e+02
522             	3.15041444e+02
523             	3.15041447e+02
524             	3.15041448e+02
525             	3.15041450e+02
526             	3.15041447e+02
527             	3.15041444e+02
528             	3.15041442e+02
529             	3.15041436e+02
530             	3.15041431e+02
531             	3.15041426e+02
532             	3.15041423e+02
533             	3.15041423e+02
534             	3.15041422e+02
535             	3.15041421e+02
536             	3.15041420e+02
537             	3.15041419e+02
538             	3.15041418e+02
539             	3.15041417e+02
540             	3.15041415e+02
541             	3.15041414e+02
542             	3.15041413e+02
543             	3.15041412e+02
544             	3.15041411e+02
545             	3.15041410e+02
546             	3.15041410e+02
547             	3.15041410e+02
548             	3.15041411e+02
549             	3.15041412e+02
550             	3.15041412e+02
551             	3.15041413e+02
552             	3.15041413e+02
553             	3.15041412e+02
554             	3.15041410e+02
555             	3.15041409e+02
556             	3.15041407e+02
557             	3.15041405e+02
558             	3.15041402e+02
559             	3.15041399e+02
560             	3.15041393e+02
561             	3.15041387e+02
562             	3.15041383e+02
563             	3.15041378e+02
564             	3.15041375e+02
565             	3.15041373e+02
566             	3.15041372e+02
567             	3.15041373e+02
568             	3.15041375e+02
569             	3.15041377e+02
570             	3.15041380e+02
571             	3.15041382e+02
572             	3.15041382e+02
573             	3.15041381e+02
574             	3.15041380e+02
575             	3.15041378e+02
576             	3.15041375e+02
577             	3.15041372e+02
578             	3.15041369e+02
579             	3.15041368e+02
580             	3.15041368e+02
581             	3.15041369e+02
582             	3.15041370e+02
583             	3.15041371e+02
584             	3.15041372e+02
585             	3.15041373e+02
586             	3.15041375e+02
587             	3.15041374e+02
588             	3.15041374e+02
589             	3.15041373e+02
590             	3.15041374e+02
591             	3.15041377e+02
592             	3.15041379e+02
593             	3.15041381e+02
594             	3.15041383e+02
595             	3.15041385e+02
596             	3.15041386e+02
597             	3.15041386e+02
598             	3.15041387e+02
599             	3.15041386e+02
600             	3.15041385e+02
601             	3.15041384e+02
602             	3.15041383e+02
603             	3.15041380e+02
604             	3.15041378e+02
605             	3.15041375e+02
606             	3.15041374e+02
607             	3.15041372e+02
608             	3.15041371e+02
609             	3.15041370e+02
610             	3.15041370e+02
611             	3.15041371e+02
612             	3.15041372e+02
613             	3.15041374e+02
614             	3.15041375e+02
615             	3.15041375e+02
616             	3.15041375e+02
617             	3.15041374e+02
618             	3.15041373e+02
619             	3.15041371e+02
620             	3.15041366e+02
621             	3.15041361e+02
