# Region        : cellZone component_3
# Cells         : 176
# Volume        : 3.06525843e-01
# Time          	volAverage(T)
1               	3.00290504e+02
2               	3.00577371e+02
3               	3.00846605e+02
4               	3.01102609e+02
5               	3.01349542e+02
6               	3.01588971e+02
7               	3.01821803e+02
8               	3.02048815e+02
9               	3.02270824e+02
10              	3.02488822e+02
11              	3.02703198e+02
12              	3.02915455e+02
13              	3.03122511e+02
14              	3.03324503e+02
15              	3.03522127e+02
16              	3.03717230e+02
17              	3.03908270e+02
18              	3.04098807e+02
19              	3.04288788e+02
20              	3.04474072e+02
21              	3.04658302e+02
22              	3.04839563e+02
23              	3.05015533e+02
24              	3.05186064e+02
25              	3.05349627e+02
26              	3.05505573e+02
27              	3.05655159e+02
28              	3.05800360e+02
29              	3.05940497e+02
30              	3.06079443e+02
31              	3.06216576e+02
32              	3.06352849e+02
33              	3.06490444e+02
34              	3.06630627e+02
35              	3.06764281e+02
36              	3.06888903e+02
37              	3.07005113e+02
38              	3.07118312e+02
39              	3.07230236e+02
40              	3.07342925e+02
41              	3.07451748e+02
42              	3.07556632e+02
43              	3.07654259e+02
44              	3.07748593e+02
45              	3.07837962e+02
46              	3.07923279e+02
47              	3.08007464e+02
48              	3.08090430e+02
49              	3.08173499e+02
50              	3.08257444e+02
51              	3.08342880e+02
52              	3.08432157e+02
53              	3.08522454e+02
54              	3.08612202e+02
55              	3.08697693e+02
56              	3.08777408e+02
57              	3.08852677e+02
58              	3.08922687e+02
59              	3.08984957e+02
60              	3.09041898e+02
61              	3.09092132e+02
62              	3.09142288e+02
63              	3.09196449e+02
64              	3.09253870e+02
65              	3.09317813e+02
66              	3.09384153e+02
67              	3.09454978e+02
68              	3.09528590e+02
69              	3.09599066e+02
70              	3.09665689e+02
71              	3.09728357e+02
72              	3.09788447e+02
73              	3.09842443e+02
74              	3.09893012e+02
75              	3.09937891e+02
76              	3.09978516e+02
77              	3.10015557e+02
78              	3.10050447e+02
79              	3.10084893e+02
80              	3.10123406e+02
81              	3.10164849e+02
82              	3.10213461e+02
83              	3.10263717e+02
84              	3.10313784e+02
85              	3.10362903e+02
86              	3.10410101e+02
87              	3.10454190e+02
88              	3.10496365e+02
89              	3.10534597e+02
90              	3.10571064e+02
91              	3.10606238e+02
92              	3.10641750e+02
93              	3.10677329e+02
94              	3.10714584e+02
95              	3.10751997e+02
96              	3.10789085e+02
97              	3.10825355e+02
98              	3.10857686e+02
99              	3.10889807e+02
100             	3.10920769e+02
101             	3.10952809e+02
102             	3.10985310e+02
103             	3.11019539e+02
104             	3.11056504e+02
105             	3.11094298e+02
106             	3.11134710e+02
107             	3.11176581e+02
108             	3.11218560e+02
109             	3.11259776e+02
110             	3.11298734e+02
111             	3.11336145e+02
112             	3.11371308e+02
113             	3.11404003e+02
114             	3.11434311e+02
115             	3.11463001e+02
116             	3.11490709e+02
117             	3.11517628e+02
118             	3.11544728e+02
119             	3.11571890e+02
120             	3.11599011e+02
121             	3.11624745e+02
122             	3.11648761e+02
123             	3.11670834e+02
124             	3.11692859e+02
125             	3.11714930e+02
126             	3.11738021e+02
127             	3.11762482e+02
128             	3.11788676e+02
129             	3.11816557e+02
130             	3.11845523e+02
131             	3.11874860e+02
132             	3.11902304e+02
133             	3.11928228e+02
134             	3.11953240e+02
135             	3.11977875e+02
136             	3.12002390e+02
137             	3.12027233e+02
138             	3.12052561e+02
139             	3.12077981e+02
140             	3.12101571e+02
141             	3.12124002e+02
142             	3.12144483e+02
143             	3.12162725e+02
144             	3.12178550e+02
145             	3.12192710e+02
146             	3.12205833e+02
147             	3.12219217e+02
148             	3.12233554e+02
149             	3.12248778e+02
150             	3.12264654e+02
151             	3.12281155e+02
152             	3.12297382e+02
153             	3.12313661e+02
154             	3.12328777e+02
155             	3.12341789e+02
156             	3.12353993e+02
157             	3.12366316e+02
158             	3.12378767e+02
159             	3.12391682e+02
160             	3.12406232e+02
161             	3.12422141e+02
162             	3.12439079e+02
163             	3.12456054e+02
164             	3.12472316e+02
165             	3.12487480e+02
166             	3.12501312e+02
167             	3.12513894e+02
168             	3.12526360e+02
169             	3.12538948e+02
170             	3.12552228e+02
171             	3.12566473e+02
172             	3.12581298e+02
173             	3.12595796e+02
174             	3.12610035e+02
175             	3.12623185e+02
176             	3.12635138e+02
177             	3.12646071e+02
178             	3.12656004e+02
179             	3.12664939e+02
180             	3.12672973e+02
181             	3.12680497e+02
182             	3.12688016e+02
183             	3.12695761e+02
184             	3.12703249e+02
185             	3.12711211e+02
186             	3.12719602e+02
187             	3.12728332e+02
188             	3.12737468e+02
189             	3.12746905e+02
190             	3.12756469e+02
191             	3.12766011e+02
192             	3.12775214e+02
193             	3.12783922e+02
194             	3.12791960e+02
195             	3.12799300e+02
196             	3.12806115e+02
197             	3.12812747e+02
198             	3.12819627e+02
199             	3.12827000e+02
200             	3.12834880e+02
201             	3.12843571e+02
202             	3.12852968e+02
203             	3.12861766e+02
204             	3.12870399e+02
205             	3.12878134e+02
206             	3.12884945e+02
207             	3.12890921e+02
208             	3.12896209e+02
209             	3.12901053e+02
210             	3.12905725e+02
211             	3.12910549e+02
212             	3.12915633e+02
213             	3.12920875e+02
214             	3.12926295e+02
215             	3.12931788e+02
216             	3.12937193e+02
217             	3.12942404e+02
218             	3.12947371e+02
219             	3.12952184e+02
220             	3.12956763e+02
221             	3.12961048e+02
222             	3.12965423e+02
223             	3.12969719e+02
224             	3.12974188e+02
225             	3.12979077e+02
226             	3.12984336e+02
227             	3.12989966e+02
228             	3.12995907e+02
229             	3.13001800e+02
230             	3.13007488e+02
231             	3.13012740e+02
232             	3.13017497e+02
233             	3.13021913e+02
234             	3.13026113e+02
235             	3.13030162e+02
236             	3.13034000e+02
237             	3.13037521e+02
238             	3.13040770e+02
239             	3.13043793e+02
240             	3.13046610e+02
241             	3.13049431e+02
242             	3.13052445e+02
243             	3.13055503e+02
244             	3.13058666e+02
245             	3.13061978e+02
246             	3.13065377e+02
247             	3.13068887e+02
248             	3.13072482e+02
249             	3.13076281e+02
250             	3.13080175e+02
251             	3.13084120e+02
252             	3.13088081e+02
253             	3.13091873e+02
254             	3.13095494e+02
255             	3.13098960e+02
256             	3.13102207e+02
257             	3.13105164e+02
258             	3.13107997e+02
259             	3.13110732e+02
260             	3.13113253e+02
261             	3.13115420e+02
262             	3.13117248e+02
263             	3.13118700e+02
264             	3.13120123e+02
265             	3.13121910e+02
266             	3.13124010e+02
267             	3.13126440e+02
268             	3.13129190e+02
269             	3.13132213e+02
270             	3.13135324e+02
271             	3.13138703e+02
272             	3.13142129e+02
273             	3.13145378e+02
274             	3.13148530e+02
275             	3.13151615e+02
276             	3.13154574e+02
277             	3.13157439e+02
278             	3.13159996e+02
279             	3.13162279e+02
280             	3.13164257e+02
281             	3.13165892e+02
282             	3.13167164e+02
283             	3.13168093e+02
284             	3.13168853e+02
285             	3.13169928e+02
286             	3.13171432e+02
287             	3.13173307e+02
288             	3.13175497e+02
289             	3.13177864e+02
290             	3.13180362e+02
291             	3.13182823e+02
292             	3.13185117e+02
293             	3.13187180e+02
294             	3.13189023e+02
295             	3.13190614e+02
296             	3.13192062e+02
297             	3.13193442e+02
298             	3.13194831e+02
299             	3.13196198e+02
300             	3.13197540e+02
301             	3.13198777e+02
302             	3.13199879e+02
303             	3.13200749e+02
304             	3.13201437e+02
305             	3.13202146e+02
306             	3.13202967e+02
307             	3.13203913e+02
308             	3.13204955e+02
309             	3.13206043e+02
310             	3.13207218e+02
311             	3.13208489e+02
312             	3.13209913e+02
313             	3.13211419e+02
314             	3.13213001e+02
315             	3.13214499e+02
316             	3.13215766e+02
317             	3.13216818e+02
318             	3.13217646e+02
319             	3.13218238e+02
320             	3.13218703e+02
321             	3.13218977e+02
322             	3.13219089e+02
323             	3.13219135e+02
324             	3.13219186e+02
325             	3.13219443e+02
326             	3.13220052e+02
327             	3.13220959e+02
328             	3.13221919e+02
329             	3.13222857e+02
330             	3.13223791e+02
331             	3.13224681e+02
332             	3.13225575e+02
333             	3.13226352e+02
334             	3.13227049e+02
335             	3.13227751e+02
336             	3.13228447e+02
337             	3.13229266e+02
338             	3.13230182e+02
339             	3.13231066e+02
340             	3.13231899e+02
341             	3.13232642e+02
342             	3.13233306e+02
343             	3.13233870e+02
344             	3.13234379e+02
345             	3.13234820e+02
346             	3.13235214e+02
347             	3.13235523e+02
348             	3.13235777e+02
349             	3.13236002e+02
350             	3.13236186e+02
351             	3.13236386e+02
352             	3.13236580e+02
353             	3.13236837e+02
354             	3.13237118e+02
355             	3.13237425e+02
356             	3.13237742e+02
357             	3.13238049e+02
358             	3.13238315e+02
359             	3.13238551e+02
360             	3.13238758e+02
361             	3.13238941e+02
362             	3.13239104e+02
363             	3.13239273e+02
364             	3.13239455e+02
365             	3.13239669e+02
366             	3.13239926e+02
367             	3.13240235e+02
368             	3.13240572e+02
369             	3.13240900e+02
370             	3.13241264e+02
371             	3.13241650e+02
372             	3.13242061e+02
373             	3.13242468e+02
374             	3.13242858e+02
375             	3.13243209e+02
376             	3.13243535e+02
377             	3.13243827e+02
378             	3.13244122e+02
379             	3.13244407e+02
380             	3.13244674e+02
381             	3.13244907e+02
382             	3.13245177e+02
383             	3.13245493e+02
384             	3.13245841e+02
385             	3.13246209e+02
386             	3.13246565e+02
387             	3.13246925e+02
388             	3.13247296e+02
389             	3.13247676e+02
390             	3.13248084e+02
391             	3.13248521e+02
392             	3.13249005e+02
393             	3.13249526e+02
394             	3.13250030e+02
395             	3.13250477e+02
396             	3.13250866e+02
397             	3.13251177e+02
398             	3.13251399e+02
399             	3.13251515e+02
400             	3.13251570e+02
401             	3.13251612e+02
402             	3.13251624e+02
403             	3.13251624e+02
404             	3.13251637e+02
405             	3.13251677e+02
406             	3.13251721e+02
407             	3.13251732e+02
408             	3.13251707e+02
409             	3.13251645e+02
410             	3.13251550e+02
411             	3.13251446e+02
412             	3.13251322e+02
413             	3.13251169e+02
414             	3.13250975e+02
415             	3.13250757e+02
416             	3.13250559e+02
417             	3.13250437e+02
418             	3.13250409e+02
419             	3.13250483e+02
420             	3.13250654e+02
421             	3.13250905e+02
422             	3.13251208e+02
423             	3.13251475e+02
424             	3.13251688e+02
425             	3.13251829e+02
426             	3.13251919e+02
427             	3.13252006e+02
428             	3.13252133e+02
429             	3.13252310e+02
430             	3.13252547e+02
431             	3.13252866e+02
432             	3.13253168e+02
433             	3.13253430e+02
434             	3.13253668e+02
435             	3.13253859e+02
436             	3.13254014e+02
437             	3.13254153e+02
438             	3.13254225e+02
439             	3.13254228e+02
440             	3.13254185e+02
441             	3.13254101e+02
442             	3.13253991e+02
443             	3.13253862e+02
444             	3.13253745e+02
445             	3.13253687e+02
446             	3.13253681e+02
447             	3.13253729e+02
448             	3.13253784e+02
449             	3.13253851e+02
450             	3.13253925e+02
451             	3.13253991e+02
452             	3.13254070e+02
453             	3.13254145e+02
454             	3.13254211e+02
455             	3.13254272e+02
456             	3.13254332e+02
457             	3.13254395e+02
458             	3.13254431e+02
459             	3.13254460e+02
460             	3.13254517e+02
461             	3.13254596e+02
462             	3.13254728e+02
463             	3.13254877e+02
464             	3.13255035e+02
465             	3.13255204e+02
466             	3.13255378e+02
467             	3.13255571e+02
468             	3.13255788e+02
469             	3.13256032e+02
470             	3.13256316e+02
471             	3.13256642e+02
472             	3.13256974e+02
473             	3.13257286e+02
474             	3.13257570e+02
475             	3.13257783e+02
476             	3.13257911e+02
477             	3.13257938e+02
478             	3.13257930e+02
479             	3.13257855e+02
480             	3.13257709e+02
481             	3.13257518e+02
482             	3.13257310e+02
483             	3.13257112e+02
484             	3.13256917e+02
485             	3.13256753e+02
486             	3.13256645e+02
487             	3.13256585e+02
488             	3.13256542e+02
489             	3.13256471e+02
490             	3.13256340e+02
491             	3.13256147e+02
492             	3.13255913e+02
493             	3.13255654e+02
494             	3.13255364e+02
495             	3.13255063e+02
496             	3.13254795e+02
497             	3.13254563e+02
498             	3.13254377e+02
499             	3.13254226e+02
500             	3.13254108e+02
501             	3.13253974e+02
502             	3.13253859e+02
503             	3.13253761e+02
504             	3.13253672e+02
505             	3.13253591e+02
506             	3.13253564e+02
507             	3.13253578e+02
508             	3.13253622e+02
509             	3.13253692e+02
510             	3.13253771e+02
511             	3.13253834e+02
512             	3.13253891e+02
513             	3.13253972e+02
514             	3.13254114e+02
515             	3.13254335e+02
516             	3.13254632e+02
517             	3.13254913e+02
518             	3.13255208e+02
519             	3.13255517e+02
520             	3.13255828e+02
521             	3.13256120e+02
522             	3.13256362e+02
523             	3.13256555e+02
524             	3.13256698e+02
525             	3.13256779e+02
526             	3.13256769e+02
527             	3.13256678e+02
528             	3.13256492e+02
529             	3.13256245e+02
530             	3.13255987e+02
531             	3.13255814e+02
532             	3.13255725e+02
533             	3.13255724e+02
534             	3.13255731e+02
535             	3.13255811e+02
536             	3.13255890e+02
537             	3.13255957e+02
538             	3.13255991e+02
539             	3.13255979e+02
540             	3.13255916e+02
541             	3.13255793e+02
542             	3.13255653e+02
543             	3.13255512e+02
544             	3.13255403e+02
545             	3.13255346e+02
546             	3.13255388e+02
547             	3.13255520e+02
548             	3.13255642e+02
549             	3.13255681e+02
550             	3.13255653e+02
551             	3.13255538e+02
552             	3.13255366e+02
553             	3.13255142e+02
554             	3.13254815e+02
555             	3.13254396e+02
556             	3.13254000e+02
557             	3.13253703e+02
558             	3.13253492e+02
559             	3.13253354e+02
560             	3.13253322e+02
561             	3.13253395e+02
562             	3.13253554e+02
563             	3.13253764e+02
564             	3.13253973e+02
565             	3.13254156e+02
566             	3.13254359e+02
567             	3.13254581e+02
568             	3.13254843e+02
569             	3.13255205e+02
570             	3.13255589e+02
571             	3.13255930e+02
572             	3.13256251e+02
573             	3.13256467e+02
574             	3.13256556e+02
575             	3.13256524e+02
576             	3.13256374e+02
577             	3.13256128e+02
578             	3.13255789e+02
579             	3.13255311e+02
580             	3.13254659e+02
581             	3.13253861e+02
582             	3.13253055e+02
583             	3.13252330e+02
584             	3.13251733e+02
585             	3.13251396e+02
586             	3.13251336e+02
587             	3.13251563e+02
588             	3.13252046e+02
589             	3.13252653e+02
590             	3.13253368e+02
591             	3.13254064e+02
592             	3.13254711e+02
593             	3.13255252e+02
594             	3.13255572e+02
595             	3.13255753e+02
596             	3.13255839e+02
597             	3.13255806e+02
598             	3.13255627e+02
599             	3.13255251e+02
600             	3.13254807e+02
601             	3.13254369e+02
602             	3.13254084e+02
603             	3.13253982e+02
604             	3.13254040e+02
605             	3.13254246e+02
606             	3.13254598e+02
607             	3.13255083e+02
608             	3.13255678e+02
609             	3.13256287e+02
610             	3.13256919e+02
611             	3.13257575e+02
612             	3.13258212e+02
613             	3.13258802e+02
614             	3.13259280e+02
615             	3.13259607e+02
616             	3.13259703e+02
617             	3.13259596e+02
618             	3.13259299e+02
619             	3.13259008e+02
620             	3.13258800e+02
621             	3.13258513e+02
