# Region        : cellZone component_1
# Cells         : 544
# Volume        : 1.04234213e+00
# Time          	volAverage(T)
1               	3.00441480e+02
2               	3.00875281e+02
3               	3.01246283e+02
4               	3.01573244e+02
5               	3.01893220e+02
6               	3.02218804e+02
7               	3.02541622e+02
8               	3.02853892e+02
9               	3.03155287e+02
10              	3.03448574e+02
11              	3.03735753e+02
12              	3.04017777e+02
13              	3.04292950e+02
14              	3.04559609e+02
15              	3.04821570e+02
16              	3.05083442e+02
17              	3.05347370e+02
18              	3.05613787e+02
19              	3.05871635e+02
20              	3.06117653e+02
21              	3.06358821e+02
22              	3.06603640e+02
23              	3.06838012e+02
24              	3.07057424e+02
25              	3.07271404e+02
26              	3.07474451e+02
27              	3.07668944e+02
28              	3.07855853e+02
29              	3.08034347e+02
30              	3.08214104e+02
31              	3.08396453e+02
32              	3.08581515e+02
33              	3.08771496e+02
34              	3.08958661e+02
35              	3.09141127e+02
36              	3.09319925e+02
37              	3.09514933e+02
38              	3.09700621e+02
39              	3.09868439e+02
40              	3.10029056e+02
41              	3.10182705e+02
42              	3.10330443e+02
43              	3.10475560e+02
44              	3.10615283e+02
45              	3.10738276e+02
46              	3.10854294e+02
47              	3.10963976e+02
48              	3.11075259e+02
49              	3.11193889e+02
50              	3.11323873e+02
51              	3.11461096e+02
52              	3.11580901e+02
53              	3.11697761e+02
54              	3.11834574e+02
55              	3.11950124e+02
56              	3.12048674e+02
57              	3.12129280e+02
58              	3.12207673e+02
59              	3.12287754e+02
60              	3.12361599e+02
61              	3.12435028e+02
62              	3.12508730e+02
63              	3.12588572e+02
64              	3.12667406e+02
65              	3.12742074e+02
66              	3.12816921e+02
67              	3.12890973e+02
68              	3.12962795e+02
69              	3.13035961e+02
70              	3.13104504e+02
71              	3.13170864e+02
72              	3.13242197e+02
73              	3.13317665e+02
74              	3.13384641e+02
75              	3.13447203e+02
76              	3.13512898e+02
77              	3.13580938e+02
78              	3.13649122e+02
79              	3.13711326e+02
80              	3.13768923e+02
81              	3.13821730e+02
82              	3.13872063e+02
83              	3.13919474e+02
84              	3.13965161e+02
85              	3.14011221e+02
86              	3.14057503e+02
87              	3.14103679e+02
88              	3.14151902e+02
89              	3.14201368e+02
90              	3.14255688e+02
91              	3.14311896e+02
92              	3.14374252e+02
93              	3.14436323e+02
94              	3.14500095e+02
95              	3.14562575e+02
96              	3.14620422e+02
97              	3.14675727e+02
98              	3.14728100e+02
99              	3.14778540e+02
100             	3.14830248e+02
101             	3.14883970e+02
102             	3.14939209e+02
103             	3.14992947e+02
104             	3.15046132e+02
105             	3.15098221e+02
106             	3.15143498e+02
107             	3.15184733e+02
108             	3.15222580e+02
109             	3.15258673e+02
110             	3.15295675e+02
111             	3.15334381e+02
112             	3.15374339e+02
113             	3.15412485e+02
114             	3.15450844e+02
115             	3.15492464e+02
116             	3.15534980e+02
117             	3.15577330e+02
118             	3.15619646e+02
119             	3.15658387e+02
120             	3.15697180e+02
121             	3.15734343e+02
122             	3.15769484e+02
123             	3.15805271e+02
124             	3.15839817e+02
125             	3.15876477e+02
126             	3.15914415e+02
127             	3.15958005e+02
128             	3.15997980e+02
129             	3.16032405e+02
130             	3.16064206e+02
131             	3.16095250e+02
132             	3.16123852e+02
133             	3.16151462e+02
134             	3.16179159e+02
135             	3.16206130e+02
136             	3.16233238e+02
137             	3.16258924e+02
138             	3.16285850e+02
139             	3.16314158e+02
140             	3.16343639e+02
141             	3.16372866e+02
142             	3.16401333e+02
143             	3.16428529e+02
144             	3.16453294e+02
145             	3.16476354e+02
146             	3.16500554e+02
147             	3.16524701e+02
148             	3.16551423e+02
149             	3.16580010e+02
150             	3.16608233e+02
151             	3.16639195e+02
152             	3.16670407e+02
153             	3.16701258e+02
154             	3.16730748e+02
155             	3.16758686e+02
156             	3.16785373e+02
157             	3.16810316e+02
158             	3.16834619e+02
159             	3.16858048e+02
160             	3.16880761e+02
161             	3.16902479e+02
162             	3.16924014e+02
163             	3.16945592e+02
164             	3.16966501e+02
165             	3.16986066e+02
166             	3.17005158e+02
167             	3.17024542e+02
168             	3.17046523e+02
169             	3.17070275e+02
170             	3.17094781e+02
171             	3.17120509e+02
172             	3.17147752e+02
173             	3.17175033e+02
174             	3.17202492e+02
175             	3.17227503e+02
176             	3.17251703e+02
177             	3.17273308e+02
178             	3.17293567e+02
179             	3.17312970e+02
180             	3.17331068e+02
181             	3.17347918e+02
182             	3.17363949e+02
183             	3.17379446e+02
184             	3.17393564e+02
185             	3.17407304e+02
186             	3.17421278e+02
187             	3.17436354e+02
188             	3.17451863e+02
189             	3.17467362e+02
190             	3.17482807e+02
191             	3.17499013e+02
192             	3.17515820e+02
193             	3.17533394e+02
194             	3.17551840e+02
195             	3.17570004e+02
196             	3.17588212e+02
197             	3.17606463e+02
198             	3.17624346e+02
199             	3.17641907e+02
200             	3.17657390e+02
201             	3.17670690e+02
202             	3.17682529e+02
203             	3.17693357e+02
204             	3.17704517e+02
205             	3.17716280e+02
206             	3.17727809e+02
207             	3.17739321e+02
208             	3.17750206e+02
209             	3.17760859e+02
210             	3.17771032e+02
211             	3.17781037e+02
212             	3.17792044e+02
213             	3.17804924e+02
214             	3.17818783e+02
215             	3.17833874e+02
216             	3.17849667e+02
217             	3.17865293e+02
218             	3.17878860e+02
219             	3.17891042e+02
220             	3.17901681e+02
221             	3.17910761e+02
222             	3.17918750e+02
223             	3.17926333e+02
224             	3.17934129e+02
225             	3.17941944e+02
226             	3.17949541e+02
227             	3.17957043e+02
228             	3.17964570e+02
229             	3.17973174e+02
230             	3.17982881e+02
231             	3.17993271e+02
232             	3.18004193e+02
233             	3.18015931e+02
234             	3.18029115e+02
235             	3.18041699e+02
236             	3.18053059e+02
237             	3.18063807e+02
238             	3.18073637e+02
239             	3.18082359e+02
240             	3.18089804e+02
241             	3.18096301e+02
242             	3.18101069e+02
243             	3.18106090e+02
244             	3.18112598e+02
245             	3.18121411e+02
246             	3.18131975e+02
247             	3.18143665e+02
248             	3.18155962e+02
249             	3.18168066e+02
250             	3.18178997e+02
251             	3.18188699e+02
252             	3.18197225e+02
253             	3.18204927e+02
254             	3.18211896e+02
255             	3.18218023e+02
256             	3.18223445e+02
257             	3.18228533e+02
258             	3.18233200e+02
259             	3.18238134e+02
260             	3.18243362e+02
261             	3.18248314e+02
262             	3.18254241e+02
263             	3.18261594e+02
264             	3.18269963e+02
265             	3.18278554e+02
266             	3.18286426e+02
267             	3.18293755e+02
268             	3.18301296e+02
269             	3.18309799e+02
270             	3.18317476e+02
271             	3.18324863e+02
272             	3.18331731e+02
273             	3.18337635e+02
274             	3.18342058e+02
275             	3.18345111e+02
276             	3.18348153e+02
277             	3.18351043e+02
278             	3.18353475e+02
279             	3.18355518e+02
280             	3.18356951e+02
281             	3.18359082e+02
282             	3.18361567e+02
283             	3.18363736e+02
284             	3.18366979e+02
285             	3.18371093e+02
286             	3.18376667e+02
287             	3.18382631e+02
288             	3.18389433e+02
289             	3.18396725e+02
290             	3.18404054e+02
291             	3.18411405e+02
292             	3.18418311e+02
293             	3.18423987e+02
294             	3.18429159e+02
295             	3.18434226e+02
296             	3.18439197e+02
297             	3.18444281e+02
298             	3.18449166e+02
299             	3.18453429e+02
300             	3.18457161e+02
301             	3.18460640e+02
302             	3.18463310e+02
303             	3.18464521e+02
304             	3.18466249e+02
305             	3.18468118e+02
306             	3.18470763e+02
307             	3.18473777e+02
308             	3.18477339e+02
309             	3.18481639e+02
310             	3.18486423e+02
311             	3.18491538e+02
312             	3.18495682e+02
313             	3.18499913e+02
314             	3.18503947e+02
315             	3.18507707e+02
316             	3.18510972e+02
317             	3.18513091e+02
318             	3.18515164e+02
319             	3.18517310e+02
320             	3.18518991e+02
321             	3.18520439e+02
322             	3.18521489e+02
323             	3.18521268e+02
324             	3.18520243e+02
325             	3.18519537e+02
326             	3.18519704e+02
327             	3.18521033e+02
328             	3.18523922e+02
329             	3.18527856e+02
330             	3.18532357e+02
331             	3.18536812e+02
332             	3.18540703e+02
333             	3.18544582e+02
334             	3.18548550e+02
335             	3.18552649e+02
336             	3.18557244e+02
337             	3.18560637e+02
338             	3.18563979e+02
339             	3.18566836e+02
340             	3.18569394e+02
341             	3.18571825e+02
342             	3.18573832e+02
343             	3.18575569e+02
344             	3.18576828e+02
345             	3.18577780e+02
346             	3.18578967e+02
347             	3.18579904e+02
348             	3.18580829e+02
349             	3.18582028e+02
350             	3.18583813e+02
351             	3.18585746e+02
352             	3.18588272e+02
353             	3.18591202e+02
354             	3.18594113e+02
355             	3.18596883e+02
356             	3.18600178e+02
357             	3.18603939e+02
358             	3.18608177e+02
359             	3.18612314e+02
360             	3.18615023e+02
361             	3.18616675e+02
362             	3.18618275e+02
363             	3.18619955e+02
364             	3.18621890e+02
365             	3.18623749e+02
366             	3.18625570e+02
367             	3.18627597e+02
368             	3.18629791e+02
369             	3.18632201e+02
370             	3.18634102e+02
371             	3.18635531e+02
372             	3.18637053e+02
373             	3.18639591e+02
374             	3.18642741e+02
375             	3.18646378e+02
376             	3.18650540e+02
377             	3.18654619e+02
378             	3.18658442e+02
379             	3.18662375e+02
380             	3.18666564e+02
381             	3.18670065e+02
382             	3.18672707e+02
383             	3.18674837e+02
384             	3.18676149e+02
385             	3.18677112e+02
386             	3.18677204e+02
387             	3.18677055e+02
388             	3.18677410e+02
389             	3.18678111e+02
390             	3.18679153e+02
391             	3.18680484e+02
392             	3.18681905e+02
393             	3.18683434e+02
394             	3.18685178e+02
395             	3.18687294e+02
396             	3.18689969e+02
397             	3.18693177e+02
398             	3.18695852e+02
399             	3.18697235e+02
400             	3.18698006e+02
401             	3.18699077e+02
402             	3.18700022e+02
403             	3.18700755e+02
404             	3.18700824e+02
405             	3.18700357e+02
406             	3.18700129e+02
407             	3.18700597e+02
408             	3.18701188e+02
409             	3.18701887e+02
410             	3.18702857e+02
411             	3.18704298e+02
412             	3.18706218e+02
413             	3.18708314e+02
414             	3.18710867e+02
415             	3.18713723e+02
416             	3.18716263e+02
417             	3.18718298e+02
418             	3.18719785e+02
419             	3.18720502e+02
420             	3.18720578e+02
421             	3.18720189e+02
422             	3.18719383e+02
423             	3.18719020e+02
424             	3.18718907e+02
425             	3.18719087e+02
426             	3.18719970e+02
427             	3.18721571e+02
428             	3.18723759e+02
429             	3.18726388e+02
430             	3.18729316e+02
431             	3.18732047e+02
432             	3.18734556e+02
433             	3.18736337e+02
434             	3.18737639e+02
435             	3.18738759e+02
436             	3.18739717e+02
437             	3.18740826e+02
438             	3.18742187e+02
439             	3.18743781e+02
440             	3.18745623e+02
441             	3.18746984e+02
442             	3.18747660e+02
443             	3.18747908e+02
444             	3.18747818e+02
445             	3.18747633e+02
446             	3.18747589e+02
447             	3.18747974e+02
448             	3.18748840e+02
449             	3.18749955e+02
450             	3.18751658e+02
451             	3.18753743e+02
452             	3.18755734e+02
453             	3.18757811e+02
454             	3.18759341e+02
455             	3.18760632e+02
456             	3.18761888e+02
457             	3.18763176e+02
458             	3.18764403e+02
459             	3.18765474e+02
460             	3.18766443e+02
461             	3.18767379e+02
462             	3.18768077e+02
463             	3.18768823e+02
464             	3.18769406e+02
465             	3.18769953e+02
466             	3.18770103e+02
467             	3.18770102e+02
468             	3.18770065e+02
469             	3.18769918e+02
470             	3.18769856e+02
471             	3.18769671e+02
472             	3.18769673e+02
473             	3.18769784e+02
474             	3.18769872e+02
475             	3.18770378e+02
476             	3.18771165e+02
477             	3.18772040e+02
478             	3.18773093e+02
479             	3.18773563e+02
480             	3.18774514e+02
481             	3.18776328e+02
482             	3.18778445e+02
483             	3.18780406e+02
484             	3.18781961e+02
485             	3.18782935e+02
486             	3.18783015e+02
487             	3.18782619e+02
488             	3.18781659e+02
489             	3.18780973e+02
490             	3.18780894e+02
491             	3.18781028e+02
492             	3.18781086e+02
493             	3.18780794e+02
494             	3.18780510e+02
495             	3.18780517e+02
496             	3.18780315e+02
497             	3.18780222e+02
498             	3.18780707e+02
499             	3.18781643e+02
500             	3.18782611e+02
501             	3.18784066e+02
502             	3.18784881e+02
503             	3.18786097e+02
504             	3.18787386e+02
505             	3.18788057e+02
506             	3.18788784e+02
507             	3.18789615e+02
508             	3.18790685e+02
509             	3.18792057e+02
510             	3.18793439e+02
511             	3.18794326e+02
512             	3.18795030e+02
513             	3.18795275e+02
514             	3.18795540e+02
515             	3.18795321e+02
516             	3.18795025e+02
517             	3.18794539e+02
518             	3.18794504e+02
519             	3.18794452e+02
520             	3.18794680e+02
521             	3.18795169e+02
522             	3.18795717e+02
523             	3.18796362e+02
524             	3.18797162e+02
525             	3.18797991e+02
526             	3.18798524e+02
527             	3.18798852e+02
528             	3.18799227e+02
529             	3.18799679e+02
530             	3.18800338e+02
531             	3.18801250e+02
532             	3.18802104e+02
533             	3.18803167e+02
534             	3.18803757e+02
535             	3.18804315e+02
536             	3.18805119e+02
537             	3.18806222e+02
538             	3.18807402e+02
539             	3.18808361e+02
540             	3.18809100e+02
541             	3.18809686e+02
542             	3.18810112e+02
543             	3.18810384e+02
544             	3.18810631e+02
545             	3.18810885e+02
546             	3.18811242e+02
547             	3.18811735e+02
548             	3.18812044e+02
549             	3.18812145e+02
550             	3.18812171e+02
551             	3.18811784e+02
552             	3.18811629e+02
553             	3.18811753e+02
554             	3.18811945e+02
555             	3.18812272e+02
556             	3.18812813e+02
557             	3.18813448e+02
558             	3.18814108e+02
559             	3.18814689e+02
560             	3.18815313e+02
561             	3.18816012e+02
562             	3.18816576e+02
563             	3.18817184e+02
564             	3.18817786e+02
565             	3.18818165e+02
566             	3.18818340e+02
567             	3.18818413e+02
568             	3.18818326e+02
569             	3.18818051e+02
570             	3.18817789e+02
571             	3.18817566e+02
572             	3.18817500e+02
573             	3.18817677e+02
574             	3.18817975e+02
575             	3.18818383e+02
576             	3.18818838e+02
577             	3.18819234e+02
578             	3.18819724e+02
579             	3.18820456e+02
580             	3.18821334e+02
581             	3.18822309e+02
582             	3.18823191e+02
583             	3.18823770e+02
584             	3.18824390e+02
585             	3.18824997e+02
586             	3.18825541e+02
587             	3.18825953e+02
588             	3.18826237e+02
589             	3.18826338e+02
590             	3.18826285e+02
591             	3.18826141e+02
592             	3.18825791e+02
593             	3.18825433e+02
594             	3.18825273e+02
595             	3.18825365e+02
596             	3.18825590e+02
597             	3.18825971e+02
598             	3.18826334e+02
599             	3.18826619e+02
600             	3.18826864e+02
601             	3.18827070e+02
602             	3.18827342e+02
603             	3.18827772e+02
604             	3.18828126e+02
605             	3.18828259e+02
606             	3.18828424e+02
607             	3.18828698e+02
608             	3.18829135e+02
609             	3.18829510e+02
610             	3.18829647e+02
611             	3.18829621e+02
612             	3.18829684e+02
613             	3.18829896e+02
614             	3.18830167e+02
615             	3.18830281e+02
616             	3.18830387e+02
617             	3.18830525e+02
618             	3.18830676e+02
619             	3.18830827e+02
620             	3.18831056e+02
621             	3.18831387e+02
