# Region        : cellZone component_0
# Cells         : 173
# Volume        : 3.08079989e-01
# Time          	volAverage(T)
1               	3.00270392e+02
2               	3.00538321e+02
3               	3.00790932e+02
4               	3.01032632e+02
5               	3.01267990e+02
6               	3.01498355e+02
7               	3.01724029e+02
8               	3.01946024e+02
9               	3.02164879e+02
10              	3.02381139e+02
11              	3.02594214e+02
12              	3.02803495e+02
13              	3.03010215e+02
14              	3.03215503e+02
15              	3.03414099e+02
16              	3.03612489e+02
17              	3.03806555e+02
18              	3.03995969e+02
19              	3.04178476e+02
20              	3.04347908e+02
21              	3.04508806e+02
22              	3.04664248e+02
23              	3.04817651e+02
24              	3.04971459e+02
25              	3.05123791e+02
26              	3.05278137e+02
27              	3.05436605e+02
28              	3.05594841e+02
29              	3.05751127e+02
30              	3.05904638e+02
31              	3.06060249e+02
32              	3.06211856e+02
33              	3.06362075e+02
34              	3.06510779e+02
35              	3.06666549e+02
36              	3.06813027e+02
37              	3.06952387e+02
38              	3.07082172e+02
39              	3.07203794e+02
40              	3.07320873e+02
41              	3.07430545e+02
42              	3.07541479e+02
43              	3.07644728e+02
44              	3.07747014e+02
45              	3.07847152e+02
46              	3.07949962e+02
47              	3.08061757e+02
48              	3.08171331e+02
49              	3.08287594e+02
50              	3.08406945e+02
51              	3.08519712e+02
52              	3.08632932e+02
53              	3.08751471e+02
54              	3.08868988e+02
55              	3.08988044e+02
56              	3.09099521e+02
57              	3.09199802e+02
58              	3.09287712e+02
59              	3.09362718e+02
60              	3.09442739e+02
61              	3.09523448e+02
62              	3.09607530e+02
63              	3.09697002e+02
64              	3.09790459e+02
65              	3.09890074e+02
66              	3.09993239e+02
67              	3.10094693e+02
68              	3.10206658e+02
69              	3.10305468e+02
70              	3.10394754e+02
71              	3.10476104e+02
72              	3.10550815e+02
73              	3.10620324e+02
74              	3.10684376e+02
75              	3.10736533e+02
76              	3.10785956e+02
77              	3.10845924e+02
78              	3.10912244e+02
79              	3.10983314e+02
80              	3.11062898e+02
81              	3.11149484e+02
82              	3.11238245e+02
83              	3.11332143e+02
84              	3.11426848e+02
85              	3.11519149e+02
86              	3.11618320e+02
87              	3.11709347e+02
88              	3.11786042e+02
89              	3.11850073e+02
90              	3.11904218e+02
91              	3.11956595e+02
92              	3.12007641e+02
93              	3.12059821e+02
94              	3.12122601e+02
95              	3.12200774e+02
96              	3.12274899e+02
97              	3.12346557e+02
98              	3.12418925e+02
99              	3.12494815e+02
100             	3.12572217e+02
101             	3.12647341e+02
102             	3.12726270e+02
103             	3.12798168e+02
104             	3.12855965e+02
105             	3.12894247e+02
106             	3.12930814e+02
107             	3.12975630e+02
108             	3.13026074e+02
109             	3.13079710e+02
110             	3.13133548e+02
111             	3.13192213e+02
112             	3.13252273e+02
113             	3.13310723e+02
114             	3.13356718e+02
115             	3.13371643e+02
116             	3.13378434e+02
117             	3.13402679e+02
118             	3.13439084e+02
119             	3.13489705e+02
120             	3.13545460e+02
121             	3.13603775e+02
122             	3.13665493e+02
123             	3.13734521e+02
124             	3.13798596e+02
125             	3.13845563e+02
126             	3.13880008e+02
127             	3.13911741e+02
128             	3.13940458e+02
129             	3.13968546e+02
130             	3.13992222e+02
131             	3.14031467e+02
132             	3.14079877e+02
133             	3.14132110e+02
134             	3.14181542e+02
135             	3.14233852e+02
136             	3.14281903e+02
137             	3.14348509e+02
138             	3.14405227e+02
139             	3.14444297e+02
140             	3.14475321e+02
141             	3.14495570e+02
142             	3.14525596e+02
143             	3.14569405e+02
144             	3.14614567e+02
145             	3.14659908e+02
146             	3.14699677e+02
147             	3.14740962e+02
148             	3.14790222e+02
149             	3.14846517e+02
150             	3.14873100e+02
151             	3.14873179e+02
152             	3.14858596e+02
153             	3.14821347e+02
154             	3.14788212e+02
155             	3.14795219e+02
156             	3.14816021e+02
157             	3.14850021e+02
158             	3.14884240e+02
159             	3.14932106e+02
160             	3.14993066e+02
161             	3.15023535e+02
162             	3.15022885e+02
163             	3.15031732e+02
164             	3.15052264e+02
165             	3.15083372e+02
166             	3.15120770e+02
167             	3.15173235e+02
168             	3.15224909e+02
169             	3.15276583e+02
170             	3.15324044e+02
171             	3.15361747e+02
172             	3.15386872e+02
173             	3.15396792e+02
174             	3.15384341e+02
175             	3.15378695e+02
176             	3.15375203e+02
177             	3.15380549e+02
178             	3.15398506e+02
179             	3.15428303e+02
180             	3.15469934e+02
181             	3.15510179e+02
182             	3.15558498e+02
183             	3.15612823e+02
184             	3.15679574e+02
185             	3.15729150e+02
186             	3.15759531e+02
187             	3.15773391e+02
188             	3.15776271e+02
189             	3.15780917e+02
190             	3.15800127e+02
191             	3.15829282e+02
192             	3.15860775e+02
193             	3.15889991e+02
194             	3.15921125e+02
195             	3.15951342e+02
196             	3.15982746e+02
197             	3.16015298e+02
198             	3.16047375e+02
199             	3.16078639e+02
200             	3.16110537e+02
201             	3.16135505e+02
202             	3.16160643e+02
203             	3.16182333e+02
204             	3.16196812e+02
205             	3.16202956e+02
206             	3.16211222e+02
207             	3.16217070e+02
208             	3.16211851e+02
209             	3.16214126e+02
210             	3.16225465e+02
211             	3.16242611e+02
212             	3.16266958e+02
213             	3.16296579e+02
214             	3.16328381e+02
215             	3.16354910e+02
216             	3.16396575e+02
217             	3.16430938e+02
218             	3.16457535e+02
219             	3.16478960e+02
220             	3.16493264e+02
221             	3.16507157e+02
222             	3.16516530e+02
223             	3.16507872e+02
224             	3.16498750e+02
225             	3.16488536e+02
226             	3.16485122e+02
227             	3.16486306e+02
228             	3.16498643e+02
229             	3.16522928e+02
230             	3.16554181e+02
231             	3.16589418e+02
232             	3.16627607e+02
233             	3.16660077e+02
234             	3.16695833e+02
235             	3.16737220e+02
236             	3.16769176e+02
237             	3.16794680e+02
238             	3.16810096e+02
239             	3.16814858e+02
240             	3.16807800e+02
241             	3.16796180e+02
242             	3.16795651e+02
243             	3.16800120e+02
244             	3.16807110e+02
245             	3.16823283e+02
246             	3.16843939e+02
247             	3.16865790e+02
248             	3.16888871e+02
249             	3.16912084e+02
250             	3.16934244e+02
251             	3.16956714e+02
252             	3.16979916e+02
253             	3.17002311e+02
254             	3.17030256e+02
255             	3.17053924e+02
256             	3.17070073e+02
257             	3.17071900e+02
258             	3.17063395e+02
259             	3.17050931e+02
260             	3.17044577e+02
261             	3.17049909e+02
262             	3.17063061e+02
263             	3.17077610e+02
264             	3.17094777e+02
265             	3.17118720e+02
266             	3.17141446e+02
267             	3.17160027e+02
268             	3.17177180e+02
269             	3.17193424e+02
270             	3.17209665e+02
271             	3.17226050e+02
272             	3.17246952e+02
273             	3.17261658e+02
274             	3.17282525e+02
275             	3.17305596e+02
276             	3.17329378e+02
277             	3.17348914e+02
278             	3.17371026e+02
279             	3.17389513e+02
280             	3.17408113e+02
281             	3.17405758e+02
282             	3.17382413e+02
283             	3.17363517e+02
284             	3.17350339e+02
285             	3.17342118e+02
286             	3.17341169e+02
287             	3.17349172e+02
288             	3.17365083e+02
289             	3.17385993e+02
290             	3.17409459e+02
291             	3.17434096e+02
292             	3.17459382e+02
293             	3.17484286e+02
294             	3.17504477e+02
295             	3.17524572e+02
296             	3.17541017e+02
297             	3.17554220e+02
298             	3.17569308e+02
299             	3.17582912e+02
300             	3.17589001e+02
301             	3.17586902e+02
302             	3.17579025e+02
303             	3.17575718e+02
304             	3.17575665e+02
305             	3.17578493e+02
306             	3.17584342e+02
307             	3.17593158e+02
308             	3.17604173e+02
309             	3.17615818e+02
310             	3.17626252e+02
311             	3.17638885e+02
312             	3.17652983e+02
313             	3.17669198e+02
314             	3.17686882e+02
315             	3.17704265e+02
316             	3.17718101e+02
317             	3.17734105e+02
318             	3.17751545e+02
319             	3.17769469e+02
320             	3.17777231e+02
321             	3.17775023e+02
322             	3.17760284e+02
323             	3.17731461e+02
324             	3.17701179e+02
325             	3.17683166e+02
326             	3.17673228e+02
327             	3.17670981e+02
328             	3.17675920e+02
329             	3.17685595e+02
330             	3.17698006e+02
331             	3.17711765e+02
332             	3.17722279e+02
333             	3.17742854e+02
334             	3.17758285e+02
335             	3.17759448e+02
336             	3.17740372e+02
337             	3.17722590e+02
338             	3.17706881e+02
339             	3.17691975e+02
340             	3.17679415e+02
341             	3.17669934e+02
342             	3.17663788e+02
343             	3.17655835e+02
344             	3.17656101e+02
345             	3.17660516e+02
346             	3.17673730e+02
347             	3.17688207e+02
348             	3.17701836e+02
349             	3.17721960e+02
350             	3.17733240e+02
351             	3.17745832e+02
352             	3.17756220e+02
353             	3.17762993e+02
354             	3.17768984e+02
355             	3.17772035e+02
356             	3.17767216e+02
357             	3.17758499e+02
358             	3.17743132e+02
359             	3.17719569e+02
360             	3.17704497e+02
361             	3.17694527e+02
362             	3.17691918e+02
363             	3.17687627e+02
364             	3.17688686e+02
365             	3.17702357e+02
366             	3.17721497e+02
367             	3.17736134e+02
368             	3.17751465e+02
369             	3.17766613e+02
370             	3.17780627e+02
371             	3.17792199e+02
372             	3.17801812e+02
373             	3.17809427e+02
374             	3.17813278e+02
375             	3.17819560e+02
376             	3.17820485e+02
377             	3.17819141e+02
378             	3.17811287e+02
379             	3.17806174e+02
380             	3.17802183e+02
381             	3.17794928e+02
382             	3.17789032e+02
383             	3.17785857e+02
384             	3.17781175e+02
385             	3.17780417e+02
386             	3.17783208e+02
387             	3.17787713e+02
388             	3.17791832e+02
389             	3.17795719e+02
390             	3.17799301e+02
391             	3.17802745e+02
392             	3.17805323e+02
393             	3.17807614e+02
394             	3.17809361e+02
395             	3.17810168e+02
396             	3.17810400e+02
397             	3.17809854e+02
398             	3.17808802e+02
399             	3.17807576e+02
400             	3.17806240e+02
401             	3.17805117e+02
402             	3.17806144e+02
403             	3.17807752e+02
404             	3.17809708e+02
405             	3.17812144e+02
406             	3.17813376e+02
407             	3.17815039e+02
408             	3.17816384e+02
409             	3.17817045e+02
410             	3.17816369e+02
411             	3.17813929e+02
412             	3.17811603e+02
413             	3.17808828e+02
414             	3.17807189e+02
415             	3.17807027e+02
416             	3.17808280e+02
417             	3.17810410e+02
418             	3.17813007e+02
419             	3.17815927e+02
420             	3.17819027e+02
421             	3.17822242e+02
422             	3.17825817e+02
423             	3.17829193e+02
424             	3.17832500e+02
425             	3.17835841e+02
426             	3.17839566e+02
427             	3.17843885e+02
428             	3.17848672e+02
429             	3.17853881e+02
430             	3.17858292e+02
431             	3.17862135e+02
432             	3.17865365e+02
433             	3.17868037e+02
434             	3.17870237e+02
435             	3.17870693e+02
436             	3.17872251e+02
437             	3.17873015e+02
438             	3.17872616e+02
439             	3.17866431e+02
440             	3.17863657e+02
441             	3.17863806e+02
442             	3.17865502e+02
443             	3.17868379e+02
444             	3.17872177e+02
445             	3.17876899e+02
446             	3.17881502e+02
447             	3.17885773e+02
448             	3.17889764e+02
449             	3.17893775e+02
450             	3.17897285e+02
451             	3.17900060e+02
452             	3.17902333e+02
453             	3.17904328e+02
454             	3.17906067e+02
455             	3.17907881e+02
456             	3.17910214e+02
457             	3.17912425e+02
458             	3.17913748e+02
459             	3.17913728e+02
460             	3.17913908e+02
461             	3.17914400e+02
462             	3.17915153e+02
463             	3.17916255e+02
464             	3.17917716e+02
465             	3.17919636e+02
466             	3.17922260e+02
467             	3.17925285e+02
468             	3.17928225e+02
469             	3.17931351e+02
470             	3.17935067e+02
471             	3.17939065e+02
472             	3.17943274e+02
473             	3.17947566e+02
474             	3.17951785e+02
475             	3.17955592e+02
476             	3.17958947e+02
477             	3.17961862e+02
478             	3.17964413e+02
479             	3.17966693e+02
480             	3.17968698e+02
481             	3.17970302e+02
482             	3.17971604e+02
483             	3.17972730e+02
484             	3.17973749e+02
485             	3.17974814e+02
486             	3.17975726e+02
487             	3.17976609e+02
488             	3.17977486e+02
489             	3.17978145e+02
490             	3.17978782e+02
491             	3.17980062e+02
492             	3.17981817e+02
493             	3.17983891e+02
494             	3.17986227e+02
495             	3.17988721e+02
496             	3.17991330e+02
497             	3.17994118e+02
498             	3.17997165e+02
499             	3.18000390e+02
500             	3.18003755e+02
501             	3.18006768e+02
502             	3.18009077e+02
503             	3.18010089e+02
504             	3.18009877e+02
505             	3.18009085e+02
506             	3.18008823e+02
507             	3.18008467e+02
508             	3.18008812e+02
509             	3.18009831e+02
510             	3.18011356e+02
511             	3.18013761e+02
512             	3.18016650e+02
513             	3.18018603e+02
514             	3.18019498e+02
515             	3.18019820e+02
516             	3.18019326e+02
517             	3.18018923e+02
518             	3.18018645e+02
519             	3.18017622e+02
520             	3.18017539e+02
521             	3.18018355e+02
522             	3.18019825e+02
523             	3.18021595e+02
524             	3.18023916e+02
525             	3.18026446e+02
526             	3.18028592e+02
527             	3.18030472e+02
528             	3.18032035e+02
529             	3.18033557e+02
530             	3.18035357e+02
531             	3.18037524e+02
532             	3.18039330e+02
533             	3.18040846e+02
534             	3.18042247e+02
535             	3.18043538e+02
536             	3.18044607e+02
537             	3.18045372e+02
538             	3.18045997e+02
539             	3.18046487e+02
540             	3.18046325e+02
541             	3.18045605e+02
542             	3.18044560e+02
543             	3.18043253e+02
544             	3.18041750e+02
545             	3.18039742e+02
546             	3.18037694e+02
547             	3.18036448e+02
548             	3.18035795e+02
549             	3.18035346e+02
550             	3.18035279e+02
551             	3.18035696e+02
552             	3.18036718e+02
553             	3.18038184e+02
554             	3.18039883e+02
555             	3.18041665e+02
556             	3.18043492e+02
557             	3.18045437e+02
558             	3.18047287e+02
559             	3.18049316e+02
560             	3.18051137e+02
561             	3.18053113e+02
562             	3.18055175e+02
563             	3.18056494e+02
564             	3.18056795e+02
565             	3.18056906e+02
566             	3.18056578e+02
567             	3.18056365e+02
568             	3.18056228e+02
569             	3.18056268e+02
570             	3.18056467e+02
571             	3.18056916e+02
572             	3.18057610e+02
573             	3.18058493e+02
574             	3.18059521e+02
575             	3.18060645e+02
576             	3.18061681e+02
577             	3.18062725e+02
578             	3.18063819e+02
579             	3.18064853e+02
580             	3.18065854e+02
581             	3.18066759e+02
582             	3.18067546e+02
583             	3.18068201e+02
584             	3.18068651e+02
585             	3.18068817e+02
586             	3.18068744e+02
587             	3.18068511e+02
588             	3.18068128e+02
589             	3.18067737e+02
590             	3.18067418e+02
591             	3.18067543e+02
592             	3.18068004e+02
593             	3.18068791e+02
594             	3.18069718e+02
595             	3.18070894e+02
596             	3.18072499e+02
597             	3.18074764e+02
598             	3.18076449e+02
599             	3.18077391e+02
600             	3.18077938e+02
601             	3.18077648e+02
602             	3.18077379e+02
603             	3.18077127e+02
604             	3.18076677e+02
605             	3.18076160e+02
606             	3.18075649e+02
607             	3.18075358e+02
608             	3.18075187e+02
609             	3.18075063e+02
610             	3.18074840e+02
611             	3.18074885e+02
612             	3.18075225e+02
613             	3.18075544e+02
614             	3.18075842e+02
615             	3.18076206e+02
616             	3.18076608e+02
617             	3.18077039e+02
618             	3.18077768e+02
619             	3.18078603e+02
620             	3.18079795e+02
621             	3.18080782e+02
