# Region        : cellZone component_4
# Cells         : 134
# Volume        : 2.38823361e-01
# Time          	volAverage(T)
1               	3.00428324e+02
2               	3.00850946e+02
3               	3.01244738e+02
4               	3.01618839e+02
5               	3.01981361e+02
6               	3.02335207e+02
7               	3.02682093e+02
8               	3.03022890e+02
9               	3.03358760e+02
10              	3.03690800e+02
11              	3.04020444e+02
12              	3.04352192e+02
13              	3.04674019e+02
14              	3.04986103e+02
15              	3.05286178e+02
16              	3.05579131e+02
17              	3.05864416e+02
18              	3.06143398e+02
19              	3.06417019e+02
20              	3.06683600e+02
21              	3.06943684e+02
22              	3.07201567e+02
23              	3.07456869e+02
24              	3.07707146e+02
25              	3.07954701e+02
26              	3.08206217e+02
27              	3.08466587e+02
28              	3.08725621e+02
29              	3.08972957e+02
30              	3.09217498e+02
31              	3.09461140e+02
32              	3.09694675e+02
33              	3.09920398e+02
34              	3.10139780e+02
35              	3.10351953e+02
36              	3.10557966e+02
37              	3.10756033e+02
38              	3.10950138e+02
39              	3.11140631e+02
40              	3.11325668e+02
41              	3.11511588e+02
42              	3.11697480e+02
43              	3.11889614e+02
44              	3.12084566e+02
45              	3.12281817e+02
46              	3.12481252e+02
47              	3.12680646e+02
48              	3.12872204e+02
49              	3.13052960e+02
50              	3.13237448e+02
51              	3.13421675e+02
52              	3.13604535e+02
53              	3.13785200e+02
54              	3.13959099e+02
55              	3.14131862e+02
56              	3.14293327e+02
57              	3.14447635e+02
58              	3.14593375e+02
59              	3.14731998e+02
60              	3.14869055e+02
61              	3.15012995e+02
62              	3.15160717e+02
63              	3.15308955e+02
64              	3.15463069e+02
65              	3.15609537e+02
66              	3.15753453e+02
67              	3.15897802e+02
68              	3.16037059e+02
69              	3.16167531e+02
70              	3.16287919e+02
71              	3.16402894e+02
72              	3.16511210e+02
73              	3.16616165e+02
74              	3.16717071e+02
75              	3.16816596e+02
76              	3.16917770e+02
77              	3.17025425e+02
78              	3.17136169e+02
79              	3.17249008e+02
80              	3.17364074e+02
81              	3.17477758e+02
82              	3.17591932e+02
83              	3.17704385e+02
84              	3.17819944e+02
85              	3.17936089e+02
86              	3.18048620e+02
87              	3.18154052e+02
88              	3.18253366e+02
89              	3.18344269e+02
90              	3.18421237e+02
91              	3.18488227e+02
92              	3.18550375e+02
93              	3.18610751e+02
94              	3.18687274e+02
95              	3.18744232e+02
96              	3.18763170e+02
97              	3.18769218e+02
98              	3.18796499e+02
99              	3.18825146e+02
100             	3.18849714e+02
101             	3.18871149e+02
102             	3.18892073e+02
103             	3.18915043e+02
104             	3.18940776e+02
105             	3.18972973e+02
106             	3.19008876e+02
107             	3.19047356e+02
108             	3.19096283e+02
109             	3.19141924e+02
110             	3.19185586e+02
111             	3.19231781e+02
112             	3.19276228e+02
113             	3.19314941e+02
114             	3.19346750e+02
115             	3.19373759e+02
116             	3.19395102e+02
117             	3.19419118e+02
118             	3.19446209e+02
119             	3.19479246e+02
120             	3.19517141e+02
121             	3.19561648e+02
122             	3.19601774e+02
123             	3.19632495e+02
124             	3.19666704e+02
125             	3.19696805e+02
126             	3.19721514e+02
127             	3.19737229e+02
128             	3.19747736e+02
129             	3.19756563e+02
130             	3.19773110e+02
131             	3.19798263e+02
132             	3.19832881e+02
133             	3.19885199e+02
134             	3.19929027e+02
135             	3.19947059e+02
136             	3.19968071e+02
137             	3.19991928e+02
138             	3.20016316e+02
139             	3.20035025e+02
140             	3.20040948e+02
141             	3.20042711e+02
142             	3.20044784e+02
143             	3.20055734e+02
144             	3.20080240e+02
145             	3.20121830e+02
146             	3.20138805e+02
147             	3.20122396e+02
148             	3.20111838e+02
149             	3.20107623e+02
150             	3.20100895e+02
151             	3.20087730e+02
152             	3.20067935e+02
153             	3.20047449e+02
154             	3.20035655e+02
155             	3.20035711e+02
156             	3.20052123e+02
157             	3.20078922e+02
158             	3.20073152e+02
159             	3.20042912e+02
160             	3.20015576e+02
161             	3.20009657e+02
162             	3.20000005e+02
163             	3.19980992e+02
164             	3.19955128e+02
165             	3.19925091e+02
166             	3.19900489e+02
167             	3.19888842e+02
168             	3.19893634e+02
169             	3.19917656e+02
170             	3.19885313e+02
171             	3.19799213e+02
172             	3.19680572e+02
173             	3.19602413e+02
174             	3.19574161e+02
175             	3.19542591e+02
176             	3.19500448e+02
177             	3.19466487e+02
178             	3.19441801e+02
179             	3.19420350e+02
180             	3.19404726e+02
181             	3.19397104e+02
182             	3.19403637e+02
183             	3.19424244e+02
184             	3.19430181e+02
185             	3.19434183e+02
186             	3.19434838e+02
187             	3.19444123e+02
188             	3.19443456e+02
189             	3.19436433e+02
190             	3.19422667e+02
191             	3.19416602e+02
192             	3.19414352e+02
193             	3.19426163e+02
194             	3.19472221e+02
195             	3.19480722e+02
196             	3.19437486e+02
197             	3.19379765e+02
198             	3.19353747e+02
199             	3.19336010e+02
200             	3.19315892e+02
201             	3.19296299e+02
202             	3.19280322e+02
203             	3.19273528e+02
204             	3.19279933e+02
205             	3.19305018e+02
206             	3.19346829e+02
207             	3.19358490e+02
208             	3.19350018e+02
209             	3.19345258e+02
210             	3.19345959e+02
211             	3.19351080e+02
212             	3.19350509e+02
213             	3.19341691e+02
214             	3.19325588e+02
215             	3.19311096e+02
216             	3.19306695e+02
217             	3.19318430e+02
218             	3.19349774e+02
219             	3.19366788e+02
220             	3.19344163e+02
221             	3.19302154e+02
222             	3.19274305e+02
223             	3.19260441e+02
224             	3.19258230e+02
225             	3.19256022e+02
226             	3.19248431e+02
227             	3.19236007e+02
228             	3.19226206e+02
229             	3.19225989e+02
230             	3.19234542e+02
231             	3.19259093e+02
232             	3.19295511e+02
233             	3.19319374e+02
234             	3.19329609e+02
235             	3.19334115e+02
236             	3.19337131e+02
237             	3.19339762e+02
238             	3.19336102e+02
239             	3.19326905e+02
240             	3.19320557e+02
241             	3.19321297e+02
242             	3.19338278e+02
243             	3.19377065e+02
244             	3.19411124e+02
245             	3.19449383e+02
246             	3.19484455e+02
247             	3.19526003e+02
248             	3.19560406e+02
249             	3.19585902e+02
250             	3.19599536e+02
251             	3.19609135e+02
252             	3.19618164e+02
253             	3.19635635e+02
254             	3.19660266e+02
255             	3.19689595e+02
256             	3.19728655e+02
257             	3.19775246e+02
258             	3.19819690e+02
259             	3.19862434e+02
260             	3.19903182e+02
261             	3.19935729e+02
262             	3.19960888e+02
263             	3.19972070e+02
264             	3.19984776e+02
265             	3.19996234e+02
266             	3.20014669e+02
267             	3.20041985e+02
268             	3.20082335e+02
269             	3.20119514e+02
270             	3.20167264e+02
271             	3.20210800e+02
272             	3.20254583e+02
273             	3.20290445e+02
274             	3.20316993e+02
275             	3.20329579e+02
276             	3.20337407e+02
277             	3.20344955e+02
278             	3.20361230e+02
279             	3.20388428e+02
280             	3.20433063e+02
281             	3.20439499e+02
282             	3.20421927e+02
283             	3.20407222e+02
284             	3.20406484e+02
285             	3.20403311e+02
286             	3.20392704e+02
287             	3.20377354e+02
288             	3.20354875e+02
289             	3.20338758e+02
290             	3.20332649e+02
291             	3.20337976e+02
292             	3.20369779e+02
293             	3.20357957e+02
294             	3.20322965e+02
295             	3.20288902e+02
296             	3.20269531e+02
297             	3.20254680e+02
298             	3.20233274e+02
299             	3.20204463e+02
300             	3.20181947e+02
301             	3.20163711e+02
302             	3.20169247e+02
303             	3.20197339e+02
304             	3.20185416e+02
305             	3.20145562e+02
306             	3.20098732e+02
307             	3.20057951e+02
308             	3.20038190e+02
309             	3.20015207e+02
310             	3.19981488e+02
311             	3.19941128e+02
312             	3.19901178e+02
313             	3.19873155e+02
314             	3.19858451e+02
315             	3.19851208e+02
316             	3.19874024e+02
317             	3.19877528e+02
318             	3.19857529e+02
319             	3.19818682e+02
320             	3.19786363e+02
321             	3.19756845e+02
322             	3.19721795e+02
323             	3.19676740e+02
324             	3.19635194e+02
325             	3.19594679e+02
326             	3.19569278e+02
327             	3.19555149e+02
328             	3.19548277e+02
329             	3.19559272e+02
330             	3.19563255e+02
331             	3.19533230e+02
332             	3.19497051e+02
333             	3.19461296e+02
334             	3.19440787e+02
335             	3.19423400e+02
336             	3.19407637e+02
337             	3.19391043e+02
338             	3.19375050e+02
339             	3.19360003e+02
340             	3.19352927e+02
341             	3.19354782e+02
342             	3.19365825e+02
343             	3.19398913e+02
344             	3.19399477e+02
345             	3.19382806e+02
346             	3.19362217e+02
347             	3.19348163e+02
348             	3.19337985e+02
349             	3.19328933e+02
350             	3.19322042e+02
351             	3.19316081e+02
352             	3.19315359e+02
353             	3.19321251e+02
354             	3.19330010e+02
355             	3.19346171e+02
356             	3.19363983e+02
357             	3.19392356e+02
358             	3.19433738e+02
359             	3.19481408e+02
360             	3.19532818e+02
361             	3.19580615e+02
362             	3.19624491e+02
363             	3.19665019e+02
364             	3.19700997e+02
365             	3.19733822e+02
366             	3.19763701e+02
367             	3.19793470e+02
368             	3.19826135e+02
369             	3.19861771e+02
370             	3.19901955e+02
371             	3.19947292e+02
372             	3.19997787e+02
373             	3.20052394e+02
374             	3.20109185e+02
375             	3.20167481e+02
376             	3.20224875e+02
377             	3.20281041e+02
378             	3.20335401e+02
379             	3.20387694e+02
380             	3.20437684e+02
381             	3.20486020e+02
382             	3.20533240e+02
383             	3.20578717e+02
384             	3.20623600e+02
385             	3.20667224e+02
386             	3.20710255e+02
387             	3.20751953e+02
388             	3.20790784e+02
389             	3.20827937e+02
390             	3.20865016e+02
391             	3.20903957e+02
392             	3.20945298e+02
393             	3.20989677e+02
394             	3.21031756e+02
395             	3.21076114e+02
396             	3.21119523e+02
397             	3.21161982e+02
398             	3.21204806e+02
399             	3.21246770e+02
400             	3.21287490e+02
401             	3.21326937e+02
402             	3.21365559e+02
403             	3.21400074e+02
404             	3.21432647e+02
405             	3.21465466e+02
406             	3.21499231e+02
407             	3.21536441e+02
408             	3.21573953e+02
409             	3.21613700e+02
410             	3.21652573e+02
411             	3.21693402e+02
412             	3.21738848e+02
413             	3.21786885e+02
414             	3.21836073e+02
415             	3.21885141e+02
416             	3.21935223e+02
417             	3.21983098e+02
418             	3.22027821e+02
419             	3.22070780e+02
420             	3.22108882e+02
421             	3.22142893e+02
422             	3.22174097e+02
423             	3.22201572e+02
424             	3.22227916e+02
425             	3.22253137e+02
426             	3.22277067e+02
427             	3.22304846e+02
428             	3.22333178e+02
429             	3.22365248e+02
430             	3.22399232e+02
431             	3.22433695e+02
432             	3.22467381e+02
433             	3.22501030e+02
434             	3.22534398e+02
435             	3.22569392e+02
436             	3.22602374e+02
437             	3.22636013e+02
438             	3.22668166e+02
439             	3.22699056e+02
440             	3.22727351e+02
441             	3.22755008e+02
442             	3.22782467e+02
443             	3.22808342e+02
444             	3.22834508e+02
445             	3.22861045e+02
446             	3.22888695e+02
447             	3.22916785e+02
448             	3.22946569e+02
449             	3.22975903e+02
450             	3.23004674e+02
451             	3.23032917e+02
452             	3.23059465e+02
453             	3.23083564e+02
454             	3.23105971e+02
455             	3.23127363e+02
456             	3.23148221e+02
457             	3.23169546e+02
458             	3.23188274e+02
459             	3.23207395e+02
460             	3.23227731e+02
461             	3.23249430e+02
462             	3.23272703e+02
463             	3.23299828e+02
464             	3.23328110e+02
465             	3.23355932e+02
466             	3.23382747e+02
467             	3.23408028e+02
468             	3.23434006e+02
469             	3.23459155e+02
470             	3.23482277e+02
471             	3.23502925e+02
472             	3.23520376e+02
473             	3.23535488e+02
474             	3.23549847e+02
475             	3.23562769e+02
476             	3.23571986e+02
477             	3.23581053e+02
478             	3.23589624e+02
479             	3.23601243e+02
480             	3.23613988e+02
481             	3.23629542e+02
482             	3.23645233e+02
483             	3.23661407e+02
484             	3.23675626e+02
485             	3.23691338e+02
486             	3.23706495e+02
487             	3.23721992e+02
488             	3.23737347e+02
489             	3.23751745e+02
490             	3.23762546e+02
491             	3.23774193e+02
492             	3.23783605e+02
493             	3.23794313e+02
494             	3.23806278e+02
495             	3.23819907e+02
496             	3.23833968e+02
497             	3.23846817e+02
498             	3.23859698e+02
499             	3.23871966e+02
500             	3.23885047e+02
501             	3.23900391e+02
502             	3.23917877e+02
503             	3.23936653e+02
504             	3.23957120e+02
505             	3.23976111e+02
506             	3.23995977e+02
507             	3.24015856e+02
508             	3.24034070e+02
509             	3.24050435e+02
510             	3.24064469e+02
511             	3.24076806e+02
512             	3.24087132e+02
513             	3.24093791e+02
514             	3.24100097e+02
515             	3.24106456e+02
516             	3.24114714e+02
517             	3.24125364e+02
518             	3.24138140e+02
519             	3.24150278e+02
520             	3.24161587e+02
521             	3.24172419e+02
522             	3.24182429e+02
523             	3.24190850e+02
524             	3.24198060e+02
525             	3.24203376e+02
526             	3.24208041e+02
527             	3.24210427e+02
528             	3.24209085e+02
529             	3.24208232e+02
530             	3.24206997e+02
531             	3.24208955e+02
532             	3.24213880e+02
533             	3.24222295e+02
534             	3.24232007e+02
535             	3.24240892e+02
536             	3.24247424e+02
537             	3.24253761e+02
538             	3.24259378e+02
539             	3.24265228e+02
540             	3.24270018e+02
541             	3.24274208e+02
542             	3.24277593e+02
543             	3.24280585e+02
544             	3.24283778e+02
545             	3.24288303e+02
546             	3.24294182e+02
547             	3.24301904e+02
548             	3.24311482e+02
549             	3.24320321e+02
550             	3.24330973e+02
551             	3.24341177e+02
552             	3.24350908e+02
553             	3.24359542e+02
554             	3.24367300e+02
555             	3.24372474e+02
556             	3.24376893e+02
557             	3.24381073e+02
558             	3.24382417e+02
559             	3.24383206e+02
560             	3.24382842e+02
561             	3.24383500e+02
562             	3.24385199e+02
563             	3.24387753e+02
564             	3.24391663e+02
565             	3.24396557e+02
566             	3.24401897e+02
567             	3.24406753e+02
568             	3.24410781e+02
569             	3.24415078e+02
570             	3.24419510e+02
571             	3.24423296e+02
572             	3.24426327e+02
573             	3.24428861e+02
574             	3.24430844e+02
575             	3.24432205e+02
576             	3.24433354e+02
577             	3.24434711e+02
578             	3.24436666e+02
579             	3.24438933e+02
580             	3.24442020e+02
581             	3.24446357e+02
582             	3.24452358e+02
583             	3.24459779e+02
584             	3.24469140e+02
585             	3.24478687e+02
586             	3.24488141e+02
587             	3.24497330e+02
588             	3.24506055e+02
589             	3.24514412e+02
590             	3.24521863e+02
591             	3.24529442e+02
592             	3.24536627e+02
593             	3.24543099e+02
594             	3.24547715e+02
595             	3.24551379e+02
596             	3.24553939e+02
597             	3.24554154e+02
598             	3.24554014e+02
599             	3.24553904e+02
600             	3.24554712e+02
601             	3.24555792e+02
602             	3.24556755e+02
603             	3.24558948e+02
604             	3.24562487e+02
605             	3.24566013e+02
606             	3.24569140e+02
607             	3.24571701e+02
608             	3.24574285e+02
609             	3.24575730e+02
610             	3.24576616e+02
611             	3.24575690e+02
612             	3.24572969e+02
613             	3.24570249e+02
614             	3.24568097e+02
615             	3.24567548e+02
616             	3.24569059e+02
617             	3.24571976e+02
618             	3.24575928e+02
619             	3.24580731e+02
620             	3.24586070e+02
621             	3.24592238e+02
