# Region        : cellZone component_2
# Cells         : 104
# Volume        : 1.79089329e-01
# Time          	volAverage(T)
1               	3.01246847e+02
2               	3.02455547e+02
3               	3.03399557e+02
4               	3.04171143e+02
5               	3.04892371e+02
6               	3.05600367e+02
7               	3.06285526e+02
8               	3.06941058e+02
9               	3.07570941e+02
10              	3.08180614e+02
11              	3.08759700e+02
12              	3.09329412e+02
13              	3.09895732e+02
14              	3.10457935e+02
15              	3.11002852e+02
16              	3.11521559e+02
17              	3.12002582e+02
18              	3.12444482e+02
19              	3.12852284e+02
20              	3.13229168e+02
21              	3.13591576e+02
22              	3.13932720e+02
23              	3.14259144e+02
24              	3.14559945e+02
25              	3.14833754e+02
26              	3.15092347e+02
27              	3.15341551e+02
28              	3.15592616e+02
29              	3.15855989e+02
30              	3.16117234e+02
31              	3.16377514e+02
32              	3.16632763e+02
33              	3.16855605e+02
34              	3.17074850e+02
35              	3.17270016e+02
36              	3.17445312e+02
37              	3.17597341e+02
38              	3.17734254e+02
39              	3.17862776e+02
40              	3.17979756e+02
41              	3.18099213e+02
42              	3.18220083e+02
43              	3.18344134e+02
44              	3.18474030e+02
45              	3.18604419e+02
46              	3.18748132e+02
47              	3.18885255e+02
48              	3.19017314e+02
49              	3.19135585e+02
50              	3.19224817e+02
51              	3.19285914e+02
52              	3.19331754e+02
53              	3.19381952e+02
54              	3.19441307e+02
55              	3.19496449e+02
56              	3.19533388e+02
57              	3.19562381e+02
58              	3.19609884e+02
59              	3.19667733e+02
60              	3.19746873e+02
61              	3.19819596e+02
62              	3.19874354e+02
63              	3.19924726e+02
64              	3.19979318e+02
65              	3.20033735e+02
66              	3.20073881e+02
67              	3.20094436e+02
68              	3.20116024e+02
69              	3.20139898e+02
70              	3.20168763e+02
71              	3.20204706e+02
72              	3.20228507e+02
73              	3.20232907e+02
74              	3.20233558e+02
75              	3.20241773e+02
76              	3.20251048e+02
77              	3.20258805e+02
78              	3.20273505e+02
79              	3.20314322e+02
80              	3.20373079e+02
81              	3.20436740e+02
82              	3.20495165e+02
83              	3.20555136e+02
84              	3.20607398e+02
85              	3.20644841e+02
86              	3.20670811e+02
87              	3.20697392e+02
88              	3.20722746e+02
89              	3.20749443e+02
90              	3.20767090e+02
91              	3.20796090e+02
92              	3.20847182e+02
93              	3.20901015e+02
94              	3.20954851e+02
95              	3.21000028e+02
96              	3.21048845e+02
97              	3.21092572e+02
98              	3.21120491e+02
99              	3.21127154e+02
100             	3.21131667e+02
101             	3.21140584e+02
102             	3.21143264e+02
103             	3.21159349e+02
104             	3.21191122e+02
105             	3.21225169e+02
106             	3.21247735e+02
107             	3.21279766e+02
108             	3.21313670e+02
109             	3.21348485e+02
110             	3.21375567e+02
111             	3.21385640e+02
112             	3.21383761e+02
113             	3.21377657e+02
114             	3.21375483e+02
115             	3.21372930e+02
116             	3.21384372e+02
117             	3.21389579e+02
118             	3.21398734e+02
119             	3.21415778e+02
120             	3.21444264e+02
121             	3.21476498e+02
122             	3.21500393e+02
123             	3.21513992e+02
124             	3.21520136e+02
125             	3.21509274e+02
126             	3.21500716e+02
127             	3.21499521e+02
128             	3.21499947e+02
129             	3.21495524e+02
130             	3.21497515e+02
131             	3.21502809e+02
132             	3.21527365e+02
133             	3.21556571e+02
134             	3.21590384e+02
135             	3.21614425e+02
136             	3.21612811e+02
137             	3.21607860e+02
138             	3.21604595e+02
139             	3.21601858e+02
140             	3.21598643e+02
141             	3.21595857e+02
142             	3.21594793e+02
143             	3.21597152e+02
144             	3.21608644e+02
145             	3.21627673e+02
146             	3.21646305e+02
147             	3.21669471e+02
148             	3.21693710e+02
149             	3.21715493e+02
150             	3.21730851e+02
151             	3.21746270e+02
152             	3.21758072e+02
153             	3.21769915e+02
154             	3.21765962e+02
155             	3.21769663e+02
156             	3.21772984e+02
157             	3.21785726e+02
158             	3.21803196e+02
159             	3.21820057e+02
160             	3.21838174e+02
161             	3.21854623e+02
162             	3.21876900e+02
163             	3.21896640e+02
164             	3.21913656e+02
165             	3.21913689e+02
166             	3.21921910e+02
167             	3.21916951e+02
168             	3.21924946e+02
169             	3.21932054e+02
170             	3.21942220e+02
171             	3.21957529e+02
172             	3.21972824e+02
173             	3.21989127e+02
174             	3.22003568e+02
175             	3.22018051e+02
176             	3.22032330e+02
177             	3.22034201e+02
178             	3.22044170e+02
179             	3.22045941e+02
180             	3.22055912e+02
181             	3.22059534e+02
182             	3.22068817e+02
183             	3.22074129e+02
184             	3.22082088e+02
185             	3.22096046e+02
186             	3.22109330e+02
187             	3.22122445e+02
188             	3.22135646e+02
189             	3.22149181e+02
190             	3.22161071e+02
191             	3.22173863e+02
192             	3.22180074e+02
193             	3.22178177e+02
194             	3.22184454e+02
195             	3.22194889e+02
196             	3.22203563e+02
197             	3.22211020e+02
198             	3.22217634e+02
199             	3.22228454e+02
200             	3.22239568e+02
201             	3.22248042e+02
202             	3.22257265e+02
203             	3.22265958e+02
204             	3.22273824e+02
205             	3.22281571e+02
206             	3.22287068e+02
207             	3.22291996e+02
208             	3.22296611e+02
209             	3.22301354e+02
210             	3.22307016e+02
211             	3.22313828e+02
212             	3.22324275e+02
213             	3.22334542e+02
214             	3.22341643e+02
215             	3.22348651e+02
216             	3.22357070e+02
217             	3.22369340e+02
218             	3.22379211e+02
219             	3.22388110e+02
220             	3.22395636e+02
221             	3.22400599e+02
222             	3.22404645e+02
223             	3.22409530e+02
224             	3.22413794e+02
225             	3.22417451e+02
226             	3.22420734e+02
227             	3.22424498e+02
228             	3.22429075e+02
229             	3.22432778e+02
230             	3.22436599e+02
231             	3.22441575e+02
232             	3.22445035e+02
233             	3.22446656e+02
234             	3.22447366e+02
235             	3.22448164e+02
236             	3.22449859e+02
237             	3.22452362e+02
238             	3.22455033e+02
239             	3.22456999e+02
240             	3.22459731e+02
241             	3.22461795e+02
242             	3.22464794e+02
243             	3.22468065e+02
244             	3.22470201e+02
245             	3.22472229e+02
246             	3.22474519e+02
247             	3.22476150e+02
248             	3.22477177e+02
249             	3.22477450e+02
250             	3.22478578e+02
251             	3.22480960e+02
252             	3.22481644e+02
253             	3.22482229e+02
254             	3.22483782e+02
255             	3.22486039e+02
256             	3.22488561e+02
257             	3.22491678e+02
258             	3.22494821e+02
259             	3.22497731e+02
260             	3.22500277e+02
261             	3.22503101e+02
262             	3.22505537e+02
263             	3.22507511e+02
264             	3.22509416e+02
265             	3.22511644e+02
266             	3.22514095e+02
267             	3.22516237e+02
268             	3.22516981e+02
269             	3.22518796e+02
270             	3.22521133e+02
271             	3.22522899e+02
272             	3.22524241e+02
273             	3.22525335e+02
274             	3.22526658e+02
275             	3.22528030e+02
276             	3.22529288e+02
277             	3.22530696e+02
278             	3.22532763e+02
279             	3.22534360e+02
280             	3.22535061e+02
281             	3.22535423e+02
282             	3.22535728e+02
283             	3.22536537e+02
284             	3.22536764e+02
285             	3.22537036e+02
286             	3.22537150e+02
287             	3.22536435e+02
288             	3.22536478e+02
289             	3.22536913e+02
290             	3.22537121e+02
291             	3.22537379e+02
292             	3.22538094e+02
293             	3.22538680e+02
294             	3.22539376e+02
295             	3.22540482e+02
296             	3.22541627e+02
297             	3.22541943e+02
298             	3.22542417e+02
299             	3.22542553e+02
300             	3.22542811e+02
301             	3.22543163e+02
302             	3.22544553e+02
303             	3.22545310e+02
304             	3.22546087e+02
305             	3.22545953e+02
306             	3.22545878e+02
307             	3.22545805e+02
308             	3.22545444e+02
309             	3.22545143e+02
310             	3.22545387e+02
311             	3.22546150e+02
312             	3.22546499e+02
313             	3.22546632e+02
314             	3.22547441e+02
315             	3.22548252e+02
316             	3.22548830e+02
317             	3.22548734e+02
318             	3.22548803e+02
319             	3.22549616e+02
320             	3.22550027e+02
321             	3.22550168e+02
322             	3.22550516e+02
323             	3.22551081e+02
324             	3.22551472e+02
325             	3.22551762e+02
326             	3.22552125e+02
327             	3.22552378e+02
328             	3.22552274e+02
329             	3.22552330e+02
330             	3.22552273e+02
331             	3.22552418e+02
332             	3.22552624e+02
333             	3.22552489e+02
334             	3.22552533e+02
335             	3.22552740e+02
336             	3.22552949e+02
337             	3.22552996e+02
338             	3.22553389e+02
339             	3.22553702e+02
340             	3.22554056e+02
341             	3.22554610e+02
342             	3.22555337e+02
343             	3.22555648e+02
344             	3.22556062e+02
345             	3.22556402e+02
346             	3.22556893e+02
347             	3.22557257e+02
348             	3.22557292e+02
349             	3.22557307e+02
350             	3.22557622e+02
351             	3.22557907e+02
352             	3.22557988e+02
353             	3.22557798e+02
354             	3.22557817e+02
355             	3.22558135e+02
356             	3.22558405e+02
357             	3.22558528e+02
358             	3.22558800e+02
359             	3.22559134e+02
360             	3.22559441e+02
361             	3.22559477e+02
362             	3.22559451e+02
363             	3.22559424e+02
364             	3.22559455e+02
365             	3.22559111e+02
366             	3.22558896e+02
367             	3.22558635e+02
368             	3.22558662e+02
369             	3.22559006e+02
370             	3.22559305e+02
371             	3.22559529e+02
372             	3.22559790e+02
373             	3.22560033e+02
374             	3.22560575e+02
375             	3.22560666e+02
376             	3.22560736e+02
377             	3.22560659e+02
378             	3.22560944e+02
379             	3.22561194e+02
380             	3.22561092e+02
381             	3.22561067e+02
382             	3.22561427e+02
383             	3.22561655e+02
384             	3.22561737e+02
385             	3.22561747e+02
386             	3.22562279e+02
387             	3.22562612e+02
388             	3.22562674e+02
389             	3.22562769e+02
390             	3.22562872e+02
391             	3.22562941e+02
392             	3.22562626e+02
393             	3.22562314e+02
394             	3.22562321e+02
395             	3.22562459e+02
396             	3.22562547e+02
397             	3.22562546e+02
398             	3.22562656e+02
399             	3.22562950e+02
400             	3.22563145e+02
401             	3.22563042e+02
402             	3.22563120e+02
403             	3.22563069e+02
404             	3.22563002e+02
405             	3.22562841e+02
406             	3.22562784e+02
407             	3.22562671e+02
408             	3.22562638e+02
409             	3.22562550e+02
410             	3.22562716e+02
411             	3.22562835e+02
412             	3.22562874e+02
413             	3.22563007e+02
414             	3.22563260e+02
415             	3.22563222e+02
416             	3.22563083e+02
417             	3.22562869e+02
418             	3.22562938e+02
419             	3.22562793e+02
420             	3.22562513e+02
421             	3.22562264e+02
422             	3.22562310e+02
423             	3.22562235e+02
424             	3.22562146e+02
425             	3.22562160e+02
426             	3.22562420e+02
427             	3.22562582e+02
428             	3.22562536e+02
429             	3.22562455e+02
430             	3.22562637e+02
431             	3.22562661e+02
432             	3.22562547e+02
433             	3.22562430e+02
434             	3.22562542e+02
435             	3.22562597e+02
436             	3.22562524e+02
437             	3.22562498e+02
438             	3.22562727e+02
439             	3.22562906e+02
440             	3.22562925e+02
441             	3.22562937e+02
442             	3.22563152e+02
443             	3.22563247e+02
444             	3.22563183e+02
445             	3.22563109e+02
446             	3.22563227e+02
447             	3.22563276e+02
448             	3.22563194e+02
449             	3.22563109e+02
450             	3.22563242e+02
451             	3.22563320e+02
452             	3.22563277e+02
453             	3.22563232e+02
454             	3.22563420e+02
455             	3.22563507e+02
456             	3.22563448e+02
457             	3.22563402e+02
458             	3.22563556e+02
459             	3.22563632e+02
460             	3.22563559e+02
461             	3.22563484e+02
462             	3.22563623e+02
463             	3.22563694e+02
464             	3.22563635e+02
465             	3.22563597e+02
466             	3.22563766e+02
467             	3.22563850e+02
468             	3.22563794e+02
469             	3.22563744e+02
470             	3.22563900e+02
471             	3.22563935e+02
472             	3.22563779e+02
473             	3.22563675e+02
474             	3.22563798e+02
475             	3.22563840e+02
476             	3.22563710e+02
477             	3.22563572e+02
478             	3.22563654e+02
479             	3.22563667e+02
480             	3.22563547e+02
481             	3.22563448e+02
482             	3.22563582e+02
483             	3.22563638e+02
484             	3.22563569e+02
485             	3.22563513e+02
486             	3.22563675e+02
487             	3.22563751e+02
488             	3.22563675e+02
489             	3.22563601e+02
490             	3.22563737e+02
491             	3.22563818e+02
492             	3.22563684e+02
493             	3.22563578e+02
494             	3.22563706e+02
495             	3.22563751e+02
496             	3.22563651e+02
497             	3.22563562e+02
498             	3.22563651e+02
499             	3.22563670e+02
500             	3.22563549e+02
501             	3.22563501e+02
502             	3.22563674e+02
503             	3.22563752e+02
504             	3.22563654e+02
505             	3.22563596e+02
506             	3.22563752e+02
507             	3.22563806e+02
508             	3.22563692e+02
509             	3.22563587e+02
510             	3.22563711e+02
511             	3.22563758e+02
512             	3.22563685e+02
513             	3.22563605e+02
514             	3.22563745e+02
515             	3.22563811e+02
516             	3.22563729e+02
517             	3.22563653e+02
518             	3.22563782e+02
519             	3.22563821e+02
520             	3.22563722e+02
521             	3.22563645e+02
522             	3.22563769e+02
523             	3.22563812e+02
524             	3.22563741e+02
525             	3.22563658e+02
526             	3.22563783e+02
527             	3.22563837e+02
528             	3.22563744e+02
529             	3.22563668e+02
530             	3.22563803e+02
531             	3.22563873e+02
532             	3.22563795e+02
533             	3.22563734e+02
534             	3.22563891e+02
535             	3.22563962e+02
536             	3.22563867e+02
537             	3.22563771e+02
538             	3.22563893e+02
539             	3.22563938e+02
540             	3.22563829e+02
541             	3.22563726e+02
542             	3.22563835e+02
543             	3.22563868e+02
544             	3.22563762e+02
545             	3.22563663e+02
546             	3.22563791e+02
547             	3.22563833e+02
548             	3.22563720e+02
549             	3.22563616e+02
550             	3.22563731e+02
551             	3.22563770e+02
552             	3.22563661e+02
553             	3.22563560e+02
554             	3.22563675e+02
555             	3.22563714e+02
556             	3.22563619e+02
557             	3.22563542e+02
558             	3.22563682e+02
559             	3.22563749e+02
560             	3.22563684e+02
561             	3.22563621e+02
562             	3.22563779e+02
563             	3.22563853e+02
564             	3.22563779e+02
565             	3.22563712e+02
566             	3.22563849e+02
567             	3.22563898e+02
568             	3.22563798e+02
569             	3.22563709e+02
570             	3.22563827e+02
571             	3.22563866e+02
572             	3.22563759e+02
573             	3.22563669e+02
574             	3.22563784e+02
575             	3.22563823e+02
576             	3.22563726e+02
577             	3.22563640e+02
578             	3.22563759e+02
579             	3.22563804e+02
580             	3.22563704e+02
581             	3.22563624e+02
582             	3.22563750e+02
583             	3.22563803e+02
584             	3.22563714e+02
585             	3.22563639e+02
586             	3.22563766e+02
587             	3.22563824e+02
588             	3.22563738e+02
589             	3.22563662e+02
590             	3.22563787e+02
591             	3.22563840e+02
592             	3.22563754e+02
593             	3.22563678e+02
594             	3.22563805e+02
595             	3.22563860e+02
596             	3.22563767e+02
597             	3.22563686e+02
598             	3.22563805e+02
599             	3.22563854e+02
600             	3.22563759e+02
601             	3.22563674e+02
602             	3.22563786e+02
603             	3.22563826e+02
604             	3.22563724e+02
605             	3.22563635e+02
606             	3.22563746e+02
607             	3.22563780e+02
608             	3.22563687e+02
609             	3.22563611e+02
610             	3.22563669e+02
611             	3.22563946e+02
612             	3.22564110e+02
613             	3.22564059e+02
614             	3.22563971e+02
615             	3.22563997e+02
616             	3.22564227e+02
617             	3.22564348e+02
618             	3.22564262e+02
619             	3.22564131e+02
620             	3.22564078e+02
621             	3.22564158e+02
