# Region        : cellZone component_1
# Cells         : 116
# Volume        : 2.33381089e-01
# Time          	volAverage(T)
1               	3.00516709e+02
2               	3.01030122e+02
3               	3.01473126e+02
4               	3.01863140e+02
5               	3.02238008e+02
6               	3.02606215e+02
7               	3.02967202e+02
8               	3.03321420e+02
9               	3.03670042e+02
10              	3.04010844e+02
11              	3.04341225e+02
12              	3.04661518e+02
13              	3.04969131e+02
14              	3.05261357e+02
15              	3.05542669e+02
16              	3.05805782e+02
17              	3.06070363e+02
18              	3.06331099e+02
19              	3.06584375e+02
20              	3.06819900e+02
21              	3.07047378e+02
22              	3.07259572e+02
23              	3.07467211e+02
24              	3.07688540e+02
25              	3.07916007e+02
26              	3.08143262e+02
27              	3.08370247e+02
28              	3.08591554e+02
29              	3.08798830e+02
30              	3.08995591e+02
31              	3.09171542e+02
32              	3.09337053e+02
33              	3.09497089e+02
34              	3.09646034e+02
35              	3.09809104e+02
36              	3.09907428e+02
37              	3.09936061e+02
38              	3.09957033e+02
39              	3.09992651e+02
40              	3.10046497e+02
41              	3.10145392e+02
42              	3.10259630e+02
43              	3.10371588e+02
44              	3.10478324e+02
45              	3.10571325e+02
46              	3.10658259e+02
47              	3.10740644e+02
48              	3.10811471e+02
49              	3.10874209e+02
50              	3.10926311e+02
51              	3.10971040e+02
52              	3.11018911e+02
53              	3.11065156e+02
54              	3.11115211e+02
55              	3.11170881e+02
56              	3.11228833e+02
57              	3.11278739e+02
58              	3.11318296e+02
59              	3.11340829e+02
60              	3.11362520e+02
61              	3.11400164e+02
62              	3.11443929e+02
63              	3.11479842e+02
64              	3.11507686e+02
65              	3.11529670e+02
66              	3.11541676e+02
67              	3.11551138e+02
68              	3.11559072e+02
69              	3.11560471e+02
70              	3.11560686e+02
71              	3.11560398e+02
72              	3.11565982e+02
73              	3.11572279e+02
74              	3.11584106e+02
75              	3.11593422e+02
76              	3.11590318e+02
77              	3.11586057e+02
78              	3.11586065e+02
79              	3.11591404e+02
80              	3.11598016e+02
81              	3.11604029e+02
82              	3.11609048e+02
83              	3.11613107e+02
84              	3.11616309e+02
85              	3.11618975e+02
86              	3.11620996e+02
87              	3.11622859e+02
88              	3.11624661e+02
89              	3.11626351e+02
90              	3.11627960e+02
91              	3.11629516e+02
92              	3.11630291e+02
93              	3.11630504e+02
94              	3.11629492e+02
95              	3.11628620e+02
96              	3.11627669e+02
97              	3.11627024e+02
98              	3.11626678e+02
99              	3.11626605e+02
100             	3.11627034e+02
101             	3.11627494e+02
102             	3.11628064e+02
103             	3.11629116e+02
104             	3.11629903e+02
105             	3.11630391e+02
106             	3.11630471e+02
107             	3.11630274e+02
108             	3.11629935e+02
109             	3.11629537e+02
110             	3.11629176e+02
111             	3.11629012e+02
112             	3.11628950e+02
113             	3.11628546e+02
114             	3.11627823e+02
115             	3.11626889e+02
116             	3.11625817e+02
117             	3.11624719e+02
118             	3.11623782e+02
119             	3.11622982e+02
120             	3.11622259e+02
121             	3.11621677e+02
122             	3.11621310e+02
123             	3.11621266e+02
124             	3.11621466e+02
125             	3.11621891e+02
126             	3.11622460e+02
127             	3.11622889e+02
128             	3.11623279e+02
129             	3.11623667e+02
130             	3.11623930e+02
131             	3.11624039e+02
132             	3.11624120e+02
133             	3.11624356e+02
134             	3.11624763e+02
135             	3.11625547e+02
136             	3.11626856e+02
137             	3.11628667e+02
138             	3.11630837e+02
139             	3.11633297e+02
140             	3.11636032e+02
141             	3.11638940e+02
142             	3.11641664e+02
143             	3.11644402e+02
144             	3.11647092e+02
145             	3.11649626e+02
146             	3.11651947e+02
147             	3.11654114e+02
148             	3.11656138e+02
149             	3.11657948e+02
150             	3.11659609e+02
151             	3.11661101e+02
152             	3.11662324e+02
153             	3.11663249e+02
154             	3.11663943e+02
155             	3.11664474e+02
156             	3.11664877e+02
157             	3.11665211e+02
158             	3.11665457e+02
159             	3.11665790e+02
160             	3.11666472e+02
161             	3.11667465e+02
162             	3.11668691e+02
163             	3.11670086e+02
164             	3.11671559e+02
165             	3.11673146e+02
166             	3.11674800e+02
167             	3.11676402e+02
168             	3.11677812e+02
169             	3.11678942e+02
170             	3.11679829e+02
171             	3.11680456e+02
172             	3.11680873e+02
173             	3.11681174e+02
174             	3.11681441e+02
175             	3.11681724e+02
176             	3.11682059e+02
177             	3.11682854e+02
178             	3.11684027e+02
179             	3.11685444e+02
180             	3.11686989e+02
181             	3.11688570e+02
182             	3.11690058e+02
183             	3.11691411e+02
184             	3.11692650e+02
185             	3.11693760e+02
186             	3.11694663e+02
187             	3.11695315e+02
188             	3.11695806e+02
189             	3.11696195e+02
190             	3.11696452e+02
191             	3.11696555e+02
192             	3.11696519e+02
193             	3.11696389e+02
194             	3.11696294e+02
195             	3.11696355e+02
196             	3.11696571e+02
197             	3.11696880e+02
198             	3.11697267e+02
199             	3.11697773e+02
200             	3.11698296e+02
201             	3.11698790e+02
202             	3.11699190e+02
203             	3.11699459e+02
204             	3.11699584e+02
205             	3.11699570e+02
206             	3.11699486e+02
207             	3.11699406e+02
208             	3.11699361e+02
209             	3.11699391e+02
210             	3.11699530e+02
211             	3.11699793e+02
212             	3.11700176e+02
213             	3.11700687e+02
214             	3.11701373e+02
215             	3.11702246e+02
216             	3.11703323e+02
217             	3.11704557e+02
218             	3.11705951e+02
219             	3.11707561e+02
220             	3.11709376e+02
221             	3.11711375e+02
222             	3.11713518e+02
223             	3.11715646e+02
224             	3.11717679e+02
225             	3.11719696e+02
226             	3.11721574e+02
227             	3.11723278e+02
228             	3.11724807e+02
229             	3.11726161e+02
230             	3.11727339e+02
231             	3.11728344e+02
232             	3.11729184e+02
233             	3.11729867e+02
234             	3.11730384e+02
235             	3.11705558e+02
236             	3.11673982e+02
237             	3.11649165e+02
238             	3.11633216e+02
239             	3.11622138e+02
240             	3.11612129e+02
241             	3.11601573e+02
242             	3.11589185e+02
243             	3.11574269e+02
244             	3.11556185e+02
245             	3.11534749e+02
246             	3.11511033e+02
247             	3.11485263e+02
248             	3.11458925e+02
249             	3.11432737e+02
250             	3.11407554e+02
251             	3.11384157e+02
252             	3.11363273e+02
253             	3.11345605e+02
254             	3.11331489e+02
255             	3.11321298e+02
256             	3.11314974e+02
257             	3.11311710e+02
258             	3.11311833e+02
259             	3.11314974e+02
260             	3.11321078e+02
261             	3.11329713e+02
262             	3.11340442e+02
263             	3.11352980e+02
264             	3.11366839e+02
265             	3.11381270e+02
266             	3.11396034e+02
267             	3.11410601e+02
268             	3.11425012e+02
269             	3.11438259e+02
270             	3.11450313e+02
271             	3.11460925e+02
272             	3.11470936e+02
273             	3.11480359e+02
274             	3.11490007e+02
275             	3.11500090e+02
276             	3.11510412e+02
277             	3.11521145e+02
278             	3.11532517e+02
279             	3.11544624e+02
280             	3.11557531e+02
281             	3.11571248e+02
282             	3.11585856e+02
283             	3.11600677e+02
284             	3.11615921e+02
285             	3.11631763e+02
286             	3.11647555e+02
287             	3.11663049e+02
288             	3.11678113e+02
289             	3.11693361e+02
290             	3.11707837e+02
291             	3.11721504e+02
292             	3.11734496e+02
293             	3.11746763e+02
294             	3.11758384e+02
295             	3.11769483e+02
296             	3.11780226e+02
297             	3.11790824e+02
298             	3.11800866e+02
299             	3.11809478e+02
300             	3.11818089e+02
301             	3.11826719e+02
302             	3.11835105e+02
303             	3.11843157e+02
304             	3.11851095e+02
305             	3.11858831e+02
306             	3.11866223e+02
307             	3.11873270e+02
308             	3.11879953e+02
309             	3.11886185e+02
310             	3.11892492e+02
311             	3.11897995e+02
312             	3.11902954e+02
313             	3.11907628e+02
314             	3.11912016e+02
315             	3.11916064e+02
316             	3.11919636e+02
317             	3.11923154e+02
318             	3.11926321e+02
319             	3.11929232e+02
320             	3.11932317e+02
321             	3.11935886e+02
322             	3.11939934e+02
323             	3.11944656e+02
324             	3.11950009e+02
325             	3.11956055e+02
326             	3.11962619e+02
327             	3.11969677e+02
328             	3.11977081e+02
329             	3.11984914e+02
330             	3.11992742e+02
331             	3.12000548e+02
332             	3.12007682e+02
333             	3.12014242e+02
334             	3.12020444e+02
335             	3.12026355e+02
336             	3.12032150e+02
337             	3.12037785e+02
338             	3.12044195e+02
339             	3.12050439e+02
340             	3.12056357e+02
341             	3.12061954e+02
342             	3.12067339e+02
343             	3.12072608e+02
344             	3.12077788e+02
345             	3.12082816e+02
346             	3.12087780e+02
347             	3.12092639e+02
348             	3.12097419e+02
349             	3.12102116e+02
350             	3.12106718e+02
351             	3.12111220e+02
352             	3.12115601e+02
353             	3.12119880e+02
354             	3.12124065e+02
355             	3.12128161e+02
356             	3.12132190e+02
357             	3.12136123e+02
358             	3.12140006e+02
359             	3.12143809e+02
360             	3.12147481e+02
361             	3.12151023e+02
362             	3.12154428e+02
363             	3.12157677e+02
364             	3.12160744e+02
365             	3.12163602e+02
366             	3.12166193e+02
367             	3.12168530e+02
368             	3.12170626e+02
369             	3.12172458e+02
370             	3.12174072e+02
371             	3.12175470e+02
372             	3.12176655e+02
373             	3.12177649e+02
374             	3.12178503e+02
375             	3.12179289e+02
376             	3.12180008e+02
377             	3.12180683e+02
378             	3.12181360e+02
379             	3.12182057e+02
380             	3.12182790e+02
381             	3.12183575e+02
382             	3.12184384e+02
383             	3.12185210e+02
384             	3.12186105e+02
385             	3.12187075e+02
386             	3.12188125e+02
387             	3.12189280e+02
388             	3.12190515e+02
389             	3.12191849e+02
390             	3.12193254e+02
391             	3.12194716e+02
392             	3.12196224e+02
393             	3.12197760e+02
394             	3.12199299e+02
395             	3.12200812e+02
396             	3.12202275e+02
397             	3.12203668e+02
398             	3.12204984e+02
399             	3.12206219e+02
400             	3.12207383e+02
401             	3.12208478e+02
402             	3.12209488e+02
403             	3.12210408e+02
404             	3.12211243e+02
405             	3.12211978e+02
406             	3.12212620e+02
407             	3.12213170e+02
408             	3.12213654e+02
409             	3.12214098e+02
410             	3.12214513e+02
411             	3.12214903e+02
412             	3.12215275e+02
413             	3.12215634e+02
414             	3.12215979e+02
415             	3.12216313e+02
416             	3.12216636e+02
417             	3.12216947e+02
418             	3.12217241e+02
419             	3.12217518e+02
420             	3.12217772e+02
421             	3.12218002e+02
422             	3.12218206e+02
423             	3.12218385e+02
424             	3.12218526e+02
425             	3.12218623e+02
426             	3.12218692e+02
427             	3.12218731e+02
428             	3.12218743e+02
429             	3.12218745e+02
430             	3.12218761e+02
431             	3.12218803e+02
432             	3.12218877e+02
433             	3.12219003e+02
434             	3.12219200e+02
435             	3.12219484e+02
436             	3.12219861e+02
437             	3.12220341e+02
438             	3.12220926e+02
439             	3.12221618e+02
440             	3.12222412e+02
441             	3.12223304e+02
442             	3.12224278e+02
443             	3.12225324e+02
444             	3.12226424e+02
445             	3.12227553e+02
446             	3.12228686e+02
447             	3.12229792e+02
448             	3.12230835e+02
449             	3.12231794e+02
450             	3.12232664e+02
451             	3.12233421e+02
452             	3.12234042e+02
453             	3.12234520e+02
454             	3.12234844e+02
455             	3.12235024e+02
456             	3.12235073e+02
457             	3.12234958e+02
458             	3.12234675e+02
459             	3.12234231e+02
460             	3.12233641e+02
461             	3.12232924e+02
462             	3.12232058e+02
463             	3.12231079e+02
464             	3.12230025e+02
465             	3.12228959e+02
466             	3.12227879e+02
467             	3.12226775e+02
468             	3.12225663e+02
469             	3.12224568e+02
470             	3.12223515e+02
471             	3.12222523e+02
472             	3.12221600e+02
473             	3.12220743e+02
474             	3.12219970e+02
475             	3.12219290e+02
476             	3.12218719e+02
477             	3.12218265e+02
478             	3.12217922e+02
479             	3.12217694e+02
480             	3.12217592e+02
481             	3.12217618e+02
482             	3.12217769e+02
483             	3.12218061e+02
484             	3.12218522e+02
485             	3.12219140e+02
486             	3.12219907e+02
487             	3.12220829e+02
488             	3.12221819e+02
489             	3.12222867e+02
490             	3.12223975e+02
491             	3.12225123e+02
492             	3.12226230e+02
493             	3.12227315e+02
494             	3.12228344e+02
495             	3.12229308e+02
496             	3.12230200e+02
497             	3.12230996e+02
498             	3.12231679e+02
499             	3.12232248e+02
500             	3.12232703e+02
501             	3.12233044e+02
502             	3.12233285e+02
503             	3.12233438e+02
504             	3.12233495e+02
505             	3.12233459e+02
506             	3.12233340e+02
507             	3.12233143e+02
508             	3.12232849e+02
509             	3.12232499e+02
510             	3.12232130e+02
511             	3.12231746e+02
512             	3.12231351e+02
513             	3.12230971e+02
514             	3.12230620e+02
515             	3.12230335e+02
516             	3.12230143e+02
517             	3.12230020e+02
518             	3.12229958e+02
519             	3.12229954e+02
520             	3.12229995e+02
521             	3.12230058e+02
522             	3.12230124e+02
523             	3.12230190e+02
524             	3.12230251e+02
525             	3.12230292e+02
526             	3.12230305e+02
527             	3.12230273e+02
528             	3.12230188e+02
529             	3.12230050e+02
530             	3.12229864e+02
531             	3.12229642e+02
532             	3.12229395e+02
533             	3.12229132e+02
534             	3.12228856e+02
535             	3.12228616e+02
536             	3.12228415e+02
537             	3.12228239e+02
538             	3.12228075e+02
539             	3.12227937e+02
540             	3.12227841e+02
541             	3.12227786e+02
542             	3.12227765e+02
543             	3.12227773e+02
544             	3.12227788e+02
545             	3.12227791e+02
546             	3.12227785e+02
547             	3.12227756e+02
548             	3.12227695e+02
549             	3.12227612e+02
550             	3.12227511e+02
551             	3.12227397e+02
552             	3.12227274e+02
553             	3.12227154e+02
554             	3.12227056e+02
555             	3.12226991e+02
556             	3.12226953e+02
557             	3.12226940e+02
558             	3.12226978e+02
559             	3.12227069e+02
560             	3.12227210e+02
561             	3.12227411e+02
562             	3.12227677e+02
563             	3.12228013e+02
564             	3.12228420e+02
565             	3.12228901e+02
566             	3.12229464e+02
567             	3.12230114e+02
568             	3.12230854e+02
569             	3.12231685e+02
570             	3.12232598e+02
571             	3.12233586e+02
572             	3.12234639e+02
573             	3.12235746e+02
574             	3.12236893e+02
575             	3.12238063e+02
576             	3.12239232e+02
577             	3.12240379e+02
578             	3.12241483e+02
579             	3.12242516e+02
580             	3.12243449e+02
581             	3.12244254e+02
582             	3.12244906e+02
583             	3.12245404e+02
584             	3.12245729e+02
585             	3.12245836e+02
586             	3.12245693e+02
587             	3.12245293e+02
588             	3.12244651e+02
589             	3.12243787e+02
590             	3.12242724e+02
591             	3.12241455e+02
592             	3.12240021e+02
593             	3.12238470e+02
594             	3.12236813e+02
595             	3.12235066e+02
596             	3.12233261e+02
597             	3.12231436e+02
598             	3.12229651e+02
599             	3.12228006e+02
600             	3.12226488e+02
601             	3.12225104e+02
602             	3.12223877e+02
603             	3.12222819e+02
604             	3.12221932e+02
605             	3.12221236e+02
606             	3.12220753e+02
607             	3.12220491e+02
608             	3.12220474e+02
609             	3.12220668e+02
610             	3.12221079e+02
611             	3.12221702e+02
612             	3.12222542e+02
613             	3.12223548e+02
614             	3.12224670e+02
615             	3.12225871e+02
616             	3.12227034e+02
617             	3.12228167e+02
618             	3.12229298e+02
619             	3.12230412e+02
620             	3.12231459e+02
621             	3.12232457e+02
