# Region        : cellZone component_1
# Cells         : 94
# Volume        : 1.43315205e-01
# Time          	volAverage(T)
1               	3.00659618e+02
2               	3.01312134e+02
3               	3.01915377e+02
4               	3.02487251e+02
5               	3.03041175e+02
6               	3.03582235e+02
7               	3.04113990e+02
8               	3.04638019e+02
9               	3.05154776e+02
10              	3.05666957e+02
11              	3.06161827e+02
12              	3.06638566e+02
13              	3.07103441e+02
14              	3.07550021e+02
15              	3.07982093e+02
16              	3.08394118e+02
17              	3.08794352e+02
18              	3.09190172e+02
19              	3.09587419e+02
20              	3.09983303e+02
21              	3.10375605e+02
22              	3.10766888e+02
23              	3.11147724e+02
24              	3.11520708e+02
25              	3.11894973e+02
26              	3.12258937e+02
27              	3.12617424e+02
28              	3.12954011e+02
29              	3.13276857e+02
30              	3.13632382e+02
31              	3.13994433e+02
32              	3.14356704e+02
33              	3.14717158e+02
34              	3.15076398e+02
35              	3.15429951e+02
36              	3.15783285e+02
37              	3.16138760e+02
38              	3.16484210e+02
39              	3.16830330e+02
40              	3.17172590e+02
41              	3.17516364e+02
42              	3.17854725e+02
43              	3.18188021e+02
44              	3.18515139e+02
45              	3.18814876e+02
46              	3.19117959e+02
47              	3.19424863e+02
48              	3.19721362e+02
49              	3.20011212e+02
50              	3.20273811e+02
51              	3.20514694e+02
52              	3.20731399e+02
53              	3.20899224e+02
54              	3.21065581e+02
55              	3.21244747e+02
56              	3.21424747e+02
57              	3.21610500e+02
58              	3.21801268e+02
59              	3.21986905e+02
60              	3.22166007e+02
61              	3.22339876e+02
62              	3.22511939e+02
63              	3.22683469e+02
64              	3.22852240e+02
65              	3.23016222e+02
66              	3.23178057e+02
67              	3.23339593e+02
68              	3.23495296e+02
69              	3.23651282e+02
70              	3.23804991e+02
71              	3.23954875e+02
72              	3.24101367e+02
73              	3.24244057e+02
74              	3.24383587e+02
75              	3.24521334e+02
76              	3.24657723e+02
77              	3.24792678e+02
78              	3.24922531e+02
79              	3.25050582e+02
80              	3.25178497e+02
81              	3.25301009e+02
82              	3.25423833e+02
83              	3.25544425e+02
84              	3.25669997e+02
85              	3.25785380e+02
86              	3.25896122e+02
87              	3.26003911e+02
88              	3.26109998e+02
89              	3.26214483e+02
90              	3.26316484e+02
91              	3.26417571e+02
92              	3.26515652e+02
93              	3.26612435e+02
94              	3.26707268e+02
95              	3.26799432e+02
96              	3.26888989e+02
97              	3.26976304e+02
98              	3.27060685e+02
99              	3.27143587e+02
100             	3.27226001e+02
101             	3.27307126e+02
102             	3.27386828e+02
103             	3.27464195e+02
104             	3.27540582e+02
105             	3.27615340e+02
106             	3.27689357e+02
107             	3.27761319e+02
108             	3.27831628e+02
109             	3.27901373e+02
110             	3.27969607e+02
111             	3.28037486e+02
112             	3.28103832e+02
113             	3.28170067e+02
114             	3.28244977e+02
115             	3.28337593e+02
116             	3.28448923e+02
117             	3.28576294e+02
118             	3.28715054e+02
119             	3.28859334e+02
120             	3.29005590e+02
121             	3.29150402e+02
122             	3.29291066e+02
123             	3.29425674e+02
124             	3.29553313e+02
125             	3.29675755e+02
126             	3.29791019e+02
127             	3.29904572e+02
128             	3.30017457e+02
129             	3.30130568e+02
130             	3.30244691e+02
131             	3.30361775e+02
132             	3.30488109e+02
133             	3.30626447e+02
134             	3.30776683e+02
135             	3.30934620e+02
136             	3.31097668e+02
137             	3.31264303e+02
138             	3.31433889e+02
139             	3.31600750e+02
140             	3.31760241e+02
141             	3.31915735e+02
142             	3.32066265e+02
143             	3.32213773e+02
144             	3.32358433e+02
145             	3.32500569e+02
146             	3.32641230e+02
147             	3.32779676e+02
148             	3.32916107e+02
149             	3.33050318e+02
150             	3.33181505e+02
151             	3.33309888e+02
152             	3.33435803e+02
153             	3.33559053e+02
154             	3.33680089e+02
155             	3.33799021e+02
156             	3.33916188e+02
157             	3.34032643e+02
158             	3.34147973e+02
159             	3.34263470e+02
160             	3.34376976e+02
161             	3.34490300e+02
162             	3.34601951e+02
163             	3.34710277e+02
164             	3.34816164e+02
165             	3.34919394e+02
166             	3.35019983e+02
167             	3.35118310e+02
168             	3.35214731e+02
169             	3.35309626e+02
170             	3.35403105e+02
171             	3.35494989e+02
172             	3.35585351e+02
173             	3.35674098e+02
174             	3.35761498e+02
175             	3.35847261e+02
176             	3.35931456e+02
177             	3.36013562e+02
178             	3.36093941e+02
179             	3.36173062e+02
180             	3.36250720e+02
181             	3.36325963e+02
182             	3.36400865e+02
183             	3.36475702e+02
184             	3.36549610e+02
185             	3.36622614e+02
186             	3.36694884e+02
187             	3.36766216e+02
188             	3.36836187e+02
189             	3.36905806e+02
190             	3.36973318e+02
191             	3.37039492e+02
192             	3.37104713e+02
193             	3.37169104e+02
194             	3.37232664e+02
195             	3.37295655e+02
196             	3.37358054e+02
197             	3.37419413e+02
198             	3.37481751e+02
199             	3.37543021e+02
200             	3.37603792e+02
201             	3.37663725e+02
202             	3.37722889e+02
203             	3.37781909e+02
204             	3.37840256e+02
205             	3.37898386e+02
206             	3.37956298e+02
207             	3.38013943e+02
208             	3.38071260e+02
209             	3.38128120e+02
210             	3.38184457e+02
211             	3.38240097e+02
212             	3.38294868e+02
213             	3.38348697e+02
214             	3.38401337e+02
215             	3.38452800e+02
216             	3.38503129e+02
217             	3.38552156e+02
218             	3.38600085e+02
219             	3.38646879e+02
220             	3.38692422e+02
221             	3.38736544e+02
222             	3.38779599e+02
223             	3.38821579e+02
224             	3.38862598e+02
225             	3.38902343e+02
226             	3.38941184e+02
227             	3.38979879e+02
228             	3.39017902e+02
229             	3.39055354e+02
230             	3.39092368e+02
231             	3.39128847e+02
232             	3.39165103e+02
233             	3.39201299e+02
234             	3.39237352e+02
235             	3.39272929e+02
236             	3.39308303e+02
237             	3.39343864e+02
238             	3.39378996e+02
239             	3.39414888e+02
240             	3.39450916e+02
241             	3.39487966e+02
242             	3.39526195e+02
243             	3.39565234e+02
244             	3.39605004e+02
245             	3.39645306e+02
246             	3.39685834e+02
247             	3.39726410e+02
248             	3.39766560e+02
249             	3.39805899e+02
250             	3.39844047e+02
251             	3.39880731e+02
252             	3.39915774e+02
253             	3.39928855e+02
254             	3.39922618e+02
255             	3.39895492e+02
256             	3.39843499e+02
257             	3.39765617e+02
258             	3.39660983e+02
259             	3.39529184e+02
260             	3.39369056e+02
261             	3.39182664e+02
262             	3.38973410e+02
263             	3.38745277e+02
264             	3.38499376e+02
265             	3.38238345e+02
266             	3.37966337e+02
267             	3.37686168e+02
268             	3.37401330e+02
269             	3.37122113e+02
270             	3.36841863e+02
271             	3.36568167e+02
272             	3.36306328e+02
273             	3.36058050e+02
274             	3.35825614e+02
275             	3.35606911e+02
276             	3.35400432e+02
277             	3.35216025e+02
278             	3.35048594e+02
279             	3.34896147e+02
280             	3.34757201e+02
281             	3.34632298e+02
282             	3.34521281e+02
283             	3.34421263e+02
284             	3.34328566e+02
285             	3.34243930e+02
286             	3.34167747e+02
287             	3.34097983e+02
288             	3.34031882e+02
289             	3.33967488e+02
290             	3.33903696e+02
291             	3.33840221e+02
292             	3.33774379e+02
293             	3.33704017e+02
294             	3.33627274e+02
295             	3.33545316e+02
296             	3.33456542e+02
297             	3.33360408e+02
298             	3.33257361e+02
299             	3.33148380e+02
300             	3.33033961e+02
301             	3.32916136e+02
302             	3.32793764e+02
303             	3.32667772e+02
304             	3.32538982e+02
305             	3.32409283e+02
306             	3.32279189e+02
307             	3.32149515e+02
308             	3.32020425e+02
309             	3.31892804e+02
310             	3.31766714e+02
311             	3.31642803e+02
312             	3.31522616e+02
313             	3.31407611e+02
314             	3.31294064e+02
315             	3.31184404e+02
316             	3.31081209e+02
317             	3.30982530e+02
318             	3.30888222e+02
319             	3.30793563e+02
320             	3.30704262e+02
321             	3.30614527e+02
322             	3.30527494e+02
323             	3.30443662e+02
324             	3.30362735e+02
325             	3.30283942e+02
326             	3.30206671e+02
327             	3.30131147e+02
328             	3.30057250e+02
329             	3.29985775e+02
330             	3.29917181e+02
331             	3.29847604e+02
332             	3.29779113e+02
333             	3.29711763e+02
334             	3.29645759e+02
335             	3.29581015e+02
336             	3.29515580e+02
337             	3.29453273e+02
338             	3.29392698e+02
339             	3.29331257e+02
340             	3.29269995e+02
341             	3.29209037e+02
342             	3.29148302e+02
343             	3.29092486e+02
344             	3.29035058e+02
345             	3.28977789e+02
346             	3.28923938e+02
347             	3.28875709e+02
348             	3.28825843e+02
349             	3.28778931e+02
350             	3.28735684e+02
351             	3.28695357e+02
352             	3.28656519e+02
353             	3.28618040e+02
354             	3.28579481e+02
355             	3.28542046e+02
356             	3.28507216e+02
357             	3.28473334e+02
358             	3.28440406e+02
359             	3.28409748e+02
360             	3.28379814e+02
361             	3.28352404e+02
362             	3.28326441e+02
363             	3.28303164e+02
364             	3.28281390e+02
365             	3.28260782e+02
366             	3.28241270e+02
367             	3.28222593e+02
368             	3.28204558e+02
369             	3.28187032e+02
370             	3.28169931e+02
371             	3.28153351e+02
372             	3.28136452e+02
373             	3.28120177e+02
374             	3.28104125e+02
375             	3.28087846e+02
376             	3.28071169e+02
377             	3.28054152e+02
378             	3.28036568e+02
379             	3.28018445e+02
380             	3.27999554e+02
381             	3.27979699e+02
382             	3.27958902e+02
383             	3.27937501e+02
384             	3.27916355e+02
385             	3.27895702e+02
386             	3.27873820e+02
387             	3.27851744e+02
388             	3.27829936e+02
389             	3.27808795e+02
390             	3.27788455e+02
391             	3.27768933e+02
392             	3.27750474e+02
393             	3.27731426e+02
394             	3.27713346e+02
395             	3.27696077e+02
396             	3.27679689e+02
397             	3.27663709e+02
398             	3.27648389e+02
399             	3.27633632e+02
400             	3.27619502e+02
401             	3.27606260e+02
402             	3.27593554e+02
403             	3.27581033e+02
404             	3.27569221e+02
405             	3.27558015e+02
406             	3.27547420e+02
407             	3.27537605e+02
408             	3.27528494e+02
409             	3.27519942e+02
410             	3.27511915e+02
411             	3.27504449e+02
412             	3.27497241e+02
413             	3.27490361e+02
414             	3.27484205e+02
415             	3.27478418e+02
416             	3.27472653e+02
417             	3.27467537e+02
418             	3.27462931e+02
419             	3.27458667e+02
420             	3.27454691e+02
421             	3.27450759e+02
422             	3.27447153e+02
423             	3.27444023e+02
424             	3.27441168e+02
425             	3.27438394e+02
426             	3.27435688e+02
427             	3.27432941e+02
428             	3.27430154e+02
429             	3.27427606e+02
430             	3.27424915e+02
431             	3.27421813e+02
432             	3.27418367e+02
433             	3.27414683e+02
434             	3.27410754e+02
435             	3.27406534e+02
436             	3.27401989e+02
437             	3.27397044e+02
438             	3.27391820e+02
439             	3.27386310e+02
440             	3.27380449e+02
441             	3.27374298e+02
442             	3.27367781e+02
443             	3.27360938e+02
444             	3.27354004e+02
445             	3.27347032e+02
446             	3.27339664e+02
447             	3.27332154e+02
448             	3.27324466e+02
449             	3.27316943e+02
450             	3.27309596e+02
451             	3.27302305e+02
452             	3.27295160e+02
453             	3.27288452e+02
454             	3.27281978e+02
455             	3.27275543e+02
456             	3.27269294e+02
457             	3.27263535e+02
458             	3.27258344e+02
459             	3.27253603e+02
460             	3.27249316e+02
461             	3.27245341e+02
462             	3.27241806e+02
463             	3.27238730e+02
464             	3.27236088e+02
465             	3.27233809e+02
466             	3.27231905e+02
467             	3.27230487e+02
468             	3.27229066e+02
469             	3.27228345e+02
470             	3.27228022e+02
471             	3.27227831e+02
472             	3.27227954e+02
473             	3.27228390e+02
474             	3.27228882e+02
475             	3.27229358e+02
476             	3.27229874e+02
477             	3.27230426e+02
478             	3.27230930e+02
479             	3.27231302e+02
480             	3.27231548e+02
481             	3.27231667e+02
482             	3.27231634e+02
483             	3.27231496e+02
484             	3.27231147e+02
485             	3.27230545e+02
486             	3.27229284e+02
487             	3.27227646e+02
488             	3.27225824e+02
489             	3.27223847e+02
490             	3.27221719e+02
491             	3.27219370e+02
492             	3.27216825e+02
493             	3.27214071e+02
494             	3.27211086e+02
495             	3.27207965e+02
496             	3.27204855e+02
497             	3.27201609e+02
498             	3.27198353e+02
499             	3.27195178e+02
500             	3.27192004e+02
501             	3.27188745e+02
502             	3.27185549e+02
503             	3.27182559e+02
504             	3.27179834e+02
505             	3.27177265e+02
506             	3.27174897e+02
507             	3.27172729e+02
508             	3.27170714e+02
509             	3.27168968e+02
510             	3.27167358e+02
511             	3.27165921e+02
512             	3.27164683e+02
513             	3.27163645e+02
514             	3.27162767e+02
515             	3.27162029e+02
516             	3.27161436e+02
517             	3.27160946e+02
518             	3.27160617e+02
519             	3.27160397e+02
520             	3.27160294e+02
521             	3.27160277e+02
522             	3.27160354e+02
523             	3.27160424e+02
524             	3.27160608e+02
525             	3.27160849e+02
526             	3.27161012e+02
527             	3.27161208e+02
528             	3.27161387e+02
529             	3.27161510e+02
530             	3.27161491e+02
531             	3.27161449e+02
532             	3.27161348e+02
533             	3.27161145e+02
534             	3.27160861e+02
535             	3.27160528e+02
536             	3.27160078e+02
537             	3.27159541e+02
538             	3.27158939e+02
539             	3.27158270e+02
540             	3.27157538e+02
541             	3.27156747e+02
542             	3.27155822e+02
543             	3.27154910e+02
544             	3.27153935e+02
545             	3.27152948e+02
546             	3.27151899e+02
547             	3.27150758e+02
548             	3.27149600e+02
549             	3.27148449e+02
550             	3.27147326e+02
551             	3.27146269e+02
552             	3.27145286e+02
553             	3.27144365e+02
554             	3.27143507e+02
555             	3.27142752e+02
556             	3.27142135e+02
557             	3.27141503e+02
558             	3.27140900e+02
559             	3.27140366e+02
560             	3.27139919e+02
561             	3.27139536e+02
562             	3.27139218e+02
563             	3.27138985e+02
564             	3.27138809e+02
565             	3.27138677e+02
566             	3.27138573e+02
567             	3.27138479e+02
568             	3.27138442e+02
569             	3.27138420e+02
570             	3.27138423e+02
571             	3.27138444e+02
572             	3.27138412e+02
573             	3.27138461e+02
574             	3.27138530e+02
575             	3.27138574e+02
576             	3.27138585e+02
577             	3.27138564e+02
578             	3.27138548e+02
579             	3.27138516e+02
580             	3.27138455e+02
581             	3.27138375e+02
582             	3.27138272e+02
583             	3.27138191e+02
584             	3.27138007e+02
585             	3.27137778e+02
586             	3.27137543e+02
587             	3.27137308e+02
588             	3.27137074e+02
589             	3.27136831e+02
590             	3.27136561e+02
591             	3.27136253e+02
592             	3.27135916e+02
593             	3.27135561e+02
594             	3.27135180e+02
595             	3.27134790e+02
596             	3.27134373e+02
597             	3.27133995e+02
598             	3.27133559e+02
599             	3.27133263e+02
600             	3.27133028e+02
601             	3.27132788e+02
602             	3.27132563e+02
603             	3.27132385e+02
604             	3.27132216e+02
605             	3.27132025e+02
606             	3.27131786e+02
607             	3.27131553e+02
608             	3.27131396e+02
609             	3.27131277e+02
610             	3.27131195e+02
611             	3.27131063e+02
612             	3.27131002e+02
613             	3.27130930e+02
614             	3.27130831e+02
615             	3.27130684e+02
616             	3.27130510e+02
617             	3.27130341e+02
618             	3.27130182e+02
619             	3.27130033e+02
620             	3.27129909e+02
621             	3.27129800e+02
