# Region        : cellZone component_3
# Cells         : 96
# Volume        : 1.61097411e-01
# Time          	volAverage(T)
1               	3.00341313e+02
2               	3.00680186e+02
3               	3.01004283e+02
4               	3.01319988e+02
5               	3.01630755e+02
6               	3.01938367e+02
7               	3.02244340e+02
8               	3.02550288e+02
9               	3.02855574e+02
10              	3.03160644e+02
11              	3.03463402e+02
12              	3.03763466e+02
13              	3.04060659e+02
14              	3.04354060e+02
15              	3.04640705e+02
16              	3.04927001e+02
17              	3.05210665e+02
18              	3.05490731e+02
19              	3.05768276e+02
20              	3.06038700e+02
21              	3.06307291e+02
22              	3.06572859e+02
23              	3.06834760e+02
24              	3.07093108e+02
25              	3.07352571e+02
26              	3.07613470e+02
27              	3.07864598e+02
28              	3.08104474e+02
29              	3.08331245e+02
30              	3.08554055e+02
31              	3.08767696e+02
32              	3.08984018e+02
33              	3.09200934e+02
34              	3.09413031e+02
35              	3.09616475e+02
36              	3.09820737e+02
37              	3.10024186e+02
38              	3.10230534e+02
39              	3.10444238e+02
40              	3.10643928e+02
41              	3.10839157e+02
42              	3.11022068e+02
43              	3.11213126e+02
44              	3.11409472e+02
45              	3.11613079e+02
46              	3.11816940e+02
47              	3.12023959e+02
48              	3.12230533e+02
49              	3.12438325e+02
50              	3.12638936e+02
51              	3.12840926e+02
52              	3.13037215e+02
53              	3.13230364e+02
54              	3.13414033e+02
55              	3.13594264e+02
56              	3.13764068e+02
57              	3.13929111e+02
58              	3.14088906e+02
59              	3.14251943e+02
60              	3.14421264e+02
61              	3.14601148e+02
62              	3.14763018e+02
63              	3.14903048e+02
64              	3.15025839e+02
65              	3.15126075e+02
66              	3.15231418e+02
67              	3.15343979e+02
68              	3.15465879e+02
69              	3.15591267e+02
70              	3.15722879e+02
71              	3.15861341e+02
72              	3.16007421e+02
73              	3.16161869e+02
74              	3.16310766e+02
75              	3.16459759e+02
76              	3.16607821e+02
77              	3.16756756e+02
78              	3.16907449e+02
79              	3.17053250e+02
80              	3.17194064e+02
81              	3.17325763e+02
82              	3.17461604e+02
83              	3.17602000e+02
84              	3.17753746e+02
85              	3.17893561e+02
86              	3.18017485e+02
87              	3.18130148e+02
88              	3.18226004e+02
89              	3.18314922e+02
90              	3.18415124e+02
91              	3.18514224e+02
92              	3.18608155e+02
93              	3.18703813e+02
94              	3.18799802e+02
95              	3.18902012e+02
96              	3.19009995e+02
97              	3.19118311e+02
98              	3.19234051e+02
99              	3.19352538e+02
100             	3.19473203e+02
101             	3.19597938e+02
102             	3.19724049e+02
103             	3.19851434e+02
104             	3.19976254e+02
105             	3.20100562e+02
106             	3.20223018e+02
107             	3.20348394e+02
108             	3.20480916e+02
109             	3.20618795e+02
110             	3.20759309e+02
111             	3.20886059e+02
112             	3.21001959e+02
113             	3.21110614e+02
114             	3.21222240e+02
115             	3.21332504e+02
116             	3.21440854e+02
117             	3.21544187e+02
118             	3.21639433e+02
119             	3.21729221e+02
120             	3.21815719e+02
121             	3.21903222e+02
122             	3.21996505e+02
123             	3.22093412e+02
124             	3.22193784e+02
125             	3.22295860e+02
126             	3.22401040e+02
127             	3.22507325e+02
128             	3.22613131e+02
129             	3.22716011e+02
130             	3.22816035e+02
131             	3.22914653e+02
132             	3.23011123e+02
133             	3.23108431e+02
134             	3.23206669e+02
135             	3.23306928e+02
136             	3.23406993e+02
137             	3.23501780e+02
138             	3.23597958e+02
139             	3.23694704e+02
140             	3.23786412e+02
141             	3.23872451e+02
142             	3.23954296e+02
143             	3.24033601e+02
144             	3.24109690e+02
145             	3.24184751e+02
146             	3.24260740e+02
147             	3.24340192e+02
148             	3.24421260e+02
149             	3.24505014e+02
150             	3.24590478e+02
151             	3.24678582e+02
152             	3.24768160e+02
153             	3.24856718e+02
154             	3.24943602e+02
155             	3.25027724e+02
156             	3.25109469e+02
157             	3.25188228e+02
158             	3.25263718e+02
159             	3.25336956e+02
160             	3.25407867e+02
161             	3.25476651e+02
162             	3.25544195e+02
163             	3.25610521e+02
164             	3.25675890e+02
165             	3.25741325e+02
166             	3.25806714e+02
167             	3.25872809e+02
168             	3.25939390e+02
169             	3.26006925e+02
170             	3.26075908e+02
171             	3.26145865e+02
172             	3.26215832e+02
173             	3.26285313e+02
174             	3.26353111e+02
175             	3.26420088e+02
176             	3.26485838e+02
177             	3.26550426e+02
178             	3.26612675e+02
179             	3.26672203e+02
180             	3.26730224e+02
181             	3.26787731e+02
182             	3.26846432e+02
183             	3.26906822e+02
184             	3.26969275e+02
185             	3.27032767e+02
186             	3.27097607e+02
187             	3.27161854e+02
188             	3.27227774e+02
189             	3.27293065e+02
190             	3.27356515e+02
191             	3.27418493e+02
192             	3.27478414e+02
193             	3.27536868e+02
194             	3.27594006e+02
195             	3.27650431e+02
196             	3.27706186e+02
197             	3.27760715e+02
198             	3.27815604e+02
199             	3.27871510e+02
200             	3.27928214e+02
201             	3.27985889e+02
202             	3.28043157e+02
203             	3.28101025e+02
204             	3.28158151e+02
205             	3.28215125e+02
206             	3.28271413e+02
207             	3.28326702e+02
208             	3.28381878e+02
209             	3.28436336e+02
210             	3.28490534e+02
211             	3.28544057e+02
212             	3.28597966e+02
213             	3.28652171e+02
214             	3.28705611e+02
215             	3.28759070e+02
216             	3.28811817e+02
217             	3.28863683e+02
218             	3.28914661e+02
219             	3.28964647e+02
220             	3.29013651e+02
221             	3.29061877e+02
222             	3.29109526e+02
223             	3.29156951e+02
224             	3.29204342e+02
225             	3.29252503e+02
226             	3.29300961e+02
227             	3.29349024e+02
228             	3.29398099e+02
229             	3.29447101e+02
230             	3.29495990e+02
231             	3.29544587e+02
232             	3.29592751e+02
233             	3.29640424e+02
234             	3.29687431e+02
235             	3.29733373e+02
236             	3.29778290e+02
237             	3.29822367e+02
238             	3.29865838e+02
239             	3.29908724e+02
240             	3.29951626e+02
241             	3.29994110e+02
242             	3.30036400e+02
243             	3.30078421e+02
244             	3.30120073e+02
245             	3.30161478e+02
246             	3.30202448e+02
247             	3.30243062e+02
248             	3.30283501e+02
249             	3.30323285e+02
250             	3.30363199e+02
251             	3.30402783e+02
252             	3.30442333e+02
253             	3.30481212e+02
254             	3.30520548e+02
255             	3.30559503e+02
256             	3.30598278e+02
257             	3.30637077e+02
258             	3.30674822e+02
259             	3.30712338e+02
260             	3.30748796e+02
261             	3.30785122e+02
262             	3.30821052e+02
263             	3.30856252e+02
264             	3.30890282e+02
265             	3.30924230e+02
266             	3.30957826e+02
267             	3.30991864e+02
268             	3.31025701e+02
269             	3.31059500e+02
270             	3.31093536e+02
271             	3.31127448e+02
272             	3.31161536e+02
273             	3.31195400e+02
274             	3.31228205e+02
275             	3.31261180e+02
276             	3.31293294e+02
277             	3.31325156e+02
278             	3.31356109e+02
279             	3.31386868e+02
280             	3.31417247e+02
281             	3.31447234e+02
282             	3.31476331e+02
283             	3.31505607e+02
284             	3.31534706e+02
285             	3.31563773e+02
286             	3.31592800e+02
287             	3.31621870e+02
288             	3.31651062e+02
289             	3.31679755e+02
290             	3.31708506e+02
291             	3.31736607e+02
292             	3.31764473e+02
293             	3.31792034e+02
294             	3.31819183e+02
295             	3.31845879e+02
296             	3.31872175e+02
297             	3.31898216e+02
298             	3.31923999e+02
299             	3.31949354e+02
300             	3.31974787e+02
301             	3.32000073e+02
302             	3.32025356e+02
303             	3.32050675e+02
304             	3.32075898e+02
305             	3.32100888e+02
306             	3.32125642e+02
307             	3.32150143e+02
308             	3.32174318e+02
309             	3.32198271e+02
310             	3.32221836e+02
311             	3.32245158e+02
312             	3.32268225e+02
313             	3.32291003e+02
314             	3.32313529e+02
315             	3.32335799e+02
316             	3.32357864e+02
317             	3.32379726e+02
318             	3.32401313e+02
319             	3.32422927e+02
320             	3.32444393e+02
321             	3.32465786e+02
322             	3.32487024e+02
323             	3.32508181e+02
324             	3.32529190e+02
325             	3.32549936e+02
326             	3.32570359e+02
327             	3.32590681e+02
328             	3.32610750e+02
329             	3.32630573e+02
330             	3.32650144e+02
331             	3.32669456e+02
332             	3.32688600e+02
333             	3.32707545e+02
334             	3.32726222e+02
335             	3.32744821e+02
336             	3.32763234e+02
337             	3.32781594e+02
338             	3.32799875e+02
339             	3.32818067e+02
340             	3.32836135e+02
341             	3.32854117e+02
342             	3.32872010e+02
343             	3.32889786e+02
344             	3.32907460e+02
345             	3.32924847e+02
346             	3.32942115e+02
347             	3.32959285e+02
348             	3.32976210e+02
349             	3.32992891e+02
350             	3.33009382e+02
351             	3.33025696e+02
352             	3.33041798e+02
353             	3.33057726e+02
354             	3.33073558e+02
355             	3.33089205e+02
356             	3.33104767e+02
357             	3.33120259e+02
358             	3.33135666e+02
359             	3.33151005e+02
360             	3.33166276e+02
361             	3.33181445e+02
362             	3.33196494e+02
363             	3.33211461e+02
364             	3.33226178e+02
365             	3.33240686e+02
366             	3.33255100e+02
367             	3.33269307e+02
368             	3.33283367e+02
369             	3.33297240e+02
370             	3.33310904e+02
371             	3.33324447e+02
372             	3.33337868e+02
373             	3.33351163e+02
374             	3.33364395e+02
375             	3.33377561e+02
376             	3.33390594e+02
377             	3.33403589e+02
378             	3.33416516e+02
379             	3.33429305e+02
380             	3.33442007e+02
381             	3.33454600e+02
382             	3.33467040e+02
383             	3.33479376e+02
384             	3.33491595e+02
385             	3.33503660e+02
386             	3.33515648e+02
387             	3.33527546e+02
388             	3.33539303e+02
389             	3.33551001e+02
390             	3.33562628e+02
391             	3.33574146e+02
392             	3.33585566e+02
393             	3.33596887e+02
394             	3.33608078e+02
395             	3.33619203e+02
396             	3.33630229e+02
397             	3.33641102e+02
398             	3.33651882e+02
399             	3.33662561e+02
400             	3.33673103e+02
401             	3.33683574e+02
402             	3.33693986e+02
403             	3.33704291e+02
404             	3.33714552e+02
405             	3.33724749e+02
406             	3.33734834e+02
407             	3.33744864e+02
408             	3.33754813e+02
409             	3.33764622e+02
410             	3.33774367e+02
411             	3.33784028e+02
412             	3.33793555e+02
413             	3.33803020e+02
414             	3.33812400e+02
415             	3.33821648e+02
416             	3.33830840e+02
417             	3.33839965e+02
418             	3.33848973e+02
419             	3.33857934e+02
420             	3.33866846e+02
421             	3.33875652e+02
422             	3.33884424e+02
423             	3.33893137e+02
424             	3.33901736e+02
425             	3.33910295e+02
426             	3.33918798e+02
427             	3.33927166e+02
428             	3.33935485e+02
429             	3.33943748e+02
430             	3.33951886e+02
431             	3.33959973e+02
432             	3.33967999e+02
433             	3.33975903e+02
434             	3.33983765e+02
435             	3.33991564e+02
436             	3.33999244e+02
437             	3.34006891e+02
438             	3.34014482e+02
439             	3.34021966e+02
440             	3.34029411e+02
441             	3.34036804e+02
442             	3.34044083e+02
443             	3.34051337e+02
444             	3.34058544e+02
445             	3.34065622e+02
446             	3.34072674e+02
447             	3.34079680e+02
448             	3.34086565e+02
449             	3.34093419e+02
450             	3.34100229e+02
451             	3.34106925e+02
452             	3.34113601e+02
453             	3.34120239e+02
454             	3.34126769e+02
455             	3.34133284e+02
456             	3.34139762e+02
457             	3.34146131e+02
458             	3.34152497e+02
459             	3.34158835e+02
460             	3.34165063e+02
461             	3.34171281e+02
462             	3.34177470e+02
463             	3.34183539e+02
464             	3.34189596e+02
465             	3.34195622e+02
466             	3.34201538e+02
467             	3.34207439e+02
468             	3.34213311e+02
469             	3.34219074e+02
470             	3.34224825e+02
471             	3.34230550e+02
472             	3.34236167e+02
473             	3.34241778e+02
474             	3.34247365e+02
475             	3.34252846e+02
476             	3.34258322e+02
477             	3.34263768e+02
478             	3.34269103e+02
479             	3.34274434e+02
480             	3.34279740e+02
481             	3.34284933e+02
482             	3.34290117e+02
483             	3.34295276e+02
484             	3.34300321e+02
485             	3.34305359e+02
486             	3.34310373e+02
487             	3.34315274e+02
488             	3.34320169e+02
489             	3.34325044e+02
490             	3.34329805e+02
491             	3.34334564e+02
492             	3.34339304e+02
493             	3.34343932e+02
494             	3.34348560e+02
495             	3.34353171e+02
496             	3.34357673e+02
497             	3.34362175e+02
498             	3.34366661e+02
499             	3.34371039e+02
500             	3.34375419e+02
501             	3.34379788e+02
502             	3.34384049e+02
503             	3.34388316e+02
504             	3.34392571e+02
505             	3.34396719e+02
506             	3.34400875e+02
507             	3.34405024e+02
508             	3.34409068e+02
509             	3.34413124e+02
510             	3.34417176e+02
511             	3.34421125e+02
512             	3.34425087e+02
513             	3.34429046e+02
514             	3.34432902e+02
515             	3.34436770e+02
516             	3.34440638e+02
517             	3.34444403e+02
518             	3.34448180e+02
519             	3.34451957e+02
520             	3.34455633e+02
521             	3.34459320e+02
522             	3.34463005e+02
523             	3.34466588e+02
524             	3.34470182e+02
525             	3.34473774e+02
526             	3.34477265e+02
527             	3.34480766e+02
528             	3.34484264e+02
529             	3.34487662e+02
530             	3.34491071e+02
531             	3.34494480e+02
532             	3.34497789e+02
533             	3.34501112e+02
534             	3.34504436e+02
535             	3.34507662e+02
536             	3.34510901e+02
537             	3.34514142e+02
538             	3.34517285e+02
539             	3.34520441e+02
540             	3.34523597e+02
541             	3.34526655e+02
542             	3.34529724e+02
543             	3.34532793e+02
544             	3.34535768e+02
545             	3.34538754e+02
546             	3.34541742e+02
547             	3.34544636e+02
548             	3.34547542e+02
549             	3.34550451e+02
550             	3.34553267e+02
551             	3.34556096e+02
552             	3.34558928e+02
553             	3.34561670e+02
554             	3.34564424e+02
555             	3.34567181e+02
556             	3.34569847e+02
557             	3.34572526e+02
558             	3.34575207e+02
559             	3.34577800e+02
560             	3.34580406e+02
561             	3.34583013e+02
562             	3.34585534e+02
563             	3.34588069e+02
564             	3.34590606e+02
565             	3.34593060e+02
566             	3.34595526e+02
567             	3.34597998e+02
568             	3.34600389e+02
569             	3.34602794e+02
570             	3.34605203e+02
571             	3.34607534e+02
572             	3.34609878e+02
573             	3.34612226e+02
574             	3.34614496e+02
575             	3.34616778e+02
576             	3.34619064e+02
577             	3.34621274e+02
578             	3.34623495e+02
579             	3.34625719e+02
580             	3.34627868e+02
581             	3.34630027e+02
582             	3.34632189e+02
583             	3.34634279e+02
584             	3.34636380e+02
585             	3.34638482e+02
586             	3.34640514e+02
587             	3.34642557e+02
588             	3.34644601e+02
589             	3.34646579e+02
590             	3.34648567e+02
591             	3.34650558e+02
592             	3.34652484e+02
593             	3.34654420e+02
594             	3.34656361e+02
595             	3.34658239e+02
596             	3.34660128e+02
597             	3.34662021e+02
598             	3.34663855e+02
599             	3.34665700e+02
600             	3.34667548e+02
601             	3.34669339e+02
602             	3.34671140e+02
603             	3.34672943e+02
604             	3.34674691e+02
605             	3.34676448e+02
606             	3.34678208e+02
607             	3.34679913e+02
608             	3.34681628e+02
609             	3.34683344e+02
610             	3.34685007e+02
611             	3.34686679e+02
612             	3.34688352e+02
613             	3.34689974e+02
614             	3.34691604e+02
615             	3.34693234e+02
616             	3.34694816e+02
617             	3.34696404e+02
618             	3.34697993e+02
619             	3.34699534e+02
620             	3.34701081e+02
621             	3.34702628e+02
