# Region        : cellZone component_3
# Cells         : 215
# Volume        : 4.14848652e-01
# Time          	volAverage(T)
1               	3.00783469e+02
2               	3.01556598e+02
3               	3.02286670e+02
4               	3.02989435e+02
5               	3.03675462e+02
6               	3.04348642e+02
7               	3.05011647e+02
8               	3.05666736e+02
9               	3.06316189e+02
10              	3.06960531e+02
11              	3.07601427e+02
12              	3.08241292e+02
13              	3.08880929e+02
14              	3.09512868e+02
15              	3.10138701e+02
16              	3.10758819e+02
17              	3.11374876e+02
18              	3.11976718e+02
19              	3.12565372e+02
20              	3.13142560e+02
21              	3.13707506e+02
22              	3.14259872e+02
23              	3.14802703e+02
24              	3.15345392e+02
25              	3.15885996e+02
26              	3.16419941e+02
27              	3.16940821e+02
28              	3.17438495e+02
29              	3.17937896e+02
30              	3.18428042e+02
31              	3.18912415e+02
32              	3.19386045e+02
33              	3.19848989e+02
34              	3.20303363e+02
35              	3.20748298e+02
36              	3.21181545e+02
37              	3.21608172e+02
38              	3.22033573e+02
39              	3.22451907e+02
40              	3.22870885e+02
41              	3.23290305e+02
42              	3.23714112e+02
43              	3.24120640e+02
44              	3.24513045e+02
45              	3.24888998e+02
46              	3.25260670e+02
47              	3.25632298e+02
48              	3.26004278e+02
49              	3.26372663e+02
50              	3.26736311e+02
51              	3.27093891e+02
52              	3.27442655e+02
53              	3.27787284e+02
54              	3.28126798e+02
55              	3.28472363e+02
56              	3.28829148e+02
57              	3.29195252e+02
58              	3.29552668e+02
59              	3.29900740e+02
60              	3.30220308e+02
61              	3.30549153e+02
62              	3.30866056e+02
63              	3.31173450e+02
64              	3.31475192e+02
65              	3.31774591e+02
66              	3.32073758e+02
67              	3.32373829e+02
68              	3.32674280e+02
69              	3.32970740e+02
70              	3.33263974e+02
71              	3.33553151e+02
72              	3.33841126e+02
73              	3.34129439e+02
74              	3.34418169e+02
75              	3.34706029e+02
76              	3.34996249e+02
77              	3.35288413e+02
78              	3.35580551e+02
79              	3.35872801e+02
80              	3.36162810e+02
81              	3.36444612e+02
82              	3.36725252e+02
83              	3.36993702e+02
84              	3.37252713e+02
85              	3.37501046e+02
86              	3.37733800e+02
87              	3.37954676e+02
88              	3.38166362e+02
89              	3.38368485e+02
90              	3.38568526e+02
91              	3.38768543e+02
92              	3.38972471e+02
93              	3.39178763e+02
94              	3.39385583e+02
95              	3.39589577e+02
96              	3.39794709e+02
97              	3.39994825e+02
98              	3.40185154e+02
99              	3.40368569e+02
100             	3.40545294e+02
101             	3.40715621e+02
102             	3.40879614e+02
103             	3.41038704e+02
104             	3.41193208e+02
105             	3.41344512e+02
106             	3.41493433e+02
107             	3.41638248e+02
108             	3.41780042e+02
109             	3.41915431e+02
110             	3.42046128e+02
111             	3.42170111e+02
112             	3.42292253e+02
113             	3.42411850e+02
114             	3.42532954e+02
115             	3.42654023e+02
116             	3.42779892e+02
117             	3.42910302e+02
118             	3.43040592e+02
119             	3.43166115e+02
120             	3.43291439e+02
121             	3.43413926e+02
122             	3.43527464e+02
123             	3.43634601e+02
124             	3.43734145e+02
125             	3.43825620e+02
126             	3.43912225e+02
127             	3.43996158e+02
128             	3.44080139e+02
129             	3.44161549e+02
130             	3.44246221e+02
131             	3.44330099e+02
132             	3.44416526e+02
133             	3.44506824e+02
134             	3.44599802e+02
135             	3.44694751e+02
136             	3.44787419e+02
137             	3.44874124e+02
138             	3.44957520e+02
139             	3.45036476e+02
140             	3.45110105e+02
141             	3.45176517e+02
142             	3.45238911e+02
143             	3.45299501e+02
144             	3.45358077e+02
145             	3.45412913e+02
146             	3.45469217e+02
147             	3.45528084e+02
148             	3.45592020e+02
149             	3.45658453e+02
150             	3.45727081e+02
151             	3.45794416e+02
152             	3.45859397e+02
153             	3.45923624e+02
154             	3.45983829e+02
155             	3.46037781e+02
156             	3.46085925e+02
157             	3.46129815e+02
158             	3.46172028e+02
159             	3.46209849e+02
160             	3.46247653e+02
161             	3.46288647e+02
162             	3.46333064e+02
163             	3.46377777e+02
164             	3.46423379e+02
165             	3.46473527e+02
166             	3.46525492e+02
167             	3.46577458e+02
168             	3.46628436e+02
169             	3.46674361e+02
170             	3.46719096e+02
171             	3.46762280e+02
172             	3.46801659e+02
173             	3.46836965e+02
174             	3.46869130e+02
175             	3.46899309e+02
176             	3.46928794e+02
177             	3.46957491e+02
178             	3.46986218e+02
179             	3.47015204e+02
180             	3.47044127e+02
181             	3.47072683e+02
182             	3.47099574e+02
183             	3.47126393e+02
184             	3.47152897e+02
185             	3.47178407e+02
186             	3.47203498e+02
187             	3.47227757e+02
188             	3.47251764e+02
189             	3.47275700e+02
190             	3.47300196e+02
191             	3.47325149e+02
192             	3.47349757e+02
193             	3.47374522e+02
194             	3.47399853e+02
195             	3.47425565e+02
196             	3.47451405e+02
197             	3.47477306e+02
198             	3.47502943e+02
199             	3.47528020e+02
200             	3.47552299e+02
201             	3.47575706e+02
202             	3.47596422e+02
203             	3.47616824e+02
204             	3.47636384e+02
205             	3.47655034e+02
206             	3.47672394e+02
207             	3.47688403e+02
208             	3.47704083e+02
209             	3.47719271e+02
210             	3.47734032e+02
211             	3.47748441e+02
212             	3.47762551e+02
213             	3.47777616e+02
214             	3.47792214e+02
215             	3.47807280e+02
216             	3.47823016e+02
217             	3.47839029e+02
218             	3.47854913e+02
219             	3.47870723e+02
220             	3.47885619e+02
221             	3.47900125e+02
222             	3.47914097e+02
223             	3.47927111e+02
224             	3.47939665e+02
225             	3.47951776e+02
226             	3.47963454e+02
227             	3.47974602e+02
228             	3.47985308e+02
229             	3.47995649e+02
230             	3.48005690e+02
231             	3.48016072e+02
232             	3.48026597e+02
233             	3.48036565e+02
234             	3.48046849e+02
235             	3.48057509e+02
236             	3.48068308e+02
237             	3.48078471e+02
238             	3.48088426e+02
239             	3.48098302e+02
240             	3.48107894e+02
241             	3.48116975e+02
242             	3.48125637e+02
243             	3.48134232e+02
244             	3.48143371e+02
245             	3.48151733e+02
246             	3.48160116e+02
247             	3.48168842e+02
248             	3.48177874e+02
249             	3.48187008e+02
250             	3.48196141e+02
251             	3.48205084e+02
252             	3.48214291e+02
253             	3.48223457e+02
254             	3.48232521e+02
255             	3.48241525e+02
256             	3.48250431e+02
257             	3.48258917e+02
258             	3.48266857e+02
259             	3.48274569e+02
260             	3.48282239e+02
261             	3.48289860e+02
262             	3.48297814e+02
263             	3.48305632e+02
264             	3.48313374e+02
265             	3.48321107e+02
266             	3.48328737e+02
267             	3.48336115e+02
268             	3.48342204e+02
269             	3.48348191e+02
270             	3.48353780e+02
271             	3.48358266e+02
272             	3.48362536e+02
273             	3.48366463e+02
274             	3.48370131e+02
275             	3.48373818e+02
276             	3.48377831e+02
277             	3.48381666e+02
278             	3.48386168e+02
279             	3.48390859e+02
280             	3.48395914e+02
281             	3.48400915e+02
282             	3.48406518e+02
283             	3.48412385e+02
284             	3.48418257e+02
285             	3.48423974e+02
286             	3.48429452e+02
287             	3.48434320e+02
288             	3.48439073e+02
289             	3.48443816e+02
290             	3.48448250e+02
291             	3.48452169e+02
292             	3.48455845e+02
293             	3.48459300e+02
294             	3.48462492e+02
295             	3.48465424e+02
296             	3.48468372e+02
297             	3.48471325e+02
298             	3.48474342e+02
299             	3.48477460e+02
300             	3.48480651e+02
301             	3.48483898e+02
302             	3.48487218e+02
303             	3.48490552e+02
304             	3.48494134e+02
305             	3.48497730e+02
306             	3.48501264e+02
307             	3.48504864e+02
308             	3.48508614e+02
309             	3.48512512e+02
310             	3.48516546e+02
311             	3.48520588e+02
312             	3.48524620e+02
313             	3.48528818e+02
314             	3.48532744e+02
315             	3.48536430e+02
316             	3.48539819e+02
317             	3.48542954e+02
318             	3.48545882e+02
319             	3.48548685e+02
320             	3.48551389e+02
321             	3.48554003e+02
322             	3.48556489e+02
323             	3.48558494e+02
324             	3.48560579e+02
325             	3.48562568e+02
326             	3.48564360e+02
327             	3.48565947e+02
328             	3.48567355e+02
329             	3.48569167e+02
330             	3.48570786e+02
331             	3.48572401e+02
332             	3.48574138e+02
333             	3.48576015e+02
334             	3.48577994e+02
335             	3.48579975e+02
336             	3.48581666e+02
337             	3.48583320e+02
338             	3.48584825e+02
339             	3.48586122e+02
340             	3.48587208e+02
341             	3.48588418e+02
342             	3.48589574e+02
343             	3.48591379e+02
344             	3.48593059e+02
345             	3.48595038e+02
346             	3.48597507e+02
347             	3.48600380e+02
348             	3.48603406e+02
349             	3.48606520e+02
350             	3.48609241e+02
351             	3.48610799e+02
352             	3.48612729e+02
353             	3.48614548e+02
354             	3.48615756e+02
355             	3.48616791e+02
356             	3.48617520e+02
357             	3.48618160e+02
358             	3.48619084e+02
359             	3.48620098e+02
360             	3.48621591e+02
361             	3.48623164e+02
362             	3.48625001e+02
363             	3.48627122e+02
364             	3.48629375e+02
365             	3.48631589e+02
366             	3.48633670e+02
367             	3.48635645e+02
368             	3.48637622e+02
369             	3.48639587e+02
370             	3.48641441e+02
371             	3.48643192e+02
372             	3.48645003e+02
373             	3.48646645e+02
374             	3.48648129e+02
375             	3.48649463e+02
376             	3.48650645e+02
377             	3.48651669e+02
378             	3.48652483e+02
379             	3.48653169e+02
380             	3.48653860e+02
381             	3.48654712e+02
382             	3.48655914e+02
383             	3.48656986e+02
384             	3.48658079e+02
385             	3.48659255e+02
386             	3.48660317e+02
387             	3.48661212e+02
388             	3.48662166e+02
389             	3.48663073e+02
390             	3.48663878e+02
391             	3.48664585e+02
392             	3.48665230e+02
393             	3.48665664e+02
394             	3.48666179e+02
395             	3.48666704e+02
396             	3.48667202e+02
397             	3.48667719e+02
398             	3.48668344e+02
399             	3.48669088e+02
400             	3.48669884e+02
401             	3.48670817e+02
402             	3.48671894e+02
403             	3.48673130e+02
404             	3.48674625e+02
405             	3.48676143e+02
406             	3.48677703e+02
407             	3.48679290e+02
408             	3.48680565e+02
409             	3.48681773e+02
410             	3.48683160e+02
411             	3.48684531e+02
412             	3.48685294e+02
413             	3.48686198e+02
414             	3.48687024e+02
415             	3.48687742e+02
416             	3.48688696e+02
417             	3.48689394e+02
418             	3.48690010e+02
419             	3.48690624e+02
420             	3.48691477e+02
421             	3.48692341e+02
422             	3.48693257e+02
423             	3.48694263e+02
424             	3.48695245e+02
425             	3.48696205e+02
426             	3.48697249e+02
427             	3.48698400e+02
428             	3.48699851e+02
429             	3.48701613e+02
430             	3.48702710e+02
431             	3.48703971e+02
432             	3.48705337e+02
433             	3.48706501e+02
434             	3.48706922e+02
435             	3.48707032e+02
436             	3.48706200e+02
437             	3.48705355e+02
438             	3.48704157e+02
439             	3.48702867e+02
440             	3.48701833e+02
441             	3.48701471e+02
442             	3.48700771e+02
443             	3.48700754e+02
444             	3.48701549e+02
445             	3.48703410e+02
446             	3.48705925e+02
447             	3.48708648e+02
448             	3.48711403e+02
449             	3.48713627e+02
450             	3.48715631e+02
451             	3.48716632e+02
452             	3.48717484e+02
453             	3.48717965e+02
454             	3.48717858e+02
455             	3.48717312e+02
456             	3.48716495e+02
457             	3.48715539e+02
458             	3.48714620e+02
459             	3.48714413e+02
460             	3.48714115e+02
461             	3.48714031e+02
462             	3.48714294e+02
463             	3.48715085e+02
464             	3.48715729e+02
465             	3.48716682e+02
466             	3.48717981e+02
467             	3.48719471e+02
468             	3.48720029e+02
469             	3.48721052e+02
470             	3.48722127e+02
471             	3.48723006e+02
472             	3.48723746e+02
473             	3.48724553e+02
474             	3.48725289e+02
475             	3.48726110e+02
476             	3.48727394e+02
477             	3.48728666e+02
478             	3.48729993e+02
479             	3.48730846e+02
480             	3.48732156e+02
481             	3.48733563e+02
482             	3.48734947e+02
483             	3.48735951e+02
484             	3.48736764e+02
485             	3.48737259e+02
486             	3.48737283e+02
487             	3.48736684e+02
488             	3.48736090e+02
489             	3.48735356e+02
490             	3.48735397e+02
491             	3.48734845e+02
492             	3.48734603e+02
493             	3.48735416e+02
494             	3.48736887e+02
495             	3.48738901e+02
496             	3.48741211e+02
497             	3.48742775e+02
498             	3.48744610e+02
499             	3.48746384e+02
500             	3.48747576e+02
501             	3.48748451e+02
502             	3.48748877e+02
503             	3.48748822e+02
504             	3.48748527e+02
505             	3.48748130e+02
506             	3.48748035e+02
507             	3.48747879e+02
508             	3.48747824e+02
509             	3.48747904e+02
510             	3.48748038e+02
511             	3.48748155e+02
512             	3.48748262e+02
513             	3.48748416e+02
514             	3.48748774e+02
515             	3.48749198e+02
516             	3.48749865e+02
517             	3.48750629e+02
518             	3.48751705e+02
519             	3.48752976e+02
520             	3.48754320e+02
521             	3.48754596e+02
522             	3.48755264e+02
523             	3.48755969e+02
524             	3.48756374e+02
525             	3.48756466e+02
526             	3.48756542e+02
527             	3.48757155e+02
528             	3.48757701e+02
529             	3.48758464e+02
530             	3.48759548e+02
531             	3.48760851e+02
532             	3.48762143e+02
533             	3.48763269e+02
534             	3.48764461e+02
535             	3.48765552e+02
536             	3.48766401e+02
537             	3.48766882e+02
538             	3.48766958e+02
539             	3.48766693e+02
540             	3.48766156e+02
541             	3.48765437e+02
542             	3.48764607e+02
543             	3.48763727e+02
544             	3.48762998e+02
545             	3.48762340e+02
546             	3.48761814e+02
547             	3.48761480e+02
548             	3.48761088e+02
549             	3.48760834e+02
550             	3.48760669e+02
551             	3.48760559e+02
552             	3.48760469e+02
553             	3.48760399e+02
554             	3.48760374e+02
555             	3.48760418e+02
556             	3.48760514e+02
557             	3.48760655e+02
558             	3.48760849e+02
559             	3.48761115e+02
560             	3.48761570e+02
561             	3.48761994e+02
562             	3.48762628e+02
563             	3.48763380e+02
564             	3.48764605e+02
565             	3.48765844e+02
566             	3.48767230e+02
567             	3.48768819e+02
568             	3.48769610e+02
569             	3.48770774e+02
570             	3.48771995e+02
571             	3.48773084e+02
572             	3.48773877e+02
573             	3.48774570e+02
574             	3.48775186e+02
575             	3.48775551e+02
576             	3.48775868e+02
577             	3.48776161e+02
578             	3.48776601e+02
579             	3.48776948e+02
580             	3.48777202e+02
581             	3.48777440e+02
582             	3.48777614e+02
583             	3.48777743e+02
584             	3.48777540e+02
585             	3.48777448e+02
586             	3.48777416e+02
587             	3.48777462e+02
588             	3.48777590e+02
589             	3.48777787e+02
590             	3.48778016e+02
591             	3.48778220e+02
592             	3.48778379e+02
593             	3.48778533e+02
594             	3.48778732e+02
595             	3.48779379e+02
596             	3.48780110e+02
597             	3.48780979e+02
598             	3.48782005e+02
599             	3.48783009e+02
600             	3.48784069e+02
601             	3.48785477e+02
602             	3.48786730e+02
603             	3.48788147e+02
604             	3.48789165e+02
605             	3.48790312e+02
606             	3.48791551e+02
607             	3.48792238e+02
608             	3.48793348e+02
609             	3.48793903e+02
610             	3.48794192e+02
611             	3.48794073e+02
612             	3.48793568e+02
613             	3.48792904e+02
614             	3.48793062e+02
615             	3.48793006e+02
616             	3.48793200e+02
617             	3.48793850e+02
618             	3.48794889e+02
619             	3.48795696e+02
620             	3.48795880e+02
621             	3.48796296e+02
