# Region        : cellZone component_0
# Cells         : 492
# Volume        : 9.77680927e-01
# Time          	volAverage(T)
1               	3.00052026e+02
2               	3.00103809e+02
3               	3.00154261e+02
4               	3.00203956e+02
5               	3.00253327e+02
6               	3.00302429e+02
7               	3.00351327e+02
8               	3.00400095e+02
9               	3.00448759e+02
10              	3.00497325e+02
11              	3.00545790e+02
12              	3.00594133e+02
13              	3.00642360e+02
14              	3.00690405e+02
15              	3.00738325e+02
16              	3.00786195e+02
17              	3.00834070e+02
18              	3.00881242e+02
19              	3.00928768e+02
20              	3.00976111e+02
21              	3.01023185e+02
22              	3.01070042e+02
23              	3.01116777e+02
24              	3.01163373e+02
25              	3.01209899e+02
26              	3.01256341e+02
27              	3.01302558e+02
28              	3.01348465e+02
29              	3.01393962e+02
30              	3.01439249e+02
31              	3.01483840e+02
32              	3.01528483e+02
33              	3.01572009e+02
34              	3.01615633e+02
35              	3.01658724e+02
36              	3.01701688e+02
37              	3.01744272e+02
38              	3.01787290e+02
39              	3.01830283e+02
40              	3.01872695e+02
41              	3.01914838e+02
42              	3.01957236e+02
43              	3.01999677e+02
44              	3.02042130e+02
45              	3.02084773e+02
46              	3.02126499e+02
47              	3.02167813e+02
48              	3.02208414e+02
49              	3.02247685e+02
50              	3.02286635e+02
51              	3.02325893e+02
52              	3.02364555e+02
53              	3.02402611e+02
54              	3.02440199e+02
55              	3.02477830e+02
56              	3.02515716e+02
57              	3.02553370e+02
58              	3.02591630e+02
59              	3.02629679e+02
60              	3.02667681e+02
61              	3.02705367e+02
62              	3.02743023e+02
63              	3.02780375e+02
64              	3.02817599e+02
65              	3.02854634e+02
66              	3.02891783e+02
67              	3.02928885e+02
68              	3.02965816e+02
69              	3.03002613e+02
70              	3.03039275e+02
71              	3.03075807e+02
72              	3.03112117e+02
73              	3.03148165e+02
74              	3.03183951e+02
75              	3.03219450e+02
76              	3.03254870e+02
77              	3.03290103e+02
78              	3.03325145e+02
79              	3.03360000e+02
80              	3.03394696e+02
81              	3.03429273e+02
82              	3.03463670e+02
83              	3.03497932e+02
84              	3.03532056e+02
85              	3.03566029e+02
86              	3.03599843e+02
87              	3.03633432e+02
88              	3.03666896e+02
89              	3.03700189e+02
90              	3.03733262e+02
91              	3.03766184e+02
92              	3.03798896e+02
93              	3.03831334e+02
94              	3.03863572e+02
95              	3.03894383e+02
96              	3.03924408e+02
97              	3.03953966e+02
98              	3.03983382e+02
99              	3.04012736e+02
100             	3.04042013e+02
101             	3.04071386e+02
102             	3.04100821e+02
103             	3.04130139e+02
104             	3.04159298e+02
105             	3.04188444e+02
106             	3.04217075e+02
107             	3.04245403e+02
108             	3.04273570e+02
109             	3.04301598e+02
110             	3.04329632e+02
111             	3.04357619e+02
112             	3.04385499e+02
113             	3.04413285e+02
114             	3.04441038e+02
115             	3.04468691e+02
116             	3.04496228e+02
117             	3.04523609e+02
118             	3.04550873e+02
119             	3.04578007e+02
120             	3.04604975e+02
121             	3.04631826e+02
122             	3.04658558e+02
123             	3.04685157e+02
124             	3.04711629e+02
125             	3.04738014e+02
126             	3.04764283e+02
127             	3.04790384e+02
128             	3.04816395e+02
129             	3.04842311e+02
130             	3.04868086e+02
131             	3.04893722e+02
132             	3.04919226e+02
133             	3.04944564e+02
134             	3.04969760e+02
135             	3.04994809e+02
136             	3.05019802e+02
137             	3.05044658e+02
138             	3.05069327e+02
139             	3.05093924e+02
140             	3.05118394e+02
141             	3.05142778e+02
142             	3.05167056e+02
143             	3.05191223e+02
144             	3.05215265e+02
145             	3.05239196e+02
146             	3.05263037e+02
147             	3.05286757e+02
148             	3.05310378e+02
149             	3.05333875e+02
150             	3.05357287e+02
151             	3.05380586e+02
152             	3.05403770e+02
153             	3.05426838e+02
154             	3.05449779e+02
155             	3.05472613e+02
156             	3.05495328e+02
157             	3.05517921e+02
158             	3.05540405e+02
159             	3.05562784e+02
160             	3.05585061e+02
161             	3.05607239e+02
162             	3.05629313e+02
163             	3.05651288e+02
164             	3.05673164e+02
165             	3.05694937e+02
166             	3.05716610e+02
167             	3.05738182e+02
168             	3.05759653e+02
169             	3.05781022e+02
170             	3.05802291e+02
171             	3.05823461e+02
172             	3.05844533e+02
173             	3.05865510e+02
174             	3.05886379e+02
175             	3.05907150e+02
176             	3.05927830e+02
177             	3.05948421e+02
178             	3.05968914e+02
179             	3.05989310e+02
180             	3.06009603e+02
181             	3.06029797e+02
182             	3.06049894e+02
183             	3.06069899e+02
184             	3.06089806e+02
185             	3.06109616e+02
186             	3.06129333e+02
187             	3.06148955e+02
188             	3.06168492e+02
189             	3.06187939e+02
190             	3.06207297e+02
191             	3.06226570e+02
192             	3.06245751e+02
193             	3.06264841e+02
194             	3.06283845e+02
195             	3.06302762e+02
196             	3.06321584e+02
197             	3.06340317e+02
198             	3.06358963e+02
199             	3.06377518e+02
200             	3.06395989e+02
201             	3.06414373e+02
202             	3.06432669e+02
203             	3.06450879e+02
204             	3.06469000e+02
205             	3.06487034e+02
206             	3.06504984e+02
207             	3.06522848e+02
208             	3.06540630e+02
209             	3.06558329e+02
210             	3.06575945e+02
211             	3.06593482e+02
212             	3.06610939e+02
213             	3.06628319e+02
214             	3.06645622e+02
215             	3.06662842e+02
216             	3.06679988e+02
217             	3.06697058e+02
218             	3.06714050e+02
219             	3.06730962e+02
220             	3.06747795e+02
221             	3.06764548e+02
222             	3.06781221e+02
223             	3.06797814e+02
224             	3.06814327e+02
225             	3.06830760e+02
226             	3.06847114e+02
227             	3.06863388e+02
228             	3.06879584e+02
229             	3.06895703e+02
230             	3.06911744e+02
231             	3.06927708e+02
232             	3.06943596e+02
233             	3.06959408e+02
234             	3.06975146e+02
235             	3.06990809e+02
236             	3.07006399e+02
237             	3.07021918e+02
238             	3.07037366e+02
239             	3.07052743e+02
240             	3.07068049e+02
241             	3.07083285e+02
242             	3.07098450e+02
243             	3.07113545e+02
244             	3.07128569e+02
245             	3.07143524e+02
246             	3.07158409e+02
247             	3.07173222e+02
248             	3.07187961e+02
249             	3.07202633e+02
250             	3.07217235e+02
251             	3.07231767e+02
252             	3.07246229e+02
253             	3.07260621e+02
254             	3.07274276e+02
255             	3.07287615e+02
256             	3.07300861e+02
257             	3.07314053e+02
258             	3.07327188e+02
259             	3.07340255e+02
260             	3.07353242e+02
261             	3.07366136e+02
262             	3.07378919e+02
263             	3.07391583e+02
264             	3.07404121e+02
265             	3.07416529e+02
266             	3.07428810e+02
267             	3.07440968e+02
268             	3.07452994e+02
269             	3.07464879e+02
270             	3.07476622e+02
271             	3.07488222e+02
272             	3.07499679e+02
273             	3.07510985e+02
274             	3.07522144e+02
275             	3.07533154e+02
276             	3.07544023e+02
277             	3.07554750e+02
278             	3.07565339e+02
279             	3.07575794e+02
280             	3.07586119e+02
281             	3.07596316e+02
282             	3.07606374e+02
283             	3.07616311e+02
284             	3.07626111e+02
285             	3.07635787e+02
286             	3.07645336e+02
287             	3.07654759e+02
288             	3.07664058e+02
289             	3.07673236e+02
290             	3.07682298e+02
291             	3.07691247e+02
292             	3.07700091e+02
293             	3.07708837e+02
294             	3.07717487e+02
295             	3.07726059e+02
296             	3.07734546e+02
297             	3.07742961e+02
298             	3.07751302e+02
299             	3.07759548e+02
300             	3.07767711e+02
301             	3.07775779e+02
302             	3.07783758e+02
303             	3.07791651e+02
304             	3.07799461e+02
305             	3.07807198e+02
306             	3.07814868e+02
307             	3.07822472e+02
308             	3.07830013e+02
309             	3.07837476e+02
310             	3.07844862e+02
311             	3.07852183e+02
312             	3.07859420e+02
313             	3.07866593e+02
314             	3.07873699e+02
315             	3.07880737e+02
316             	3.07887644e+02
317             	3.07894549e+02
318             	3.07901376e+02
319             	3.07908123e+02
320             	3.07914873e+02
321             	3.07921552e+02
322             	3.07928186e+02
323             	3.07934767e+02
324             	3.07941289e+02
325             	3.07947770e+02
326             	3.07954215e+02
327             	3.07960597e+02
328             	3.07966936e+02
329             	3.07973214e+02
330             	3.07979445e+02
331             	3.07985653e+02
332             	3.07991820e+02
333             	3.07997953e+02
334             	3.08004053e+02
335             	3.08010074e+02
336             	3.08016058e+02
337             	3.08022010e+02
338             	3.08027910e+02
339             	3.08033766e+02
340             	3.08039581e+02
341             	3.08045361e+02
342             	3.08051093e+02
343             	3.08056799e+02
344             	3.08062469e+02
345             	3.08068110e+02
346             	3.08073627e+02
347             	3.08079188e+02
348             	3.08084707e+02
349             	3.08090208e+02
350             	3.08095655e+02
351             	3.08101077e+02
352             	3.08106468e+02
353             	3.08111832e+02
354             	3.08117178e+02
355             	3.08122498e+02
356             	3.08127803e+02
357             	3.08133069e+02
358             	3.08138299e+02
359             	3.08143490e+02
360             	3.08148668e+02
361             	3.08153790e+02
362             	3.08158827e+02
363             	3.08163921e+02
364             	3.08168964e+02
365             	3.08173942e+02
366             	3.08178947e+02
367             	3.08183872e+02
368             	3.08188747e+02
369             	3.08193640e+02
370             	3.08198478e+02
371             	3.08203317e+02
372             	3.08208129e+02
373             	3.08212945e+02
374             	3.08217772e+02
375             	3.08222603e+02
376             	3.08227436e+02
377             	3.08232260e+02
378             	3.08237034e+02
379             	3.08241750e+02
380             	3.08246394e+02
381             	3.08251004e+02
382             	3.08255630e+02
383             	3.08260157e+02
384             	3.08264631e+02
385             	3.08269147e+02
386             	3.08273617e+02
387             	3.08278107e+02
388             	3.08282599e+02
389             	3.08287042e+02
390             	3.08291498e+02
391             	3.08295974e+02
392             	3.08300450e+02
393             	3.08304938e+02
394             	3.08309424e+02
395             	3.08313861e+02
396             	3.08318298e+02
397             	3.08322714e+02
398             	3.08327111e+02
399             	3.08331402e+02
400             	3.08335617e+02
401             	3.08339893e+02
402             	3.08344110e+02
403             	3.08348288e+02
404             	3.08352434e+02
405             	3.08356600e+02
406             	3.08360755e+02
407             	3.08364900e+02
408             	3.08369042e+02
409             	3.08373187e+02
410             	3.08377318e+02
411             	3.08381467e+02
412             	3.08385629e+02
413             	3.08389776e+02
414             	3.08393904e+02
415             	3.08398028e+02
416             	3.08402135e+02
417             	3.08406207e+02
418             	3.08410268e+02
419             	3.08414309e+02
420             	3.08418335e+02
421             	3.08422247e+02
422             	3.08426267e+02
423             	3.08430216e+02
424             	3.08434183e+02
425             	3.08438172e+02
426             	3.08442144e+02
427             	3.08446071e+02
428             	3.08449992e+02
429             	3.08453891e+02
430             	3.08457790e+02
431             	3.08461662e+02
432             	3.08465522e+02
433             	3.08469364e+02
434             	3.08473183e+02
435             	3.08476981e+02
436             	3.08480665e+02
437             	3.08484439e+02
438             	3.08488153e+02
439             	3.08491930e+02
440             	3.08495603e+02
441             	3.08499375e+02
442             	3.08503081e+02
443             	3.08506845e+02
444             	3.08510585e+02
445             	3.08514303e+02
446             	3.08518034e+02
447             	3.08521743e+02
448             	3.08525410e+02
449             	3.08529085e+02
450             	3.08532748e+02
451             	3.08536375e+02
452             	3.08540023e+02
453             	3.08543663e+02
454             	3.08547271e+02
455             	3.08550896e+02
456             	3.08554497e+02
457             	3.08558075e+02
458             	3.08561673e+02
459             	3.08565256e+02
460             	3.08568805e+02
461             	3.08572373e+02
462             	3.08575927e+02
463             	3.08579414e+02
464             	3.08582936e+02
465             	3.08586342e+02
466             	3.08589839e+02
467             	3.08593276e+02
468             	3.08596735e+02
469             	3.08600189e+02
470             	3.08603637e+02
471             	3.08606971e+02
472             	3.08610373e+02
473             	3.08613747e+02
474             	3.08617146e+02
475             	3.08620528e+02
476             	3.08623939e+02
477             	3.08627318e+02
478             	3.08630682e+02
479             	3.08634063e+02
480             	3.08637454e+02
481             	3.08640845e+02
482             	3.08644215e+02
483             	3.08647611e+02
484             	3.08650985e+02
485             	3.08654322e+02
486             	3.08657570e+02
487             	3.08660915e+02
488             	3.08664187e+02
489             	3.08667499e+02
490             	3.08670816e+02
491             	3.08674101e+02
492             	3.08677413e+02
493             	3.08680694e+02
494             	3.08683983e+02
495             	3.08687260e+02
496             	3.08690528e+02
497             	3.08693781e+02
498             	3.08696918e+02
499             	3.08700133e+02
500             	3.08703300e+02
501             	3.08706422e+02
502             	3.08709614e+02
503             	3.08712758e+02
504             	3.08715948e+02
505             	3.08719138e+02
506             	3.08722350e+02
507             	3.08725549e+02
508             	3.08728760e+02
509             	3.08731949e+02
510             	3.08735122e+02
511             	3.08738330e+02
512             	3.08741514e+02
513             	3.08744662e+02
514             	3.08747837e+02
515             	3.08750986e+02
516             	3.08754127e+02
517             	3.08757262e+02
518             	3.08760392e+02
519             	3.08763515e+02
520             	3.08766650e+02
521             	3.08769781e+02
522             	3.08772887e+02
523             	3.08776050e+02
524             	3.08779149e+02
525             	3.08782186e+02
526             	3.08785193e+02
527             	3.08788264e+02
528             	3.08791283e+02
529             	3.08794330e+02
530             	3.08797399e+02
531             	3.08800513e+02
532             	3.08803566e+02
533             	3.08806573e+02
534             	3.08809612e+02
535             	3.08812653e+02
536             	3.08815704e+02
537             	3.08818759e+02
538             	3.08821781e+02
539             	3.08824840e+02
540             	3.08827884e+02
541             	3.08830925e+02
542             	3.08833959e+02
543             	3.08836993e+02
544             	3.08840018e+02
545             	3.08843049e+02
546             	3.08846074e+02
547             	3.08849102e+02
548             	3.08852080e+02
549             	3.08855065e+02
550             	3.08858048e+02
551             	3.08861084e+02
552             	3.08864041e+02
553             	3.08866943e+02
554             	3.08869839e+02
555             	3.08872797e+02
556             	3.08875701e+02
557             	3.08878640e+02
558             	3.08881664e+02
559             	3.08884629e+02
560             	3.08887565e+02
561             	3.08890530e+02
562             	3.08893501e+02
563             	3.08896469e+02
564             	3.08899442e+02
565             	3.08902406e+02
566             	3.08905377e+02
567             	3.08908340e+02
568             	3.08911300e+02
569             	3.08914245e+02
570             	3.08917189e+02
571             	3.08920125e+02
572             	3.08923069e+02
573             	3.08926006e+02
574             	3.08928946e+02
575             	3.08931878e+02
576             	3.08934812e+02
577             	3.08937740e+02
578             	3.08940723e+02
579             	3.08943633e+02
580             	3.08946493e+02
581             	3.08949408e+02
582             	3.08952387e+02
583             	3.08955286e+02
584             	3.08958146e+02
585             	3.08961049e+02
586             	3.08963971e+02
587             	3.08966890e+02
588             	3.08969811e+02
589             	3.08972724e+02
590             	3.08975647e+02
591             	3.08978565e+02
592             	3.08981486e+02
593             	3.08984400e+02
594             	3.08987311e+02
595             	3.08990217e+02
596             	3.08993134e+02
597             	3.08996047e+02
598             	3.08998965e+02
599             	3.09001878e+02
600             	3.09004792e+02
601             	3.09007711e+02
602             	3.09010639e+02
603             	3.09013575e+02
604             	3.09016475e+02
605             	3.09019429e+02
606             	3.09022370e+02
607             	3.09025250e+02
608             	3.09028176e+02
609             	3.09031081e+02
610             	3.09033994e+02
611             	3.09036954e+02
612             	3.09039844e+02
613             	3.09042681e+02
614             	3.09045643e+02
615             	3.09048527e+02
616             	3.09051361e+02
617             	3.09054272e+02
618             	3.09057197e+02
619             	3.09060087e+02
620             	3.09063031e+02
621             	3.09065973e+02
