# Region        : cellZone pcb
# Cells         : 881
# Volume        : 1.64074932e+00
# Time          	volAverage(T)
1               	3.00001233e+02
2               	3.00003661e+02
3               	3.00007265e+02
4               	3.00012030e+02
5               	3.00017227e+02
6               	3.00023175e+02
7               	3.00029859e+02
8               	3.00037090e+02
9               	3.00045037e+02
10              	3.00054072e+02
11              	3.00064020e+02
12              	3.00074287e+02
13              	3.00085218e+02
14              	3.00097025e+02
15              	3.00109585e+02
16              	3.00122227e+02
17              	3.00134982e+02
18              	3.00148326e+02
19              	3.00162452e+02
20              	3.00176960e+02
21              	3.00192131e+02
22              	3.00207475e+02
23              	3.00222642e+02
24              	3.00238106e+02
25              	3.00254451e+02
26              	3.00271307e+02
27              	3.00288059e+02
28              	3.00304241e+02
29              	3.00320578e+02
30              	3.00336363e+02
31              	3.00352307e+02
32              	3.00369348e+02
33              	3.00387933e+02
34              	3.00407116e+02
35              	3.00426523e+02
36              	3.00447527e+02
37              	3.00468547e+02
38              	3.00487926e+02
39              	3.00507050e+02
40              	3.00526573e+02
41              	3.00547051e+02
42              	3.00567227e+02
43              	3.00587903e+02
44              	3.00610017e+02
45              	3.00633250e+02
46              	3.00654253e+02
47              	3.00675729e+02
48              	3.00697093e+02
49              	3.00717440e+02
50              	3.00738899e+02
51              	3.00758643e+02
52              	3.00778968e+02
53              	3.00802043e+02
54              	3.00825319e+02
55              	3.00848245e+02
56              	3.00871910e+02
57              	3.00895539e+02
58              	3.00919533e+02
59              	3.00943068e+02
60              	3.00965134e+02
61              	3.00985404e+02
62              	3.01006997e+02
63              	3.01031047e+02
64              	3.01054747e+02
65              	3.01075922e+02
66              	3.01094260e+02
67              	3.01111433e+02
68              	3.01130759e+02
69              	3.01149231e+02
70              	3.01166788e+02
71              	3.01186171e+02
72              	3.01206473e+02
73              	3.01229167e+02
74              	3.01251081e+02
75              	3.01272249e+02
76              	3.01294536e+02
77              	3.01317570e+02
78              	3.01338829e+02
79              	3.01359524e+02
80              	3.01378709e+02
81              	3.01396509e+02
82              	3.01416664e+02
83              	3.01437136e+02
84              	3.01458442e+02
85              	3.01477680e+02
86              	3.01496837e+02
87              	3.01517459e+02
88              	3.01537861e+02
89              	3.01557174e+02
90              	3.01575104e+02
91              	3.01592098e+02
92              	3.01608250e+02
93              	3.01624164e+02
94              	3.01640302e+02
95              	3.01657658e+02
96              	3.01676481e+02
97              	3.01695607e+02
98              	3.01713830e+02
99              	3.01731358e+02
100             	3.01748589e+02
101             	3.01764461e+02
102             	3.01779098e+02
103             	3.01794182e+02
104             	3.01809742e+02
105             	3.01823883e+02
106             	3.01838462e+02
107             	3.01854331e+02
108             	3.01871211e+02
109             	3.01888091e+02
110             	3.01904832e+02
111             	3.01921305e+02
112             	3.01938351e+02
113             	3.01955746e+02
114             	3.01971365e+02
115             	3.01986072e+02
116             	3.02001264e+02
117             	3.02016889e+02
118             	3.02032486e+02
119             	3.02047986e+02
120             	3.02063587e+02
121             	3.02079412e+02
122             	3.02095464e+02
123             	3.02111725e+02
124             	3.02128027e+02
125             	3.02144413e+02
126             	3.02160353e+02
127             	3.02176095e+02
128             	3.02191787e+02
129             	3.02207450e+02
130             	3.02223273e+02
131             	3.02238801e+02
132             	3.02253701e+02
133             	3.02268331e+02
134             	3.02282410e+02
135             	3.02295600e+02
136             	3.02307811e+02
137             	3.02320069e+02
138             	3.02333587e+02
139             	3.02348247e+02
140             	3.02362682e+02
141             	3.02377088e+02
142             	3.02391027e+02
143             	3.02404878e+02
144             	3.02419004e+02
145             	3.02433335e+02
146             	3.02448364e+02
147             	3.02463909e+02
148             	3.02479458e+02
149             	3.02494517e+02
150             	3.02508449e+02
151             	3.02521953e+02
152             	3.02536335e+02
153             	3.02550656e+02
154             	3.02564458e+02
155             	3.02578007e+02
156             	3.02591553e+02
157             	3.02606069e+02
158             	3.02621738e+02
159             	3.02638082e+02
160             	3.02655023e+02
161             	3.02671965e+02
162             	3.02687774e+02
163             	3.02703423e+02
164             	3.02719535e+02
165             	3.02736028e+02
166             	3.02752220e+02
167             	3.02767661e+02
168             	3.02782846e+02
169             	3.02797953e+02
170             	3.02812622e+02
171             	3.02826884e+02
172             	3.02840967e+02
173             	3.02854783e+02
174             	3.02868639e+02
175             	3.02882433e+02
176             	3.02895908e+02
177             	3.02909136e+02
178             	3.02922563e+02
179             	3.02935957e+02
180             	3.02949238e+02
181             	3.02962903e+02
182             	3.02975992e+02
183             	3.02988576e+02
184             	3.03001185e+02
185             	3.03013799e+02
186             	3.03026412e+02
187             	3.03038782e+02
188             	3.03051442e+02
189             	3.03063546e+02
190             	3.03075470e+02
191             	3.03087941e+02
192             	3.03100772e+02
193             	3.03113719e+02
194             	3.03126732e+02
195             	3.03139801e+02
196             	3.03152974e+02
197             	3.03166208e+02
198             	3.03178914e+02
199             	3.03191273e+02
200             	3.03203455e+02
201             	3.03215525e+02
202             	3.03227499e+02
203             	3.03239320e+02
204             	3.03250972e+02
205             	3.03263254e+02
206             	3.03275857e+02
207             	3.03288071e+02
208             	3.03299790e+02
209             	3.03311073e+02
210             	3.03321957e+02
211             	3.03332630e+02
212             	3.03343320e+02
213             	3.03354232e+02
214             	3.03365443e+02
215             	3.03376646e+02
216             	3.03387824e+02
217             	3.03399136e+02
218             	3.03410418e+02
219             	3.03421327e+02
220             	3.03432028e+02
221             	3.03442480e+02
222             	3.03452775e+02
223             	3.03462904e+02
224             	3.03472857e+02
225             	3.03482855e+02
226             	3.03492550e+02
227             	3.03501876e+02
228             	3.03510970e+02
229             	3.03519844e+02
230             	3.03528663e+02
231             	3.03537691e+02
232             	3.03546867e+02
233             	3.03556115e+02
234             	3.03565316e+02
235             	3.03574608e+02
236             	3.03583438e+02
237             	3.03591882e+02
238             	3.03599709e+02
239             	3.03607478e+02
240             	3.03615267e+02
241             	3.03623557e+02
242             	3.03632530e+02
243             	3.03642088e+02
244             	3.03651640e+02
245             	3.03660892e+02
246             	3.03668938e+02
247             	3.03676298e+02
248             	3.03684467e+02
249             	3.03693648e+02
250             	3.03703176e+02
251             	3.03712690e+02
252             	3.03722310e+02
253             	3.03731905e+02
254             	3.03741201e+02
255             	3.03749762e+02
256             	3.03758052e+02
257             	3.03766382e+02
258             	3.03774667e+02
259             	3.03782671e+02
260             	3.03790340e+02
261             	3.03797774e+02
262             	3.03804936e+02
263             	3.03811738e+02
264             	3.03818183e+02
265             	3.03824204e+02
266             	3.03830050e+02
267             	3.03835898e+02
268             	3.03841451e+02
269             	3.03846960e+02
270             	3.03852505e+02
271             	3.03858009e+02
272             	3.03863473e+02
273             	3.03868797e+02
274             	3.03873950e+02
275             	3.03879030e+02
276             	3.03884159e+02
277             	3.03889452e+02
278             	3.03894787e+02
279             	3.03900018e+02
280             	3.03905154e+02
281             	3.03910269e+02
282             	3.03915315e+02
283             	3.03920124e+02
284             	3.03924606e+02
285             	3.03928810e+02
286             	3.03932917e+02
287             	3.03937065e+02
288             	3.03941216e+02
289             	3.03945389e+02
290             	3.03949645e+02
291             	3.03953714e+02
292             	3.03957608e+02
293             	3.03961508e+02
294             	3.03965447e+02
295             	3.03969306e+02
296             	3.03973078e+02
297             	3.03976847e+02
298             	3.03980614e+02
299             	3.03984347e+02
300             	3.03987993e+02
301             	3.03991463e+02
302             	3.03994837e+02
303             	3.03998111e+02
304             	3.04001358e+02
305             	3.04004523e+02
306             	3.04007586e+02
307             	3.04010434e+02
308             	3.04013182e+02
309             	3.04015986e+02
310             	3.04018671e+02
311             	3.04021296e+02
312             	3.04023869e+02
313             	3.04026411e+02
314             	3.04029080e+02
315             	3.04031743e+02
316             	3.04034367e+02
317             	3.04037016e+02
318             	3.04039615e+02
319             	3.04042225e+02
320             	3.04045220e+02
321             	3.04048205e+02
322             	3.04050912e+02
323             	3.04053752e+02
324             	3.04056713e+02
325             	3.04059830e+02
326             	3.04062856e+02
327             	3.04065755e+02
328             	3.04068678e+02
329             	3.04071601e+02
330             	3.04074384e+02
331             	3.04077073e+02
332             	3.04079755e+02
333             	3.04082403e+02
334             	3.04084981e+02
335             	3.04087474e+02
336             	3.04089864e+02
337             	3.04092161e+02
338             	3.04094480e+02
339             	3.04096750e+02
340             	3.04098962e+02
341             	3.04101174e+02
342             	3.04103413e+02
343             	3.04105784e+02
344             	3.04108194e+02
345             	3.04110344e+02
346             	3.04112432e+02
347             	3.04114533e+02
348             	3.04116657e+02
349             	3.04118751e+02
350             	3.04120816e+02
351             	3.04122803e+02
352             	3.04124801e+02
353             	3.04126769e+02
354             	3.04128720e+02
355             	3.04130648e+02
356             	3.04132442e+02
357             	3.04134161e+02
358             	3.04135905e+02
359             	3.04137592e+02
360             	3.04139290e+02
361             	3.04140969e+02
362             	3.04142561e+02
363             	3.04144235e+02
364             	3.04145772e+02
365             	3.04147236e+02
366             	3.04148702e+02
367             	3.04150132e+02
368             	3.04151600e+02
369             	3.04153085e+02
370             	3.04154593e+02
371             	3.04156121e+02
372             	3.04157664e+02
373             	3.04159233e+02
374             	3.04160799e+02
375             	3.04162376e+02
376             	3.04163954e+02
377             	3.04165490e+02
378             	3.04167012e+02
379             	3.04168584e+02
380             	3.04170173e+02
381             	3.04171751e+02
382             	3.04173323e+02
383             	3.04174880e+02
384             	3.04176426e+02
385             	3.04177958e+02
386             	3.04179493e+02
387             	3.04181031e+02
388             	3.04182578e+02
389             	3.04184124e+02
390             	3.04185661e+02
391             	3.04187226e+02
392             	3.04188806e+02
393             	3.04190373e+02
394             	3.04191948e+02
395             	3.04193564e+02
396             	3.04195198e+02
397             	3.04196829e+02
398             	3.04198466e+02
399             	3.04200109e+02
400             	3.04201755e+02
401             	3.04203363e+02
402             	3.04204940e+02
403             	3.04206521e+02
404             	3.04208084e+02
405             	3.04209625e+02
406             	3.04211162e+02
407             	3.04212684e+02
408             	3.04214178e+02
409             	3.04215619e+02
410             	3.04217017e+02
411             	3.04218369e+02
412             	3.04219684e+02
413             	3.04220974e+02
414             	3.04222224e+02
415             	3.04223471e+02
416             	3.04224743e+02
417             	3.04225980e+02
418             	3.04227202e+02
419             	3.04228414e+02
420             	3.04229608e+02
421             	3.04230781e+02
422             	3.04231965e+02
423             	3.04233134e+02
424             	3.04234277e+02
425             	3.04235433e+02
426             	3.04236604e+02
427             	3.04237794e+02
428             	3.04238998e+02
429             	3.04240194e+02
430             	3.04241391e+02
431             	3.04242608e+02
432             	3.04243812e+02
433             	3.04245002e+02
434             	3.04246202e+02
435             	3.04247379e+02
436             	3.04248548e+02
437             	3.04249737e+02
438             	3.04250917e+02
439             	3.04252095e+02
440             	3.04253266e+02
441             	3.04254430e+02
442             	3.04255608e+02
443             	3.04256801e+02
444             	3.04257973e+02
445             	3.04259130e+02
446             	3.04260298e+02
447             	3.04261451e+02
448             	3.04262593e+02
449             	3.04263750e+02
450             	3.04264913e+02
451             	3.04266063e+02
452             	3.04267211e+02
453             	3.04268343e+02
454             	3.04269471e+02
455             	3.04270617e+02
456             	3.04271750e+02
457             	3.04272865e+02
458             	3.04273974e+02
459             	3.04275069e+02
460             	3.04276152e+02
461             	3.04277236e+02
462             	3.04278304e+02
463             	3.04279360e+02
464             	3.04280404e+02
465             	3.04281438e+02
466             	3.04282456e+02
467             	3.04283461e+02
468             	3.04284446e+02
469             	3.04285412e+02
470             	3.04286382e+02
471             	3.04287336e+02
472             	3.04288276e+02
473             	3.04289210e+02
474             	3.04290139e+02
475             	3.04291072e+02
476             	3.04292007e+02
477             	3.04292927e+02
478             	3.04293842e+02
479             	3.04294760e+02
480             	3.04295670e+02
481             	3.04296583e+02
482             	3.04297510e+02
483             	3.04298425e+02
484             	3.04299343e+02
485             	3.04300273e+02
486             	3.04301204e+02
487             	3.04302135e+02
488             	3.04303064e+02
489             	3.04303983e+02
490             	3.04304903e+02
491             	3.04305822e+02
492             	3.04306727e+02
493             	3.04307626e+02
494             	3.04308528e+02
495             	3.04309415e+02
496             	3.04310298e+02
497             	3.04311168e+02
498             	3.04312023e+02
499             	3.04312873e+02
500             	3.04313725e+02
501             	3.04314572e+02
502             	3.04315417e+02
503             	3.04316258e+02
504             	3.04317085e+02
505             	3.04317906e+02
506             	3.04318723e+02
507             	3.04319530e+02
508             	3.04320336e+02
509             	3.04321145e+02
510             	3.04321947e+02
511             	3.04322749e+02
512             	3.04323549e+02
513             	3.04324335e+02
514             	3.04325116e+02
515             	3.04325894e+02
516             	3.04326661e+02
517             	3.04327429e+02
518             	3.04328195e+02
519             	3.04328950e+02
520             	3.04329695e+02
521             	3.04330430e+02
522             	3.04331152e+02
523             	3.04331874e+02
524             	3.04332590e+02
525             	3.04333294e+02
526             	3.04334001e+02
527             	3.04334700e+02
528             	3.04335389e+02
529             	3.04336081e+02
530             	3.04336770e+02
531             	3.04337452e+02
532             	3.04338133e+02
533             	3.04338813e+02
534             	3.04339492e+02
535             	3.04340168e+02
536             	3.04340835e+02
537             	3.04341504e+02
538             	3.04342172e+02
539             	3.04342836e+02
540             	3.04343496e+02
541             	3.04344155e+02
542             	3.04344805e+02
543             	3.04345457e+02
544             	3.04346110e+02
545             	3.04346752e+02
546             	3.04347387e+02
547             	3.04348023e+02
548             	3.04348653e+02
549             	3.04349280e+02
550             	3.04349906e+02
551             	3.04350523e+02
552             	3.04351135e+02
553             	3.04351744e+02
554             	3.04352342e+02
555             	3.04352936e+02
556             	3.04353531e+02
557             	3.04354120e+02
558             	3.04354707e+02
559             	3.04355295e+02
560             	3.04355877e+02
561             	3.04356460e+02
562             	3.04357038e+02
563             	3.04357606e+02
564             	3.04358169e+02
565             	3.04358732e+02
566             	3.04359289e+02
567             	3.04359843e+02
568             	3.04360395e+02
569             	3.04360939e+02
570             	3.04361482e+02
571             	3.04362023e+02
572             	3.04362551e+02
573             	3.04363077e+02
574             	3.04363605e+02
575             	3.04364123e+02
576             	3.04364640e+02
577             	3.04365157e+02
578             	3.04365666e+02
579             	3.04366176e+02
580             	3.04366686e+02
581             	3.04367186e+02
582             	3.04367685e+02
583             	3.04368192e+02
584             	3.04368692e+02
585             	3.04369190e+02
586             	3.04369690e+02
587             	3.04370181e+02
588             	3.04370672e+02
589             	3.04371163e+02
590             	3.04371638e+02
591             	3.04372113e+02
592             	3.04372591e+02
593             	3.04373057e+02
594             	3.04373523e+02
595             	3.04373989e+02
596             	3.04374449e+02
597             	3.04374913e+02
598             	3.04375371e+02
599             	3.04375815e+02
600             	3.04376260e+02
601             	3.04376701e+02
602             	3.04377130e+02
603             	3.04377560e+02
604             	3.04377994e+02
605             	3.04378432e+02
606             	3.04378871e+02
607             	3.04379311e+02
608             	3.04379742e+02
609             	3.04380175e+02
610             	3.04380608e+02
611             	3.04381030e+02
612             	3.04381450e+02
613             	3.04381868e+02
614             	3.04382272e+02
615             	3.04382677e+02
616             	3.04383083e+02
617             	3.04383478e+02
618             	3.04383873e+02
619             	3.04384269e+02
620             	3.04384656e+02
621             	3.04385047e+02
