# Region        : cellZone component_4
# Cells         : 192
# Volume        : 3.77651760e-01
# Time          	volAverage(T)
1               	3.00475708e+02
2               	3.00943865e+02
3               	3.01358919e+02
4               	3.01735004e+02
5               	3.02092208e+02
6               	3.02436869e+02
7               	3.02771802e+02
8               	3.03095607e+02
9               	3.03412061e+02
10              	3.03725504e+02
11              	3.04026983e+02
12              	3.04319302e+02
13              	3.04603915e+02
14              	3.04880123e+02
15              	3.05145894e+02
16              	3.05398558e+02
17              	3.05637969e+02
18              	3.05886256e+02
19              	3.06131422e+02
20              	3.06360647e+02
21              	3.06588392e+02
22              	3.06813143e+02
23              	3.07027699e+02
24              	3.07233328e+02
25              	3.07436033e+02
26              	3.07633177e+02
27              	3.07822633e+02
28              	3.07998142e+02
29              	3.08154835e+02
30              	3.08305358e+02
31              	3.08447986e+02
32              	3.08592367e+02
33              	3.08747499e+02
34              	3.08912771e+02
35              	3.09076679e+02
36              	3.09173008e+02
37              	3.09250067e+02
38              	3.09326523e+02
39              	3.09414331e+02
40              	3.09523818e+02
41              	3.09634874e+02
42              	3.09740751e+02
43              	3.09837756e+02
44              	3.09931457e+02
45              	3.10023857e+02
46              	3.10112467e+02
47              	3.10199530e+02
48              	3.10280214e+02
49              	3.10371448e+02
50              	3.10458625e+02
51              	3.10532471e+02
52              	3.10599429e+02
53              	3.10652952e+02
54              	3.10716239e+02
55              	3.10788625e+02
56              	3.10869501e+02
57              	3.10948952e+02
58              	3.11020665e+02
59              	3.11083220e+02
60              	3.11139352e+02
61              	3.11184744e+02
62              	3.11247050e+02
63              	3.11318966e+02
64              	3.11403651e+02
65              	3.11497492e+02
66              	3.11570500e+02
67              	3.11626410e+02
68              	3.11697302e+02
69              	3.11763261e+02
70              	3.11818951e+02
71              	3.11873852e+02
72              	3.11930964e+02
73              	3.11983258e+02
74              	3.12032996e+02
75              	3.12075526e+02
76              	3.12115891e+02
77              	3.12162192e+02
78              	3.12211048e+02
79              	3.12265910e+02
80              	3.12322437e+02
81              	3.12379895e+02
82              	3.12438319e+02
83              	3.12495192e+02
84              	3.12547697e+02
85              	3.12598625e+02
86              	3.12650720e+02
87              	3.12706924e+02
88              	3.12764534e+02
89              	3.12817394e+02
90              	3.12867340e+02
91              	3.12913932e+02
92              	3.12961498e+02
93              	3.13005187e+02
94              	3.13046067e+02
95              	3.13084574e+02
96              	3.13122972e+02
97              	3.13161079e+02
98              	3.13191484e+02
99              	3.13223006e+02
100             	3.13250463e+02
101             	3.13281776e+02
102             	3.13309585e+02
103             	3.13341860e+02
104             	3.13378028e+02
105             	3.13416414e+02
106             	3.13455965e+02
107             	3.13496219e+02
108             	3.13536347e+02
109             	3.13576094e+02
110             	3.13614839e+02
111             	3.13651105e+02
112             	3.13687418e+02
113             	3.13723172e+02
114             	3.13759189e+02
115             	3.13795498e+02
116             	3.13832623e+02
117             	3.13867679e+02
118             	3.13899762e+02
119             	3.13929557e+02
120             	3.13958478e+02
121             	3.13986048e+02
122             	3.14013564e+02
123             	3.14040691e+02
124             	3.14066349e+02
125             	3.14090590e+02
126             	3.14113402e+02
127             	3.14135690e+02
128             	3.14158305e+02
129             	3.14181699e+02
130             	3.14205591e+02
131             	3.14231942e+02
132             	3.14262425e+02
133             	3.14296794e+02
134             	3.14334966e+02
135             	3.14374537e+02
136             	3.14408470e+02
137             	3.14436320e+02
138             	3.14463041e+02
139             	3.14490234e+02
140             	3.14515410e+02
141             	3.14539056e+02
142             	3.14560823e+02
143             	3.14581048e+02
144             	3.14601585e+02
145             	3.14620255e+02
146             	3.14640013e+02
147             	3.14659228e+02
148             	3.14679079e+02
149             	3.14698889e+02
150             	3.14717375e+02
151             	3.14733855e+02
152             	3.14747434e+02
153             	3.14759680e+02
154             	3.14771080e+02
155             	3.14781312e+02
156             	3.14791011e+02
157             	3.14800659e+02
158             	3.14809266e+02
159             	3.14817663e+02
160             	3.14827157e+02
161             	3.14837528e+02
162             	3.14848785e+02
163             	3.14861128e+02
164             	3.14875243e+02
165             	3.14891287e+02
166             	3.14909528e+02
167             	3.14929913e+02
168             	3.14952499e+02
169             	3.14976298e+02
170             	3.14998829e+02
171             	3.15019461e+02
172             	3.15038312e+02
173             	3.15055784e+02
174             	3.15072500e+02
175             	3.15088685e+02
176             	3.15103869e+02
177             	3.15116966e+02
178             	3.15128148e+02
179             	3.15138955e+02
180             	3.15150698e+02
181             	3.15164596e+02
182             	3.15179311e+02
183             	3.15193510e+02
184             	3.15205554e+02
185             	3.15216180e+02
186             	3.15225780e+02
187             	3.15234100e+02
188             	3.15241480e+02
189             	3.15248193e+02
190             	3.15254740e+02
191             	3.15262117e+02
192             	3.15270020e+02
193             	3.15278471e+02
194             	3.15287318e+02
195             	3.15296416e+02
196             	3.15305738e+02
197             	3.15315294e+02
198             	3.15325217e+02
199             	3.15335390e+02
200             	3.15345228e+02
201             	3.15355513e+02
202             	3.15366585e+02
203             	3.15378150e+02
204             	3.15391123e+02
205             	3.15404981e+02
206             	3.15419204e+02
207             	3.15433488e+02
208             	3.15447825e+02
209             	3.15462371e+02
210             	3.15476926e+02
211             	3.15489626e+02
212             	3.15500328e+02
213             	3.15510071e+02
214             	3.15519104e+02
215             	3.15527214e+02
216             	3.15534449e+02
217             	3.15541151e+02
218             	3.15547438e+02
219             	3.15553168e+02
220             	3.15558696e+02
221             	3.15564360e+02
222             	3.15569240e+02
223             	3.15573707e+02
224             	3.15578143e+02
225             	3.15582862e+02
226             	3.15587492e+02
227             	3.15592033e+02
228             	3.15596586e+02
229             	3.15601449e+02
230             	3.15605962e+02
231             	3.15610419e+02
232             	3.15615224e+02
233             	3.15620678e+02
234             	3.15626690e+02
235             	3.15632940e+02
236             	3.15639261e+02
237             	3.15646198e+02
238             	3.15653314e+02
239             	3.15660495e+02
240             	3.15667358e+02
241             	3.15674329e+02
242             	3.15681555e+02
243             	3.15688311e+02
244             	3.15695435e+02
245             	3.15703237e+02
246             	3.15710986e+02
247             	3.15718627e+02
248             	3.15726521e+02
249             	3.15734700e+02
250             	3.15743166e+02
251             	3.15751811e+02
252             	3.15760552e+02
253             	3.15768188e+02
254             	3.15775486e+02
255             	3.15782501e+02
256             	3.15788697e+02
257             	3.15793561e+02
258             	3.15798220e+02
259             	3.15802677e+02
260             	3.15806718e+02
261             	3.15810884e+02
262             	3.15814916e+02
263             	3.15818729e+02
264             	3.15823685e+02
265             	3.15827516e+02
266             	3.15831340e+02
267             	3.15835634e+02
268             	3.15840147e+02
269             	3.15844624e+02
270             	3.15848698e+02
271             	3.15852308e+02
272             	3.15855937e+02
273             	3.15859027e+02
274             	3.15862643e+02
275             	3.15866847e+02
276             	3.15871524e+02
277             	3.15876902e+02
278             	3.15882018e+02
279             	3.15886471e+02
280             	3.15890534e+02
281             	3.15894423e+02
282             	3.15898428e+02
283             	3.15902307e+02
284             	3.15906242e+02
285             	3.15910800e+02
286             	3.15914832e+02
287             	3.15919088e+02
288             	3.15923689e+02
289             	3.15928496e+02
290             	3.15933531e+02
291             	3.15938738e+02
292             	3.15942213e+02
293             	3.15944797e+02
294             	3.15947406e+02
295             	3.15949926e+02
296             	3.15952207e+02
297             	3.15954424e+02
298             	3.15956587e+02
299             	3.15959255e+02
300             	3.15962523e+02
301             	3.15966410e+02
302             	3.15970010e+02
303             	3.15973584e+02
304             	3.15977127e+02
305             	3.15980382e+02
306             	3.15983209e+02
307             	3.15985829e+02
308             	3.15988095e+02
309             	3.15990390e+02
310             	3.15992848e+02
311             	3.15995217e+02
312             	3.15997917e+02
313             	3.16000409e+02
314             	3.16002969e+02
315             	3.16003910e+02
316             	3.16004844e+02
317             	3.16006357e+02
318             	3.16008323e+02
319             	3.16010452e+02
320             	3.16012361e+02
321             	3.16014091e+02
322             	3.16015670e+02
323             	3.16017118e+02
324             	3.16018255e+02
325             	3.16019680e+02
326             	3.16021317e+02
327             	3.16023020e+02
328             	3.16025151e+02
329             	3.16027676e+02
330             	3.16030197e+02
331             	3.16032894e+02
332             	3.16035596e+02
333             	3.16038138e+02
334             	3.16040599e+02
335             	3.16042867e+02
336             	3.16045509e+02
337             	3.16047403e+02
338             	3.16048946e+02
339             	3.16050607e+02
340             	3.16052139e+02
341             	3.16053257e+02
342             	3.16054275e+02
343             	3.16055299e+02
344             	3.16056273e+02
345             	3.16057105e+02
346             	3.16057810e+02
347             	3.16058554e+02
348             	3.16059357e+02
349             	3.16060113e+02
350             	3.16060881e+02
351             	3.16061560e+02
352             	3.16062080e+02
353             	3.16062424e+02
354             	3.16063083e+02
355             	3.16062760e+02
356             	3.16061987e+02
357             	3.16061241e+02
358             	3.16060435e+02
359             	3.16059850e+02
360             	3.16059457e+02
361             	3.16059252e+02
362             	3.16059245e+02
363             	3.16059405e+02
364             	3.16059537e+02
365             	3.16059692e+02
366             	3.16060072e+02
367             	3.16060793e+02
368             	3.16061957e+02
369             	3.16063384e+02
370             	3.16065103e+02
371             	3.16067105e+02
372             	3.16069517e+02
373             	3.16072055e+02
374             	3.16075006e+02
375             	3.16077420e+02
376             	3.16079251e+02
377             	3.16080572e+02
378             	3.16082095e+02
379             	3.16083893e+02
380             	3.16085808e+02
381             	3.16087184e+02
382             	3.16088240e+02
383             	3.16089193e+02
384             	3.16090052e+02
385             	3.16090736e+02
386             	3.16091092e+02
387             	3.16091590e+02
388             	3.16092115e+02
389             	3.16092683e+02
390             	3.16093252e+02
391             	3.16093776e+02
392             	3.16094410e+02
393             	3.16094792e+02
394             	3.16095211e+02
395             	3.16095170e+02
396             	3.16094821e+02
397             	3.16094555e+02
398             	3.16094090e+02
399             	3.16093725e+02
400             	3.16093257e+02
401             	3.16092604e+02
402             	3.16092012e+02
403             	3.16091526e+02
404             	3.16091192e+02
405             	3.16090977e+02
406             	3.16091119e+02
407             	3.16091551e+02
408             	3.16092013e+02
409             	3.16092470e+02
410             	3.16092959e+02
411             	3.16093780e+02
412             	3.16094662e+02
413             	3.16095523e+02
414             	3.16096556e+02
415             	3.16097765e+02
416             	3.16098932e+02
417             	3.16099712e+02
418             	3.16100122e+02
419             	3.16100252e+02
420             	3.16100582e+02
421             	3.16101260e+02
422             	3.16102139e+02
423             	3.16103092e+02
424             	3.16104031e+02
425             	3.16104985e+02
426             	3.16105790e+02
427             	3.16106221e+02
428             	3.16106383e+02
429             	3.16106508e+02
430             	3.16106495e+02
431             	3.16106366e+02
432             	3.16106291e+02
433             	3.16106328e+02
434             	3.16106268e+02
435             	3.16106240e+02
436             	3.16105912e+02
437             	3.16105260e+02
438             	3.16104555e+02
439             	3.16103884e+02
440             	3.16103334e+02
441             	3.16102621e+02
442             	3.16101881e+02
443             	3.16101191e+02
444             	3.16100822e+02
445             	3.16100142e+02
446             	3.16099364e+02
447             	3.16098842e+02
448             	3.16098597e+02
449             	3.16098429e+02
450             	3.16098478e+02
451             	3.16098721e+02
452             	3.16099110e+02
453             	3.16099594e+02
454             	3.16100469e+02
455             	3.16101315e+02
456             	3.16102424e+02
457             	3.16103774e+02
458             	3.16105350e+02
459             	3.16106693e+02
460             	3.16107619e+02
461             	3.16108315e+02
462             	3.16108664e+02
463             	3.16108812e+02
464             	3.16108998e+02
465             	3.16109158e+02
466             	3.16109249e+02
467             	3.16109254e+02
468             	3.16109215e+02
469             	3.16109217e+02
470             	3.16109162e+02
471             	3.16109152e+02
472             	3.16109248e+02
473             	3.16109170e+02
474             	3.16109099e+02
475             	3.16108936e+02
476             	3.16108324e+02
477             	3.16107478e+02
478             	3.16106124e+02
479             	3.16104765e+02
480             	3.16103410e+02
481             	3.16101936e+02
482             	3.16100465e+02
483             	3.16099128e+02
484             	3.16097688e+02
485             	3.16096215e+02
486             	3.16094911e+02
487             	3.16094037e+02
488             	3.16093617e+02
489             	3.16093283e+02
490             	3.16092939e+02
491             	3.16092948e+02
492             	3.16093086e+02
493             	3.16093419e+02
494             	3.16094042e+02
495             	3.16094748e+02
496             	3.16095101e+02
497             	3.16095380e+02
498             	3.16096102e+02
499             	3.16097326e+02
500             	3.16097975e+02
501             	3.16098426e+02
502             	3.16098810e+02
503             	3.16099177e+02
504             	3.16099388e+02
505             	3.16099496e+02
506             	3.16099654e+02
507             	3.16099940e+02
508             	3.16100347e+02
509             	3.16100843e+02
510             	3.16101295e+02
511             	3.16101872e+02
512             	3.16102246e+02
513             	3.16101921e+02
514             	3.16101450e+02
515             	3.16100776e+02
516             	3.16099711e+02
517             	3.16098766e+02
518             	3.16097834e+02
519             	3.16096786e+02
520             	3.16095928e+02
521             	3.16095301e+02
522             	3.16094976e+02
523             	3.16094788e+02
524             	3.16094341e+02
525             	3.16093507e+02
526             	3.16092495e+02
527             	3.16091318e+02
528             	3.16090240e+02
529             	3.16089504e+02
530             	3.16089210e+02
531             	3.16089122e+02
532             	3.16088979e+02
533             	3.16088992e+02
534             	3.16089547e+02
535             	3.16090449e+02
536             	3.16091689e+02
537             	3.16093069e+02
538             	3.16094148e+02
539             	3.16095185e+02
540             	3.16096566e+02
541             	3.16097914e+02
542             	3.16098701e+02
543             	3.16098747e+02
544             	3.16098625e+02
545             	3.16098721e+02
546             	3.16098903e+02
547             	3.16099034e+02
548             	3.16099013e+02
549             	3.16099041e+02
550             	3.16098957e+02
551             	3.16098614e+02
552             	3.16097936e+02
553             	3.16096948e+02
554             	3.16095913e+02
555             	3.16094728e+02
556             	3.16093722e+02
557             	3.16092378e+02
558             	3.16090732e+02
559             	3.16089438e+02
560             	3.16087847e+02
561             	3.16086352e+02
562             	3.16085180e+02
563             	3.16084202e+02
564             	3.16083220e+02
565             	3.16082172e+02
566             	3.16081068e+02
567             	3.16080220e+02
568             	3.16079460e+02
569             	3.16079376e+02
570             	3.16079253e+02
571             	3.16079405e+02
572             	3.16080013e+02
573             	3.16080788e+02
574             	3.16081377e+02
575             	3.16081702e+02
576             	3.16081779e+02
577             	3.16082052e+02
578             	3.16082729e+02
579             	3.16083565e+02
580             	3.16084261e+02
581             	3.16084489e+02
582             	3.16084027e+02
583             	3.16082970e+02
584             	3.16082114e+02
585             	3.16081116e+02
586             	3.16080087e+02
587             	3.16079287e+02
588             	3.16078737e+02
589             	3.16078490e+02
590             	3.16078593e+02
591             	3.16078965e+02
592             	3.16078959e+02
593             	3.16078326e+02
594             	3.16077638e+02
595             	3.16076819e+02
596             	3.16075861e+02
597             	3.16074714e+02
598             	3.16073390e+02
599             	3.16072230e+02
600             	3.16071231e+02
601             	3.16070645e+02
602             	3.16070734e+02
603             	3.16069648e+02
604             	3.16069275e+02
605             	3.16070005e+02
606             	3.16071428e+02
607             	3.16073139e+02
608             	3.16075048e+02
609             	3.16076375e+02
610             	3.16077854e+02
611             	3.16079098e+02
612             	3.16080145e+02
613             	3.16081507e+02
614             	3.16083309e+02
615             	3.16084761e+02
616             	3.16085288e+02
617             	3.16085567e+02
618             	3.16085669e+02
619             	3.16085830e+02
620             	3.16085840e+02
621             	3.16085367e+02
