# Region        : cellZone component_4
# Cells         : 68
# Volume        : 1.19276145e-01
# Time          	volAverage(T)
1               	3.02225793e+02
2               	3.04390409e+02
3               	3.06243357e+02
4               	3.07921212e+02
5               	3.09544403e+02
6               	3.11139633e+02
7               	3.12705410e+02
8               	3.14244784e+02
9               	3.15768998e+02
10              	3.17293016e+02
11              	3.18793958e+02
12              	3.20249420e+02
13              	3.21668442e+02
14              	3.23036386e+02
15              	3.24340927e+02
16              	3.25567522e+02
17              	3.26737769e+02
18              	3.27866764e+02
19              	3.28956175e+02
20              	3.29992048e+02
21              	3.31095655e+02
22              	3.32257283e+02
23              	3.33380929e+02
24              	3.34459278e+02
25              	3.35497403e+02
26              	3.36502842e+02
27              	3.37483890e+02
28              	3.38451771e+02
29              	3.39428185e+02
30              	3.40317770e+02
31              	3.41095607e+02
32              	3.41799554e+02
33              	3.42419128e+02
34              	3.42916686e+02
35              	3.43286647e+02
36              	3.43726365e+02
37              	3.44246735e+02
38              	3.44792595e+02
39              	3.45355284e+02
40              	3.45922996e+02
41              	3.46521634e+02
42              	3.47107916e+02
43              	3.47693692e+02
44              	3.48282993e+02
45              	3.48895162e+02
46              	3.49556063e+02
47              	3.50058385e+02
48              	3.50349896e+02
49              	3.50557287e+02
50              	3.50703913e+02
51              	3.50840857e+02
52              	3.50901864e+02
53              	3.51082585e+02
54              	3.51496461e+02
55              	3.51912053e+02
56              	3.52308551e+02
57              	3.52689896e+02
58              	3.53076534e+02
59              	3.53468829e+02
60              	3.54009767e+02
61              	3.54294908e+02
62              	3.54409909e+02
63              	3.54412331e+02
64              	3.54324598e+02
65              	3.54190419e+02
66              	3.54150962e+02
67              	3.54365274e+02
68              	3.54591045e+02
69              	3.54797295e+02
70              	3.54988406e+02
71              	3.55214816e+02
72              	3.55467369e+02
73              	3.55765463e+02
74              	3.56097594e+02
75              	3.56434056e+02
76              	3.56787681e+02
77              	3.57155260e+02
78              	3.57527444e+02
79              	3.57923915e+02
80              	3.58323549e+02
81              	3.58713693e+02
82              	3.59094150e+02
83              	3.59483208e+02
84              	3.59881416e+02
85              	3.60307707e+02
86              	3.60732993e+02
87              	3.61092585e+02
88              	3.61420287e+02
89              	3.61761482e+02
90              	3.62048615e+02
91              	3.62282396e+02
92              	3.62471789e+02
93              	3.62627405e+02
94              	3.62766386e+02
95              	3.62899224e+02
96              	3.63040140e+02
97              	3.63178482e+02
98              	3.63332752e+02
99              	3.63521411e+02
100             	3.63760130e+02
101             	3.64009148e+02
102             	3.64244382e+02
103             	3.64432020e+02
104             	3.64578292e+02
105             	3.64755549e+02
106             	3.64929078e+02
107             	3.65090675e+02
108             	3.65246054e+02
109             	3.65400428e+02
110             	3.65556033e+02
111             	3.65717697e+02
112             	3.65882602e+02
113             	3.66057570e+02
114             	3.66255777e+02
115             	3.66480524e+02
116             	3.66733161e+02
117             	3.67017801e+02
118             	3.67320564e+02
119             	3.67631349e+02
120             	3.67942136e+02
121             	3.68241191e+02
122             	3.68537835e+02
123             	3.68814575e+02
124             	3.69075504e+02
125             	3.69317950e+02
126             	3.69542906e+02
127             	3.69750777e+02
128             	3.69946169e+02
129             	3.70134232e+02
130             	3.70316014e+02
131             	3.70493018e+02
132             	3.70663328e+02
133             	3.70828001e+02
134             	3.70987610e+02
135             	3.71140719e+02
136             	3.71292918e+02
137             	3.71450120e+02
138             	3.71607844e+02
139             	3.71768630e+02
140             	3.71935397e+02
141             	3.72100365e+02
142             	3.72263133e+02
143             	3.72427215e+02
144             	3.72590108e+02
145             	3.72749988e+02
146             	3.72903489e+02
147             	3.73050940e+02
148             	3.73192568e+02
149             	3.73324912e+02
150             	3.73441740e+02
151             	3.73557987e+02
152             	3.73665053e+02
153             	3.73761234e+02
154             	3.73846537e+02
155             	3.73923127e+02
156             	3.73995914e+02
157             	3.74066912e+02
158             	3.74137505e+02
159             	3.74214444e+02
160             	3.74298219e+02
161             	3.74387497e+02
162             	3.74483478e+02
163             	3.74581746e+02
164             	3.74677447e+02
165             	3.74772454e+02
166             	3.74865197e+02
167             	3.74952529e+02
168             	3.75034717e+02
169             	3.75112552e+02
170             	3.75184890e+02
171             	3.75255670e+02
172             	3.75323787e+02
173             	3.75388506e+02
174             	3.75453622e+02
175             	3.75517462e+02
176             	3.75577154e+02
177             	3.75632697e+02
178             	3.75684185e+02
179             	3.75731915e+02
180             	3.75775148e+02
181             	3.75816009e+02
182             	3.75855652e+02
183             	3.75894495e+02
184             	3.75933053e+02
185             	3.75969352e+02
186             	3.76004671e+02
187             	3.76040020e+02
188             	3.76074769e+02
189             	3.76109047e+02
190             	3.76143027e+02
191             	3.76176281e+02
192             	3.76209093e+02
193             	3.76241815e+02
194             	3.76273738e+02
195             	3.76304353e+02
196             	3.76333706e+02
197             	3.76363037e+02
198             	3.76391916e+02
199             	3.76420053e+02
200             	3.76447050e+02
201             	3.76472478e+02
202             	3.76495865e+02
203             	3.76516629e+02
204             	3.76535578e+02
205             	3.76552726e+02
206             	3.76567712e+02
207             	3.76581123e+02
208             	3.76593343e+02
209             	3.76604543e+02
210             	3.76614598e+02
211             	3.76624243e+02
212             	3.76633680e+02
213             	3.76642962e+02
214             	3.76652456e+02
215             	3.76661810e+02
216             	3.76670992e+02
217             	3.76680105e+02
218             	3.76689172e+02
219             	3.76698204e+02
220             	3.76706475e+02
221             	3.76714277e+02
222             	3.76721724e+02
223             	3.76728684e+02
224             	3.76735115e+02
225             	3.76741096e+02
226             	3.76746982e+02
227             	3.76751833e+02
228             	3.76756337e+02
229             	3.76759496e+02
230             	3.76762111e+02
231             	3.76763958e+02
232             	3.76764513e+02
233             	3.76763966e+02
234             	3.76763014e+02
235             	3.76761499e+02
236             	3.76759617e+02
237             	3.76758213e+02
238             	3.76756984e+02
239             	3.76755113e+02
240             	3.76752728e+02
241             	3.76750148e+02
242             	3.76747670e+02
243             	3.76745285e+02
244             	3.76742540e+02
245             	3.76739530e+02
246             	3.76736512e+02
247             	3.76733321e+02
248             	3.76730029e+02
249             	3.76726332e+02
250             	3.76722528e+02
251             	3.76718554e+02
252             	3.76714318e+02
253             	3.76709806e+02
254             	3.76705015e+02
255             	3.76699918e+02
256             	3.76694365e+02
257             	3.76688373e+02
258             	3.76682050e+02
259             	3.76675336e+02
260             	3.76668228e+02
261             	3.76660702e+02
262             	3.76652861e+02
263             	3.76644751e+02
264             	3.76636434e+02
265             	3.76627819e+02
266             	3.76618975e+02
267             	3.76609886e+02
268             	3.76600556e+02
269             	3.76591342e+02
270             	3.76581891e+02
271             	3.76572181e+02
272             	3.76562280e+02
273             	3.76552719e+02
274             	3.76543115e+02
275             	3.76533434e+02
276             	3.76523861e+02
277             	3.76514325e+02
278             	3.76504846e+02
279             	3.76495410e+02
280             	3.76485876e+02
281             	3.76476207e+02
282             	3.76466384e+02
283             	3.76456213e+02
284             	3.76445923e+02
285             	3.76435438e+02
286             	3.76424683e+02
287             	3.76413778e+02
288             	3.76402774e+02
289             	3.76391778e+02
290             	3.76380841e+02
291             	3.76369971e+02
292             	3.76359147e+02
293             	3.76348489e+02
294             	3.76338025e+02
295             	3.76327794e+02
296             	3.76317649e+02
297             	3.76307588e+02
298             	3.76297655e+02
299             	3.76287900e+02
300             	3.76278148e+02
301             	3.76268482e+02
302             	3.76258882e+02
303             	3.76249179e+02
304             	3.76239471e+02
305             	3.76229800e+02
306             	3.76220149e+02
307             	3.76210476e+02
308             	3.76200795e+02
309             	3.76190850e+02
310             	3.76180919e+02
311             	3.76171093e+02
312             	3.76161350e+02
313             	3.76151705e+02
314             	3.76142166e+02
315             	3.76132799e+02
316             	3.76123640e+02
317             	3.76114691e+02
318             	3.76105853e+02
319             	3.76097037e+02
320             	3.76088314e+02
321             	3.76080046e+02
322             	3.76072109e+02
323             	3.76064169e+02
324             	3.76056397e+02
325             	3.76048800e+02
326             	3.76041454e+02
327             	3.76034243e+02
328             	3.76027088e+02
329             	3.76019792e+02
330             	3.76012628e+02
331             	3.76005545e+02
332             	3.75998507e+02
333             	3.75991521e+02
334             	3.75984569e+02
335             	3.75977659e+02
336             	3.75970778e+02
337             	3.75963949e+02
338             	3.75957268e+02
339             	3.75950697e+02
340             	3.75944229e+02
341             	3.75937933e+02
342             	3.75931731e+02
343             	3.75925748e+02
344             	3.75919866e+02
345             	3.75914089e+02
346             	3.75908397e+02
347             	3.75902806e+02
348             	3.75897335e+02
349             	3.75891966e+02
350             	3.75886685e+02
351             	3.75881496e+02
352             	3.75876389e+02
353             	3.75871574e+02
354             	3.75866855e+02
355             	3.75862226e+02
356             	3.75857754e+02
357             	3.75853393e+02
358             	3.75849139e+02
359             	3.75844961e+02
360             	3.75840868e+02
361             	3.75836845e+02
362             	3.75832897e+02
363             	3.75829017e+02
364             	3.75825190e+02
365             	3.75821365e+02
366             	3.75817530e+02
367             	3.75813742e+02
368             	3.75810003e+02
369             	3.75806295e+02
370             	3.75802627e+02
371             	3.75798978e+02
372             	3.75795337e+02
373             	3.75791735e+02
374             	3.75788180e+02
375             	3.75784677e+02
376             	3.75781375e+02
377             	3.75778119e+02
378             	3.75774936e+02
379             	3.75771911e+02
380             	3.75769004e+02
381             	3.75766195e+02
382             	3.75763489e+02
383             	3.75760915e+02
384             	3.75758437e+02
385             	3.75756001e+02
386             	3.75753657e+02
387             	3.75751392e+02
388             	3.75749173e+02
389             	3.75746999e+02
390             	3.75744855e+02
391             	3.75742729e+02
392             	3.75740636e+02
393             	3.75738499e+02
394             	3.75736366e+02
395             	3.75734258e+02
396             	3.75732154e+02
397             	3.75730082e+02
398             	3.75728044e+02
399             	3.75726057e+02
400             	3.75724137e+02
401             	3.75722311e+02
402             	3.75720529e+02
403             	3.75718790e+02
404             	3.75717108e+02
405             	3.75715445e+02
406             	3.75713778e+02
407             	3.75712105e+02
408             	3.75710432e+02
409             	3.75708816e+02
410             	3.75707224e+02
411             	3.75705693e+02
412             	3.75704199e+02
413             	3.75702755e+02
414             	3.75701370e+02
415             	3.75700009e+02
416             	3.75698664e+02
417             	3.75697365e+02
418             	3.75696091e+02
419             	3.75694838e+02
420             	3.75693595e+02
421             	3.75692390e+02
422             	3.75691244e+02
423             	3.75690160e+02
424             	3.75689129e+02
425             	3.75688128e+02
426             	3.75687186e+02
427             	3.75686285e+02
428             	3.75685433e+02
429             	3.75684575e+02
430             	3.75683724e+02
431             	3.75682906e+02
432             	3.75682071e+02
433             	3.75681234e+02
434             	3.75680395e+02
435             	3.75679598e+02
436             	3.75678853e+02
437             	3.75678143e+02
438             	3.75677480e+02
439             	3.75676860e+02
440             	3.75676287e+02
441             	3.75675737e+02
442             	3.75675197e+02
443             	3.75674591e+02
444             	3.75673902e+02
445             	3.75673195e+02
446             	3.75672435e+02
447             	3.75671697e+02
448             	3.75670920e+02
449             	3.75670199e+02
450             	3.75669501e+02
451             	3.75668832e+02
452             	3.75668239e+02
453             	3.75667708e+02
454             	3.75667237e+02
455             	3.75666756e+02
456             	3.75666234e+02
457             	3.75665739e+02
458             	3.75665245e+02
459             	3.75664732e+02
460             	3.75664201e+02
461             	3.75663659e+02
462             	3.75663116e+02
463             	3.75662569e+02
464             	3.75662007e+02
465             	3.75661487e+02
466             	3.75660977e+02
467             	3.75660492e+02
468             	3.75660039e+02
469             	3.75659613e+02
470             	3.75659216e+02
471             	3.75658828e+02
472             	3.75658472e+02
473             	3.75658122e+02
474             	3.75657782e+02
475             	3.75657448e+02
476             	3.75657102e+02
477             	3.75656744e+02
478             	3.75656371e+02
479             	3.75656002e+02
480             	3.75655618e+02
481             	3.75655239e+02
482             	3.75654858e+02
483             	3.75654523e+02
484             	3.75654204e+02
485             	3.75653894e+02
486             	3.75653618e+02
487             	3.75653364e+02
488             	3.75653143e+02
489             	3.75652941e+02
490             	3.75652760e+02
491             	3.75652592e+02
492             	3.75652435e+02
493             	3.75652281e+02
494             	3.75652133e+02
495             	3.75651985e+02
496             	3.75651839e+02
497             	3.75651675e+02
498             	3.75651508e+02
499             	3.75651344e+02
500             	3.75651179e+02
501             	3.75651022e+02
502             	3.75650867e+02
503             	3.75650726e+02
504             	3.75650589e+02
505             	3.75650470e+02
506             	3.75650354e+02
507             	3.75650241e+02
508             	3.75650134e+02
509             	3.75650023e+02
510             	3.75649912e+02
511             	3.75649801e+02
512             	3.75649694e+02
513             	3.75649587e+02
514             	3.75649483e+02
515             	3.75649378e+02
516             	3.75649251e+02
517             	3.75649121e+02
518             	3.75648987e+02
519             	3.75648842e+02
520             	3.75648688e+02
521             	3.75648526e+02
522             	3.75648359e+02
523             	3.75648198e+02
524             	3.75648041e+02
525             	3.75647904e+02
526             	3.75647785e+02
527             	3.75647678e+02
528             	3.75647592e+02
529             	3.75647522e+02
530             	3.75647467e+02
531             	3.75647421e+02
532             	3.75647381e+02
533             	3.75647335e+02
534             	3.75647282e+02
535             	3.75647212e+02
536             	3.75647134e+02
537             	3.75647039e+02
538             	3.75646940e+02
539             	3.75646842e+02
540             	3.75646751e+02
541             	3.75646680e+02
542             	3.75646625e+02
543             	3.75646597e+02
544             	3.75646587e+02
545             	3.75646595e+02
546             	3.75646620e+02
547             	3.75646656e+02
548             	3.75646701e+02
549             	3.75646748e+02
550             	3.75646799e+02
551             	3.75646840e+02
552             	3.75646873e+02
553             	3.75646892e+02
554             	3.75646895e+02
555             	3.75646879e+02
556             	3.75646848e+02
557             	3.75646802e+02
558             	3.75646751e+02
559             	3.75646699e+02
560             	3.75646655e+02
561             	3.75646623e+02
562             	3.75646605e+02
563             	3.75646608e+02
564             	3.75646620e+02
565             	3.75646640e+02
566             	3.75646662e+02
567             	3.75646683e+02
568             	3.75646701e+02
569             	3.75646713e+02
570             	3.75646719e+02
571             	3.75646720e+02
572             	3.75646720e+02
573             	3.75646724e+02
574             	3.75646736e+02
575             	3.75646761e+02
576             	3.75646801e+02
577             	3.75646860e+02
578             	3.75646935e+02
579             	3.75647026e+02
580             	3.75647129e+02
581             	3.75647242e+02
582             	3.75647355e+02
583             	3.75647465e+02
584             	3.75647567e+02
585             	3.75647655e+02
586             	3.75647737e+02
587             	3.75647824e+02
588             	3.75647914e+02
589             	3.75648009e+02
590             	3.75648110e+02
591             	3.75648216e+02
592             	3.75648321e+02
593             	3.75648419e+02
594             	3.75648500e+02
595             	3.75648563e+02
596             	3.75648607e+02
597             	3.75648635e+02
598             	3.75648655e+02
599             	3.75648671e+02
600             	3.75648693e+02
601             	3.75648725e+02
602             	3.75648771e+02
603             	3.75648833e+02
604             	3.75648911e+02
605             	3.75649011e+02
606             	3.75649122e+02
607             	3.75649242e+02
608             	3.75649363e+02
609             	3.75649484e+02
610             	3.75649604e+02
611             	3.75649718e+02
612             	3.75649826e+02
613             	3.75649927e+02
614             	3.75650024e+02
615             	3.75650118e+02
616             	3.75650207e+02
617             	3.75650292e+02
618             	3.75650372e+02
619             	3.75650445e+02
620             	3.75650513e+02
621             	3.75650578e+02
