# Region        : cellZone component_2
# Cells         : 113
# Volume        : 1.88241858e-01
# Time          	volAverage(T)
1               	3.01553833e+02
2               	3.03067410e+02
3               	3.04301147e+02
4               	3.05361312e+02
5               	3.06383920e+02
6               	3.07396942e+02
7               	3.08377654e+02
8               	3.09315738e+02
9               	3.10233649e+02
10              	3.11118889e+02
11              	3.11963702e+02
12              	3.12768218e+02
13              	3.13567331e+02
14              	3.14359201e+02
15              	3.15173926e+02
16              	3.15957458e+02
17              	3.16670263e+02
18              	3.17296378e+02
19              	3.17852092e+02
20              	3.18419785e+02
21              	3.18999432e+02
22              	3.19578488e+02
23              	3.20105928e+02
24              	3.20591843e+02
25              	3.21056709e+02
26              	3.21518546e+02
27              	3.21948854e+02
28              	3.22299796e+02
29              	3.22620129e+02
30              	3.22949064e+02
31              	3.23309194e+02
32              	3.23674460e+02
33              	3.24050257e+02
34              	3.24428292e+02
35              	3.24774446e+02
36              	3.25105214e+02
37              	3.25440941e+02
38              	3.25811892e+02
39              	3.26169974e+02
40              	3.26495422e+02
41              	3.26764190e+02
42              	3.26997041e+02
43              	3.27228579e+02
44              	3.27519336e+02
45              	3.27822861e+02
46              	3.28102161e+02
47              	3.28363130e+02
48              	3.28611418e+02
49              	3.28844133e+02
50              	3.29076912e+02
51              	3.29324163e+02
52              	3.29546850e+02
53              	3.29686896e+02
54              	3.29830825e+02
55              	3.29987139e+02
56              	3.30170184e+02
57              	3.30364370e+02
58              	3.30527112e+02
59              	3.30654774e+02
60              	3.30767709e+02
61              	3.30904985e+02
62              	3.31037880e+02
63              	3.31120556e+02
64              	3.31170207e+02
65              	3.31244851e+02
66              	3.31326154e+02
67              	3.31466620e+02
68              	3.31618864e+02
69              	3.31724577e+02
70              	3.31805100e+02
71              	3.31842165e+02
72              	3.31852426e+02
73              	3.31874095e+02
74              	3.31930419e+02
75              	3.31987921e+02
76              	3.31991210e+02
77              	3.31949053e+02
78              	3.31827867e+02
79              	3.31728226e+02
80              	3.31679498e+02
81              	3.31651990e+02
82              	3.31635614e+02
83              	3.31596290e+02
84              	3.31531214e+02
85              	3.31471710e+02
86              	3.31441706e+02
87              	3.31435802e+02
88              	3.31428916e+02
89              	3.31449113e+02
90              	3.31489199e+02
91              	3.31564344e+02
92              	3.31648066e+02
93              	3.31729965e+02
94              	3.31788590e+02
95              	3.31828145e+02
96              	3.31841161e+02
97              	3.31853180e+02
98              	3.31876974e+02
99              	3.31918347e+02
100             	3.31964606e+02
101             	3.32010941e+02
102             	3.32057746e+02
103             	3.32098545e+02
104             	3.32149941e+02
105             	3.32201580e+02
106             	3.32215178e+02
107             	3.32203298e+02
108             	3.32177168e+02
109             	3.32141582e+02
110             	3.32094330e+02
111             	3.32049682e+02
112             	3.32007586e+02
113             	3.31946509e+02
114             	3.31908993e+02
115             	3.31885532e+02
116             	3.31889627e+02
117             	3.31914528e+02
118             	3.31930236e+02
119             	3.31942013e+02
120             	3.31945288e+02
121             	3.31959039e+02
122             	3.31998174e+02
123             	3.32040425e+02
124             	3.32054654e+02
125             	3.32082801e+02
126             	3.32119190e+02
127             	3.32180459e+02
128             	3.32239689e+02
129             	3.32283293e+02
130             	3.32314777e+02
131             	3.32326370e+02
132             	3.32332459e+02
133             	3.32343869e+02
134             	3.32306120e+02
135             	3.32213687e+02
136             	3.32131497e+02
137             	3.32070981e+02
138             	3.32059363e+02
139             	3.32078163e+02
140             	3.32103235e+02
141             	3.32109815e+02
142             	3.32110902e+02
143             	3.32116194e+02
144             	3.32112760e+02
145             	3.32116906e+02
146             	3.32111740e+02
147             	3.32078588e+02
148             	3.32065881e+02
149             	3.32081429e+02
150             	3.32126222e+02
151             	3.32158274e+02
152             	3.32188626e+02
153             	3.32208938e+02
154             	3.32242831e+02
155             	3.32271531e+02
156             	3.32289782e+02
157             	3.32285609e+02
158             	3.32248619e+02
159             	3.32222219e+02
160             	3.32217279e+02
161             	3.32228797e+02
162             	3.32249521e+02
163             	3.32253970e+02
164             	3.32242406e+02
165             	3.32247740e+02
166             	3.32253116e+02
167             	3.32267996e+02
168             	3.32253248e+02
169             	3.32194456e+02
170             	3.32154833e+02
171             	3.32143626e+02
172             	3.32185665e+02
173             	3.32212387e+02
174             	3.32228888e+02
175             	3.32238871e+02
176             	3.32242521e+02
177             	3.32269663e+02
178             	3.32311867e+02
179             	3.32331607e+02
180             	3.32285801e+02
181             	3.32250275e+02
182             	3.32233536e+02
183             	3.32245551e+02
184             	3.32272192e+02
185             	3.32296968e+02
186             	3.32288763e+02
187             	3.32294695e+02
188             	3.32312074e+02
189             	3.32335668e+02
190             	3.32307152e+02
191             	3.32229413e+02
192             	3.32161087e+02
193             	3.32136839e+02
194             	3.32141322e+02
195             	3.32149111e+02
196             	3.32151438e+02
197             	3.32168868e+02
198             	3.32157396e+02
199             	3.32175177e+02
200             	3.32197823e+02
201             	3.32158361e+02
202             	3.32069859e+02
203             	3.31998673e+02
204             	3.31985886e+02
205             	3.32011620e+02
206             	3.32009088e+02
207             	3.32010453e+02
208             	3.31995942e+02
209             	3.32010453e+02
210             	3.32029215e+02
211             	3.32067840e+02
212             	3.32068614e+02
213             	3.32039452e+02
214             	3.32012299e+02
215             	3.32015737e+02
216             	3.32019570e+02
217             	3.32013173e+02
218             	3.31978819e+02
219             	3.31975490e+02
220             	3.31978184e+02
221             	3.32016262e+02
222             	3.32031690e+02
223             	3.32000817e+02
224             	3.31969454e+02
225             	3.31959581e+02
226             	3.31963784e+02
227             	3.31970597e+02
228             	3.31946454e+02
229             	3.31947655e+02
230             	3.31945334e+02
231             	3.31983203e+02
232             	3.32004851e+02
233             	3.31968354e+02
234             	3.31928607e+02
235             	3.31877169e+02
236             	3.31851869e+02
237             	3.31846666e+02
238             	3.31783514e+02
239             	3.31744266e+02
240             	3.31711571e+02
241             	3.31726749e+02
242             	3.31742789e+02
243             	3.31698475e+02
244             	3.31601904e+02
245             	3.31499797e+02
246             	3.31479246e+02
247             	3.31540920e+02
248             	3.31555798e+02
249             	3.31534893e+02
250             	3.31503891e+02
251             	3.31541199e+02
252             	3.31568681e+02
253             	3.31580234e+02
254             	3.31581199e+02
255             	3.31560927e+02
256             	3.31539652e+02
257             	3.31545544e+02
258             	3.31596769e+02
259             	3.31594492e+02
260             	3.31591891e+02
261             	3.31590726e+02
262             	3.31613912e+02
263             	3.31682233e+02
264             	3.31691199e+02
265             	3.31626260e+02
266             	3.31527402e+02
267             	3.31446142e+02
268             	3.31466325e+02
269             	3.31520756e+02
270             	3.31537249e+02
271             	3.31582734e+02
272             	3.31600988e+02
273             	3.31676978e+02
274             	3.31722815e+02
275             	3.31707102e+02
276             	3.31609251e+02
277             	3.31503592e+02
278             	3.31443657e+02
279             	3.31466649e+02
280             	3.31431178e+02
281             	3.31364000e+02
282             	3.31340749e+02
283             	3.31342178e+02
284             	3.31378248e+02
285             	3.31308890e+02
286             	3.31108736e+02
287             	3.30885690e+02
288             	3.30768631e+02
289             	3.30835502e+02
290             	3.30727227e+02
291             	3.30520142e+02
292             	3.30452755e+02
293             	3.30563206e+02
294             	3.30639364e+02
295             	3.30367790e+02
296             	3.29441970e+02
297             	3.28979291e+02
298             	3.29532658e+02
299             	3.29836660e+02
300             	3.28472902e+02
301             	3.27291031e+02
302             	3.28867535e+02
303             	3.31088248e+02
304             	3.29266821e+02
305             	3.26700253e+02
306             	3.27107452e+02
307             	3.30386367e+02
308             	3.30261899e+02
309             	3.26415102e+02
310             	3.24462188e+02
311             	3.27610297e+02
312             	3.31779805e+02
313             	3.29354807e+02
314             	3.25306918e+02
315             	3.24834104e+02
316             	3.27905103e+02
317             	3.29425553e+02
318             	3.26475312e+02
319             	3.23526202e+02
320             	3.25535879e+02
321             	3.30005739e+02
322             	3.28780289e+02
323             	3.24781858e+02
324             	3.23111446e+02
325             	3.25691134e+02
326             	3.27349811e+02
327             	3.26767811e+02
328             	3.24064525e+02
329             	3.24311602e+02
330             	3.27492407e+02
331             	3.27087931e+02
332             	3.25002821e+02
333             	3.23548405e+02
334             	3.24784686e+02
335             	3.26000138e+02
336             	3.25777680e+02
337             	3.23818391e+02
338             	3.23560743e+02
339             	3.25518678e+02
340             	3.25089869e+02
341             	3.23220706e+02
342             	3.22608384e+02
343             	3.24859954e+02
344             	3.24697393e+02
345             	3.23257178e+02
346             	3.22552437e+02
347             	3.23120912e+02
348             	3.23345882e+02
349             	3.23483540e+02
350             	3.23715471e+02
351             	3.24734467e+02
352             	3.25070297e+02
353             	3.22283438e+02
354             	3.21660683e+02
355             	3.24268306e+02
356             	3.26220036e+02
357             	3.23118015e+02
358             	3.20378634e+02
359             	3.22152175e+02
360             	3.26085272e+02
361             	3.25685511e+02
362             	3.20393827e+02
363             	3.18871204e+02
364             	3.24203348e+02
365             	3.29223681e+02
366             	3.24149822e+02
367             	3.18444854e+02
368             	3.19404375e+02
369             	3.25497185e+02
370             	3.26931931e+02
371             	3.21129966e+02
372             	3.17918161e+02
373             	3.22348086e+02
374             	3.27956229e+02
375             	3.24408444e+02
376             	3.18676661e+02
377             	3.19062149e+02
378             	3.24630169e+02
379             	3.25710167e+02
380             	3.21792230e+02
381             	3.19722694e+02
382             	3.22040289e+02
383             	3.24509644e+02
384             	3.23242526e+02
385             	3.20625916e+02
386             	3.21699776e+02
387             	3.24929565e+02
388             	3.24177463e+02
389             	3.21816485e+02
390             	3.20989132e+02
391             	3.22826074e+02
392             	3.23798340e+02
393             	3.23168744e+02
394             	3.21925755e+02
395             	3.22605186e+02
396             	3.24455640e+02
397             	3.23415415e+02
398             	3.22272737e+02
399             	3.22747248e+02
400             	3.23883053e+02
401             	3.22860766e+02
402             	3.21843629e+02
403             	3.22681102e+02
404             	3.24601954e+02
405             	3.24360840e+02
406             	3.21348552e+02
407             	3.20717187e+02
408             	3.23803738e+02
409             	3.26566991e+02
410             	3.23829632e+02
411             	3.20691257e+02
412             	3.21627317e+02
413             	3.25310358e+02
414             	3.26096501e+02
415             	3.22540150e+02
416             	3.20366819e+02
417             	3.23603605e+02
418             	3.28106105e+02
419             	3.25789682e+02
420             	3.21315873e+02
421             	3.21158540e+02
422             	3.25348253e+02
423             	3.27109251e+02
424             	3.24440919e+02
425             	3.21407037e+02
426             	3.22929541e+02
427             	3.28022608e+02
428             	3.27255867e+02
429             	3.22789481e+02
430             	3.21468762e+02
431             	3.25002958e+02
432             	3.27548946e+02
433             	3.25959910e+02
434             	3.22482177e+02
435             	3.22479735e+02
436             	3.25871087e+02
437             	3.26702106e+02
438             	3.23775460e+02
439             	3.21929836e+02
440             	3.24370365e+02
441             	3.27068493e+02
442             	3.26082977e+02
443             	3.23193818e+02
444             	3.22811678e+02
445             	3.25349034e+02
446             	3.26405617e+02
447             	3.24929464e+02
448             	3.23078209e+02
449             	3.24405122e+02
450             	3.27092931e+02
451             	3.25814304e+02
452             	3.23677872e+02
453             	3.23835749e+02
454             	3.25811739e+02
455             	3.25815727e+02
456             	3.24368280e+02
457             	3.23671638e+02
458             	3.25216409e+02
459             	3.26669256e+02
460             	3.24689067e+02
461             	3.22828004e+02
462             	3.24119539e+02
463             	3.26881966e+02
464             	3.25520840e+02
465             	3.22889600e+02
466             	3.22901507e+02
467             	3.25261512e+02
468             	3.26090497e+02
469             	3.24055383e+02
470             	3.22476154e+02
471             	3.24660837e+02
472             	3.28064228e+02
473             	3.25797341e+02
474             	3.22308229e+02
475             	3.22784891e+02
476             	3.26435228e+02
477             	3.26759131e+02
478             	3.23522481e+02
479             	3.21825851e+02
480             	3.24412322e+02
481             	3.27882891e+02
482             	3.25048381e+02
483             	3.21275721e+02
484             	3.21949320e+02
485             	3.26446921e+02
486             	3.26918277e+02
487             	3.23756653e+02
488             	3.20956834e+02
489             	3.22692498e+02
490             	3.25343956e+02
491             	3.24532430e+02
492             	3.21087669e+02
493             	3.21968697e+02
494             	3.26418424e+02
495             	3.25661532e+02
496             	3.22242486e+02
497             	3.20196787e+02
498             	3.23082710e+02
499             	3.24848112e+02
500             	3.23228699e+02
501             	3.21157189e+02
502             	3.22142434e+02
503             	3.24162605e+02
504             	3.23434816e+02
505             	3.21704771e+02
506             	3.21864695e+02
507             	3.24560097e+02
508             	3.24303043e+02
509             	3.22887919e+02
510             	3.21767362e+02
511             	3.22134223e+02
512             	3.22343052e+02
513             	3.22396130e+02
514             	3.22523290e+02
515             	3.23094520e+02
516             	3.23340148e+02
517             	3.21790252e+02
518             	3.21949003e+02
519             	3.23044207e+02
520             	3.23351825e+02
521             	3.20849157e+02
522             	3.20918203e+02
523             	3.23931841e+02
524             	3.24528336e+02
525             	3.20131623e+02
526             	3.18776157e+02
527             	3.21854537e+02
528             	3.23753415e+02
529             	3.20610492e+02
530             	3.17894221e+02
531             	3.19579797e+02
532             	3.23025275e+02
533             	3.21235108e+02
534             	3.16733398e+02
535             	3.17019895e+02
536             	3.23590932e+02
537             	3.26327980e+02
538             	3.18186375e+02
539             	3.14296811e+02
540             	3.19020039e+02
541             	3.25315861e+02
542             	3.20046399e+02
543             	3.15268908e+02
544             	3.16588437e+02
545             	3.21577481e+02
546             	3.20857795e+02
547             	3.16485986e+02
548             	3.15294775e+02
549             	3.19245279e+02
550             	3.21043058e+02
551             	3.17727371e+02
552             	3.15807147e+02
553             	3.17415685e+02
554             	3.18078543e+02
555             	3.17290436e+02
556             	3.16220903e+02
557             	3.18519833e+02
558             	3.20664188e+02
559             	3.17177280e+02
560             	3.14402679e+02
561             	3.16110846e+02
562             	3.20769791e+02
563             	3.19719811e+02
564             	3.15456251e+02
565             	3.12738262e+02
566             	3.16944687e+02
567             	3.20793247e+02
568             	3.18682688e+02
569             	3.12955319e+02
570             	3.14104511e+02
571             	3.18710884e+02
572             	3.19833204e+02
573             	3.16650874e+02
574             	3.14032507e+02
575             	3.14466847e+02
576             	3.17284461e+02
577             	3.19952803e+02
578             	3.17819601e+02
579             	3.13230537e+02
580             	3.14629772e+02
581             	3.19588616e+02
582             	3.19199282e+02
583             	3.13256318e+02
584             	3.12391517e+02
585             	3.17180833e+02
586             	3.19947757e+02
587             	3.15354797e+02
588             	3.11305244e+02
589             	3.14184423e+02
590             	3.21340047e+02
591             	3.18707618e+02
592             	3.12224639e+02
593             	3.11765289e+02
594             	3.17122857e+02
595             	3.17865188e+02
596             	3.14817261e+02
597             	3.12349319e+02
598             	3.15215421e+02
599             	3.18092477e+02
600             	3.15621304e+02
601             	3.14566886e+02
602             	3.16168516e+02
603             	3.15886851e+02
604             	3.11807138e+02
605             	3.13907572e+02
606             	3.18608368e+02
607             	3.18248560e+02
608             	3.11063729e+02
609             	3.09675118e+02
610             	3.16235633e+02
611             	3.21039852e+02
612             	3.15115667e+02
613             	3.08307153e+02
614             	3.11561492e+02
615             	3.20585103e+02
616             	3.19070329e+02
617             	3.08752746e+02
618             	3.06993259e+02
619             	3.17175109e+02
620             	3.22160897e+02
621             	3.13521187e+02
