# Region        : cellZone component_4
# Cells         : 98
# Volume        : 1.76096763e-01
# Time          	volAverage(T)
1               	3.01240424e+02
2               	3.02449409e+02
3               	3.03390775e+02
4               	3.04199039e+02
5               	3.05025889e+02
6               	3.05890299e+02
7               	3.06744416e+02
8               	3.07570535e+02
9               	3.08390986e+02
10              	3.09194097e+02
11              	3.09966254e+02
12              	3.10701734e+02
13              	3.11402866e+02
14              	3.12084585e+02
15              	3.12736791e+02
16              	3.13347086e+02
17              	3.13899089e+02
18              	3.14383756e+02
19              	3.14788500e+02
20              	3.15223267e+02
21              	3.15710175e+02
22              	3.16206594e+02
23              	3.16667274e+02
24              	3.17069536e+02
25              	3.17467964e+02
26              	3.17836299e+02
27              	3.18281324e+02
28              	3.18687938e+02
29              	3.19077881e+02
30              	3.19458800e+02
31              	3.19809329e+02
32              	3.20198189e+02
33              	3.20590301e+02
34              	3.20989539e+02
35              	3.21398765e+02
36              	3.21789726e+02
37              	3.22156649e+02
38              	3.22506178e+02
39              	3.22807728e+02
40              	3.23032432e+02
41              	3.23229187e+02
42              	3.23430606e+02
43              	3.23630812e+02
44              	3.23820019e+02
45              	3.24020108e+02
46              	3.24223286e+02
47              	3.24438003e+02
48              	3.24667669e+02
49              	3.24874746e+02
50              	3.25080483e+02
51              	3.25284998e+02
52              	3.25460239e+02
53              	3.25644080e+02
54              	3.25813162e+02
55              	3.25964403e+02
56              	3.26088878e+02
57              	3.26215491e+02
58              	3.26282239e+02
59              	3.26285954e+02
60              	3.26340005e+02
61              	3.26447930e+02
62              	3.26576309e+02
63              	3.26693127e+02
64              	3.26784160e+02
65              	3.26852543e+02
66              	3.26919681e+02
67              	3.26987273e+02
68              	3.27057200e+02
69              	3.27159574e+02
70              	3.27293331e+02
71              	3.27405250e+02
72              	3.27517031e+02
73              	3.27661763e+02
74              	3.27810633e+02
75              	3.27930839e+02
76              	3.28029691e+02
77              	3.28089787e+02
78              	3.28164763e+02
79              	3.28271899e+02
80              	3.28386382e+02
81              	3.28500434e+02
82              	3.28597481e+02
83              	3.28702977e+02
84              	3.28836795e+02
85              	3.28949179e+02
86              	3.29072411e+02
87              	3.29204502e+02
88              	3.29279586e+02
89              	3.29319726e+02
90              	3.29337557e+02
91              	3.29361447e+02
92              	3.29380646e+02
93              	3.29411740e+02
94              	3.29444939e+02
95              	3.29460744e+02
96              	3.29480378e+02
97              	3.29507372e+02
98              	3.29548515e+02
99              	3.29609075e+02
100             	3.29677738e+02
101             	3.29763414e+02
102             	3.29835652e+02
103             	3.29886714e+02
104             	3.29947543e+02
105             	3.30004279e+02
106             	3.30070981e+02
107             	3.30142361e+02
108             	3.30208294e+02
109             	3.30259831e+02
110             	3.30321235e+02
111             	3.30386531e+02
112             	3.30464475e+02
113             	3.30549018e+02
114             	3.30643076e+02
115             	3.30749240e+02
116             	3.30864401e+02
117             	3.30985783e+02
118             	3.31106360e+02
119             	3.31226167e+02
120             	3.31347651e+02
121             	3.31477438e+02
122             	3.31598491e+02
123             	3.31717487e+02
124             	3.31809350e+02
125             	3.31920679e+02
126             	3.32037579e+02
127             	3.32144056e+02
128             	3.32210670e+02
129             	3.32254490e+02
130             	3.32306470e+02
131             	3.32361500e+02
132             	3.32408288e+02
133             	3.32451650e+02
134             	3.32491159e+02
135             	3.32536851e+02
136             	3.32589605e+02
137             	3.32636053e+02
138             	3.32690915e+02
139             	3.32748923e+02
140             	3.32817581e+02
141             	3.32894636e+02
142             	3.32975219e+02
143             	3.33062920e+02
144             	3.33155234e+02
145             	3.33246665e+02
146             	3.33333755e+02
147             	3.33417463e+02
148             	3.33499296e+02
149             	3.33577903e+02
150             	3.33653388e+02
151             	3.33721561e+02
152             	3.33789304e+02
153             	3.33854265e+02
154             	3.33923087e+02
155             	3.33991749e+02
156             	3.34055934e+02
157             	3.34125295e+02
158             	3.34201259e+02
159             	3.34282516e+02
160             	3.34367099e+02
161             	3.34453359e+02
162             	3.34540809e+02
163             	3.34625315e+02
164             	3.34712702e+02
165             	3.34800039e+02
166             	3.34884121e+02
167             	3.34969086e+02
168             	3.35051255e+02
169             	3.35124989e+02
170             	3.35196944e+02
171             	3.35262398e+02
172             	3.35323725e+02
173             	3.35384946e+02
174             	3.35438428e+02
175             	3.35490108e+02
176             	3.35540131e+02
177             	3.35577967e+02
178             	3.35609339e+02
179             	3.35647486e+02
180             	3.35687201e+02
181             	3.35726515e+02
182             	3.35764922e+02
183             	3.35803999e+02
184             	3.35844699e+02
185             	3.35882024e+02
186             	3.35918814e+02
187             	3.35960707e+02
188             	3.36003488e+02
189             	3.36052905e+02
190             	3.36109941e+02
191             	3.36169004e+02
192             	3.36226802e+02
193             	3.36282605e+02
194             	3.36337849e+02
195             	3.36391936e+02
196             	3.36436794e+02
197             	3.36477547e+02
198             	3.36517815e+02
199             	3.36553557e+02
200             	3.36586212e+02
201             	3.36615713e+02
202             	3.36641050e+02
203             	3.36665715e+02
204             	3.36690498e+02
205             	3.36714113e+02
206             	3.36739582e+02
207             	3.36768057e+02
208             	3.36799321e+02
209             	3.36831132e+02
210             	3.36851602e+02
211             	3.36871424e+02
212             	3.36893046e+02
213             	3.36913697e+02
214             	3.36934765e+02
215             	3.36959288e+02
216             	3.36987070e+02
217             	3.37017079e+02
218             	3.37048000e+02
219             	3.37047781e+02
220             	3.37050704e+02
221             	3.37064570e+02
222             	3.37084246e+02
223             	3.37104858e+02
224             	3.37122225e+02
225             	3.37137671e+02
226             	3.37156091e+02
227             	3.37174858e+02
228             	3.37199176e+02
229             	3.37225790e+02
230             	3.37253735e+02
231             	3.37284359e+02
232             	3.37316653e+02
233             	3.37346005e+02
234             	3.37375795e+02
235             	3.37406072e+02
236             	3.37432606e+02
237             	3.37458417e+02
238             	3.37483114e+02
239             	3.37502097e+02
240             	3.37515930e+02
241             	3.37531332e+02
242             	3.37541378e+02
243             	3.37546033e+02
244             	3.37549679e+02
245             	3.37553300e+02
246             	3.37557636e+02
247             	3.37562876e+02
248             	3.37567756e+02
249             	3.37572766e+02
250             	3.37577508e+02
251             	3.37583805e+02
252             	3.37588689e+02
253             	3.37595428e+02
254             	3.37600954e+02
255             	3.37607486e+02
256             	3.37615316e+02
257             	3.37624797e+02
258             	3.37638233e+02
259             	3.37652376e+02
260             	3.37666653e+02
261             	3.37680602e+02
262             	3.37693165e+02
263             	3.37707964e+02
264             	3.37725176e+02
265             	3.37742400e+02
266             	3.37761621e+02
267             	3.37781415e+02
268             	3.37800298e+02
269             	3.37817555e+02
270             	3.37834012e+02
271             	3.37849856e+02
272             	3.37864892e+02
273             	3.37878263e+02
274             	3.37890553e+02
275             	3.37903282e+02
276             	3.37916357e+02
277             	3.37929348e+02
278             	3.37941263e+02
279             	3.37950800e+02
280             	3.37961389e+02
281             	3.37972350e+02
282             	3.37980595e+02
283             	3.37989381e+02
284             	3.37997199e+02
285             	3.38002978e+02
286             	3.38009381e+02
287             	3.38016307e+02
288             	3.38023035e+02
289             	3.38025666e+02
290             	3.38023284e+02
291             	3.38021784e+02
292             	3.38021941e+02
293             	3.38021976e+02
294             	3.38019895e+02
295             	3.38015586e+02
296             	3.38009843e+02
297             	3.38003729e+02
298             	3.37997549e+02
299             	3.37994705e+02
300             	3.37995033e+02
301             	3.37999053e+02
302             	3.38005093e+02
303             	3.38014430e+02
304             	3.38024485e+02
305             	3.38035480e+02
306             	3.38046994e+02
307             	3.38059191e+02
308             	3.38072018e+02
309             	3.38085088e+02
310             	3.38097847e+02
311             	3.38110007e+02
312             	3.38121183e+02
313             	3.38131309e+02
314             	3.38140505e+02
315             	3.38149027e+02
316             	3.38157153e+02
317             	3.38165651e+02
318             	3.38173261e+02
319             	3.38180922e+02
320             	3.38189834e+02
321             	3.38199625e+02
322             	3.38208995e+02
323             	3.38217992e+02
324             	3.38226598e+02
325             	3.38235740e+02
326             	3.38245640e+02
327             	3.38251243e+02
328             	3.38253125e+02
329             	3.38250691e+02
330             	3.38245222e+02
331             	3.38237584e+02
332             	3.38228527e+02
333             	3.38218951e+02
334             	3.38210100e+02
335             	3.38200990e+02
336             	3.38194839e+02
337             	3.38192640e+02
338             	3.38193765e+02
339             	3.38197929e+02
340             	3.38203492e+02
341             	3.38210454e+02
342             	3.38218999e+02
343             	3.38230069e+02
344             	3.38236756e+02
345             	3.38246717e+02
346             	3.38258296e+02
347             	3.38268425e+02
348             	3.38276551e+02
349             	3.38283703e+02
350             	3.38290482e+02
351             	3.38297150e+02
352             	3.38303956e+02
353             	3.38310563e+02
354             	3.38316775e+02
355             	3.38322057e+02
356             	3.38326499e+02
357             	3.38330594e+02
358             	3.38335423e+02
359             	3.38340461e+02
360             	3.38345472e+02
361             	3.38352682e+02
362             	3.38357816e+02
363             	3.38361033e+02
364             	3.38363635e+02
365             	3.38369211e+02
366             	3.38375845e+02
367             	3.38379085e+02
368             	3.38379326e+02
369             	3.38375976e+02
370             	3.38369584e+02
371             	3.38360044e+02
372             	3.38348336e+02
373             	3.38334712e+02
374             	3.38322756e+02
375             	3.38311435e+02
376             	3.38301284e+02
377             	3.38292264e+02
378             	3.38284249e+02
379             	3.38277227e+02
380             	3.38270929e+02
381             	3.38265253e+02
382             	3.38259978e+02
383             	3.38254694e+02
384             	3.38249019e+02
385             	3.38247433e+02
386             	3.38245162e+02
387             	3.38242752e+02
388             	3.38240346e+02
389             	3.38236468e+02
390             	3.38233663e+02
391             	3.38233123e+02
392             	3.38233792e+02
393             	3.38235400e+02
394             	3.38237559e+02
395             	3.38240044e+02
396             	3.38241408e+02
397             	3.38243874e+02
398             	3.38248531e+02
399             	3.38251825e+02
400             	3.38253981e+02
401             	3.38255818e+02
402             	3.38257738e+02
403             	3.38259732e+02
404             	3.38262218e+02
405             	3.38264673e+02
406             	3.38266248e+02
407             	3.38268529e+02
408             	3.38271623e+02
409             	3.38274648e+02
410             	3.38277479e+02
411             	3.38280154e+02
412             	3.38282734e+02
413             	3.38285275e+02
414             	3.38287764e+02
415             	3.38290242e+02
416             	3.38292702e+02
417             	3.38285391e+02
418             	3.38271810e+02
419             	3.38256478e+02
420             	3.38243105e+02
421             	3.38233033e+02
422             	3.38225104e+02
423             	3.38220563e+02
424             	3.38219233e+02
425             	3.38221489e+02
426             	3.38228339e+02
427             	3.38233831e+02
428             	3.38238138e+02
429             	3.38241571e+02
430             	3.38244339e+02
431             	3.38246532e+02
432             	3.38248201e+02
433             	3.38249400e+02
434             	3.38253560e+02
435             	3.38257135e+02
436             	3.38263243e+02
437             	3.38271589e+02
438             	3.38281161e+02
439             	3.38292174e+02
440             	3.38302868e+02
441             	3.38313385e+02
442             	3.38321891e+02
443             	3.38329556e+02
444             	3.38338345e+02
445             	3.38345835e+02
446             	3.38351640e+02
447             	3.38356945e+02
448             	3.38361778e+02
449             	3.38361294e+02
450             	3.38360417e+02
451             	3.38355447e+02
452             	3.38348232e+02
453             	3.38342891e+02
454             	3.38336758e+02
455             	3.38330627e+02
456             	3.38325256e+02
457             	3.38321880e+02
458             	3.38316871e+02
459             	3.38316135e+02
460             	3.38319788e+02
461             	3.38326439e+02
462             	3.38334977e+02
463             	3.38344810e+02
464             	3.38357754e+02
465             	3.38369974e+02
466             	3.38383173e+02
467             	3.38395202e+02
468             	3.38406467e+02
469             	3.38418206e+02
470             	3.38429563e+02
471             	3.38439923e+02
472             	3.38449062e+02
473             	3.38457081e+02
474             	3.38464570e+02
475             	3.38470154e+02
476             	3.38475483e+02
477             	3.38481043e+02
478             	3.38486377e+02
479             	3.38491336e+02
480             	3.38496723e+02
481             	3.38501524e+02
482             	3.38505478e+02
483             	3.38508894e+02
484             	3.38514506e+02
485             	3.38520634e+02
486             	3.38526385e+02
487             	3.38528797e+02
488             	3.38528729e+02
489             	3.38527100e+02
490             	3.38526401e+02
491             	3.38526356e+02
492             	3.38521524e+02
493             	3.38517516e+02
494             	3.38514329e+02
495             	3.38511767e+02
496             	3.38509662e+02
497             	3.38507891e+02
498             	3.38506506e+02
499             	3.38505488e+02
500             	3.38504818e+02
501             	3.38504411e+02
502             	3.38503285e+02
503             	3.38501399e+02
504             	3.38494281e+02
505             	3.38485008e+02
506             	3.38480029e+02
507             	3.38478436e+02
508             	3.38476396e+02
509             	3.38476321e+02
510             	3.38478618e+02
511             	3.38482666e+02
512             	3.38487599e+02
513             	3.38492453e+02
514             	3.38497119e+02
515             	3.38500636e+02
516             	3.38503669e+02
517             	3.38506705e+02
518             	3.38509007e+02
519             	3.38510462e+02
520             	3.38513448e+02
521             	3.38515288e+02
522             	3.38516205e+02
523             	3.38517456e+02
524             	3.38518542e+02
525             	3.38520164e+02
526             	3.38523490e+02
527             	3.38526179e+02
528             	3.38528617e+02
529             	3.38529456e+02
530             	3.38528405e+02
531             	3.38525007e+02
532             	3.38520612e+02
533             	3.38515020e+02
534             	3.38507714e+02
535             	3.38499319e+02
536             	3.38492414e+02
537             	3.38485539e+02
538             	3.38477547e+02
539             	3.38470512e+02
540             	3.38465296e+02
541             	3.38462439e+02
542             	3.38462293e+02
543             	3.38464913e+02
544             	3.38470239e+02
545             	3.38478062e+02
546             	3.38484457e+02
547             	3.38495306e+02
548             	3.38510436e+02
549             	3.38527096e+02
550             	3.38542685e+02
551             	3.38555858e+02
552             	3.38568818e+02
553             	3.38580351e+02
554             	3.38591898e+02
555             	3.38602562e+02
556             	3.38612749e+02
557             	3.38622023e+02
558             	3.38627409e+02
559             	3.38630108e+02
560             	3.38631845e+02
561             	3.38633086e+02
562             	3.38633885e+02
563             	3.38634672e+02
564             	3.38636551e+02
565             	3.38638815e+02
566             	3.38639982e+02
567             	3.38640691e+02
568             	3.38641257e+02
569             	3.38640951e+02
570             	3.38635343e+02
571             	3.38623622e+02
572             	3.38610555e+02
573             	3.38595468e+02
574             	3.38578792e+02
575             	3.38563165e+02
576             	3.38549021e+02
577             	3.38536085e+02
578             	3.38525602e+02
579             	3.38522961e+02
580             	3.38522430e+02
581             	3.38525106e+02
582             	3.38529582e+02
583             	3.38536544e+02
584             	3.38548633e+02
585             	3.38563118e+02
586             	3.38573454e+02
587             	3.38581621e+02
588             	3.38589773e+02
589             	3.38596728e+02
590             	3.38602184e+02
591             	3.38605929e+02
592             	3.38608483e+02
593             	3.38611538e+02
594             	3.38615773e+02
595             	3.38619133e+02
596             	3.38623992e+02
597             	3.38629241e+02
598             	3.38633971e+02
599             	3.38638663e+02
600             	3.38643816e+02
601             	3.38648704e+02
602             	3.38653544e+02
603             	3.38657942e+02
604             	3.38661541e+02
605             	3.38665142e+02
606             	3.38668624e+02
607             	3.38669040e+02
608             	3.38667437e+02
609             	3.38664274e+02
610             	3.38659983e+02
611             	3.38654710e+02
612             	3.38648469e+02
613             	3.38641190e+02
614             	3.38633279e+02
615             	3.38625071e+02
616             	3.38616956e+02
617             	3.38610474e+02
618             	3.38605329e+02
619             	3.38600719e+02
620             	3.38596472e+02
621             	3.38594370e+02
