# Region        : cellZone component_3
# Cells         : 64
# Volume        : 1.18535240e-01
# Time          	volAverage(T)
1               	3.00404249e+02
2               	3.00804123e+02
3               	3.01173306e+02
4               	3.01523747e+02
5               	3.01863436e+02
6               	3.02195702e+02
7               	3.02522604e+02
8               	3.02844984e+02
9               	3.03162462e+02
10              	3.03474624e+02
11              	3.03779651e+02
12              	3.04077137e+02
13              	3.04362385e+02
14              	3.04637699e+02
15              	3.04902923e+02
16              	3.05163132e+02
17              	3.05419909e+02
18              	3.05670364e+02
19              	3.05912681e+02
20              	3.06148592e+02
21              	3.06357461e+02
22              	3.06548882e+02
23              	3.06730839e+02
24              	3.06911377e+02
25              	3.07098761e+02
26              	3.07289298e+02
27              	3.07480368e+02
28              	3.07661212e+02
29              	3.07822570e+02
30              	3.07984557e+02
31              	3.08134486e+02
32              	3.08278997e+02
33              	3.08415129e+02
34              	3.08538507e+02
35              	3.08655353e+02
36              	3.08766854e+02
37              	3.08873580e+02
38              	3.08980896e+02
39              	3.09087698e+02
40              	3.09202467e+02
41              	3.09321831e+02
42              	3.09439323e+02
43              	3.09557712e+02
44              	3.09674911e+02
45              	3.09803094e+02
46              	3.09938040e+02
47              	3.10076550e+02
48              	3.10210208e+02
49              	3.10344822e+02
50              	3.10476788e+02
51              	3.10600767e+02
52              	3.10728888e+02
53              	3.10864125e+02
54              	3.10969607e+02
55              	3.11044822e+02
56              	3.11099946e+02
57              	3.11147544e+02
58              	3.11189556e+02
59              	3.11227195e+02
60              	3.11262529e+02
61              	3.11316685e+02
62              	3.11349479e+02
63              	3.11359216e+02
64              	3.11378313e+02
65              	3.11401798e+02
66              	3.11440632e+02
67              	3.11489931e+02
68              	3.11540819e+02
69              	3.11588632e+02
70              	3.11638311e+02
71              	3.11673579e+02
72              	3.11688090e+02
73              	3.11693554e+02
74              	3.11729584e+02
75              	3.11737134e+02
76              	3.11738960e+02
77              	3.11741317e+02
78              	3.11758706e+02
79              	3.11796942e+02
80              	3.11837604e+02
81              	3.11877749e+02
82              	3.11900623e+02
83              	3.11925328e+02
84              	3.11938906e+02
85              	3.11945978e+02
86              	3.11958625e+02
87              	3.11995141e+02
88              	3.12015777e+02
89              	3.12029333e+02
90              	3.12030224e+02
91              	3.12048308e+02
92              	3.12087934e+02
93              	3.12126097e+02
94              	3.12152755e+02
95              	3.12188494e+02
96              	3.12226552e+02
97              	3.12249613e+02
98              	3.12277991e+02
99              	3.12288876e+02
100             	3.12272032e+02
101             	3.12251443e+02
102             	3.12249888e+02
103             	3.12260571e+02
104             	3.12276437e+02
105             	3.12289636e+02
106             	3.12302210e+02
107             	3.12313525e+02
108             	3.12330830e+02
109             	3.12351137e+02
110             	3.12377904e+02
111             	3.12403699e+02
112             	3.12429490e+02
113             	3.12442070e+02
114             	3.12434872e+02
115             	3.12423617e+02
116             	3.12416680e+02
117             	3.12414951e+02
118             	3.12440386e+02
119             	3.12478043e+02
120             	3.12515667e+02
121             	3.12551860e+02
122             	3.12587117e+02
123             	3.12625218e+02
124             	3.12652182e+02
125             	3.12682781e+02
126             	3.12714060e+02
127             	3.12744139e+02
128             	3.12775575e+02
129             	3.12810085e+02
130             	3.12853135e+02
131             	3.12895380e+02
132             	3.12937107e+02
133             	3.12970822e+02
134             	3.13018778e+02
135             	3.13065331e+02
136             	3.13108122e+02
137             	3.13148603e+02
138             	3.13186622e+02
139             	3.13224122e+02
140             	3.13261275e+02
141             	3.13298194e+02
142             	3.13336186e+02
143             	3.13372965e+02
144             	3.13411397e+02
145             	3.13452698e+02
146             	3.13493931e+02
147             	3.13538073e+02
148             	3.13583412e+02
149             	3.13632362e+02
150             	3.13684017e+02
151             	3.13738131e+02
152             	3.13792437e+02
153             	3.13844381e+02
154             	3.13892733e+02
155             	3.13938904e+02
156             	3.13983169e+02
157             	3.14024658e+02
158             	3.14064084e+02
159             	3.14100743e+02
160             	3.14134952e+02
161             	3.14168826e+02
162             	3.14202458e+02
163             	3.14236219e+02
164             	3.14270648e+02
165             	3.14308923e+02
166             	3.14351253e+02
167             	3.14396689e+02
168             	3.14445059e+02
169             	3.14495010e+02
170             	3.14547847e+02
171             	3.14600075e+02
172             	3.14655174e+02
173             	3.14709670e+02
174             	3.14757429e+02
175             	3.14804072e+02
176             	3.14844878e+02
177             	3.14881576e+02
178             	3.14913011e+02
179             	3.14940499e+02
180             	3.14964603e+02
181             	3.14983264e+02
182             	3.15001967e+02
183             	3.15022330e+02
184             	3.15041562e+02
185             	3.15056725e+02
186             	3.15076246e+02
187             	3.15094333e+02
188             	3.15117685e+02
189             	3.15142549e+02
190             	3.15161555e+02
191             	3.15183867e+02
192             	3.15209374e+02
193             	3.15236562e+02
194             	3.15263206e+02
195             	3.15287795e+02
196             	3.15311499e+02
197             	3.15335659e+02
198             	3.15360335e+02
199             	3.15385126e+02
200             	3.15409486e+02
201             	3.15433191e+02
202             	3.15456290e+02
203             	3.15480329e+02
204             	3.15506279e+02
205             	3.15536229e+02
206             	3.15571686e+02
207             	3.15607199e+02
208             	3.15647206e+02
209             	3.15687112e+02
210             	3.15726998e+02
211             	3.15768828e+02
212             	3.15802938e+02
213             	3.15834810e+02
214             	3.15866183e+02
215             	3.15892884e+02
216             	3.15916061e+02
217             	3.15935491e+02
218             	3.15953165e+02
219             	3.15968578e+02
220             	3.15981521e+02
221             	3.15988700e+02
222             	3.16000627e+02
223             	3.16016992e+02
224             	3.16035247e+02
225             	3.16055879e+02
226             	3.16079217e+02
227             	3.16104777e+02
228             	3.16133406e+02
229             	3.16162999e+02
230             	3.16193744e+02
231             	3.16224319e+02
232             	3.16248947e+02
233             	3.16279977e+02
234             	3.16303875e+02
235             	3.16324543e+02
236             	3.16344378e+02
237             	3.16365824e+02
238             	3.16387949e+02
239             	3.16409549e+02
240             	3.16428675e+02
241             	3.16447976e+02
242             	3.16467213e+02
243             	3.16485301e+02
244             	3.16502353e+02
245             	3.16520179e+02
246             	3.16539224e+02
247             	3.16559359e+02
248             	3.16573111e+02
249             	3.16588730e+02
250             	3.16607485e+02
251             	3.16626659e+02
252             	3.16648928e+02
253             	3.16671231e+02
254             	3.16694067e+02
255             	3.16716567e+02
256             	3.16738947e+02
257             	3.16762300e+02
258             	3.16787519e+02
259             	3.16812576e+02
260             	3.16838338e+02
261             	3.16864620e+02
262             	3.16880157e+02
263             	3.16897626e+02
264             	3.16913995e+02
265             	3.16926593e+02
266             	3.16934628e+02
267             	3.16939286e+02
268             	3.16941837e+02
269             	3.16944419e+02
270             	3.16944152e+02
271             	3.16941371e+02
272             	3.16941972e+02
273             	3.16944528e+02
274             	3.16949655e+02
275             	3.16956825e+02
276             	3.16965400e+02
277             	3.16977569e+02
278             	3.16992056e+02
279             	3.17011056e+02
280             	3.17032730e+02
281             	3.17053926e+02
282             	3.17075501e+02
283             	3.17097784e+02
284             	3.17120526e+02
285             	3.17141326e+02
286             	3.17165516e+02
287             	3.17187387e+02
288             	3.17205418e+02
289             	3.17221666e+02
290             	3.17236921e+02
291             	3.17250441e+02
292             	3.17261554e+02
293             	3.17270139e+02
294             	3.17276145e+02
295             	3.17278707e+02
296             	3.17277538e+02
297             	3.17274384e+02
298             	3.17272483e+02
299             	3.17272726e+02
300             	3.17273827e+02
301             	3.17275816e+02
302             	3.17279078e+02
303             	3.17283529e+02
304             	3.17289113e+02
305             	3.17295536e+02
306             	3.17307722e+02
307             	3.17320458e+02
308             	3.17334602e+02
309             	3.17350872e+02
310             	3.17368902e+02
311             	3.17387054e+02
312             	3.17398520e+02
313             	3.17406353e+02
314             	3.17412281e+02
315             	3.17416871e+02
316             	3.17421788e+02
317             	3.17424637e+02
318             	3.17427415e+02
319             	3.17426264e+02
320             	3.17424259e+02
321             	3.17424578e+02
322             	3.17426013e+02
323             	3.17427891e+02
324             	3.17430596e+02
325             	3.17435245e+02
326             	3.17443265e+02
327             	3.17453667e+02
328             	3.17463362e+02
329             	3.17472812e+02
330             	3.17482153e+02
331             	3.17491649e+02
332             	3.17504097e+02
333             	3.17512484e+02
334             	3.17518598e+02
335             	3.17524215e+02
336             	3.17529297e+02
337             	3.17533926e+02
338             	3.17538157e+02
339             	3.17540138e+02
340             	3.17540617e+02
341             	3.17525695e+02
342             	3.17515945e+02
343             	3.17512873e+02
344             	3.17513186e+02
345             	3.17514794e+02
346             	3.17515300e+02
347             	3.17517559e+02
348             	3.17521167e+02
349             	3.17529653e+02
350             	3.17537479e+02
351             	3.17546332e+02
352             	3.17561395e+02
353             	3.17565207e+02
354             	3.17573164e+02
355             	3.17579456e+02
356             	3.17582037e+02
357             	3.17584636e+02
358             	3.17583985e+02
359             	3.17582845e+02
360             	3.17580858e+02
361             	3.17573164e+02
362             	3.17566393e+02
363             	3.17560705e+02
364             	3.17555499e+02
365             	3.17551048e+02
366             	3.17547395e+02
367             	3.17544359e+02
368             	3.17544508e+02
369             	3.17547797e+02
370             	3.17554053e+02
371             	3.17565986e+02
372             	3.17568098e+02
373             	3.17575060e+02
374             	3.17582382e+02
375             	3.17589148e+02
376             	3.17592354e+02
377             	3.17592879e+02
378             	3.17592158e+02
379             	3.17588342e+02
380             	3.17582379e+02
381             	3.17573853e+02
382             	3.17564199e+02
383             	3.17548690e+02
384             	3.17532714e+02
385             	3.17521791e+02
386             	3.17513435e+02
387             	3.17506963e+02
388             	3.17500263e+02
389             	3.17495758e+02
390             	3.17494838e+02
391             	3.17497557e+02
392             	3.17503633e+02
393             	3.17512730e+02
394             	3.17524944e+02
395             	3.17538166e+02
396             	3.17545116e+02
397             	3.17556376e+02
398             	3.17566161e+02
399             	3.17571780e+02
400             	3.17573715e+02
401             	3.17572891e+02
402             	3.17569200e+02
403             	3.17561713e+02
404             	3.17549639e+02
405             	3.17535574e+02
406             	3.17517168e+02
407             	3.17500311e+02
408             	3.17482169e+02
409             	3.17465262e+02
410             	3.17451032e+02
411             	3.17440133e+02
412             	3.17435694e+02
413             	3.17434647e+02
414             	3.17437267e+02
415             	3.17436477e+02
416             	3.17439532e+02
417             	3.17445325e+02
418             	3.17456858e+02
419             	3.17465708e+02
420             	3.17472451e+02
421             	3.17479564e+02
422             	3.17486600e+02
423             	3.17492581e+02
424             	3.17495974e+02
425             	3.17495676e+02
426             	3.17493900e+02
427             	3.17488049e+02
428             	3.17480010e+02
429             	3.17470370e+02
430             	3.17459980e+02
431             	3.17449498e+02
432             	3.17439131e+02
433             	3.17430033e+02
434             	3.17422713e+02
435             	3.17418549e+02
436             	3.17412733e+02
437             	3.17408075e+02
438             	3.17406093e+02
439             	3.17409061e+02
440             	3.17416608e+02
441             	3.17427890e+02
442             	3.17442088e+02
443             	3.17458608e+02
444             	3.17478103e+02
445             	3.17501487e+02
446             	3.17523390e+02
447             	3.17544373e+02
448             	3.17567742e+02
449             	3.17591773e+02
450             	3.17614629e+02
451             	3.17635238e+02
452             	3.17652724e+02
453             	3.17666529e+02
454             	3.17676880e+02
455             	3.17684223e+02
456             	3.17688327e+02
457             	3.17689443e+02
458             	3.17688280e+02
459             	3.17685906e+02
460             	3.17681476e+02
461             	3.17675414e+02
462             	3.17668774e+02
463             	3.17661926e+02
464             	3.17655997e+02
465             	3.17653245e+02
466             	3.17649213e+02
467             	3.17645820e+02
468             	3.17644195e+02
469             	3.17644283e+02
470             	3.17645732e+02
471             	3.17648353e+02
472             	3.17652065e+02
473             	3.17657215e+02
474             	3.17663577e+02
475             	3.17671133e+02
476             	3.17681240e+02
477             	3.17687305e+02
478             	3.17696986e+02
479             	3.17706057e+02
480             	3.17719024e+02
481             	3.17733304e+02
482             	3.17747954e+02
483             	3.17762532e+02
484             	3.17777198e+02
485             	3.17792164e+02
486             	3.17806828e+02
487             	3.17819864e+02
488             	3.17831674e+02
489             	3.17839926e+02
490             	3.17845256e+02
491             	3.17847800e+02
492             	3.17851040e+02
493             	3.17851322e+02
494             	3.17850275e+02
495             	3.17849168e+02
496             	3.17849078e+02
497             	3.17848791e+02
498             	3.17847446e+02
499             	3.17846553e+02
500             	3.17847277e+02
501             	3.17848629e+02
502             	3.17850906e+02
503             	3.17854086e+02
504             	3.17858594e+02
505             	3.17864363e+02
506             	3.17870815e+02
507             	3.17879406e+02
508             	3.17887114e+02
509             	3.17896702e+02
510             	3.17904923e+02
511             	3.17909113e+02
512             	3.17915944e+02
513             	3.17924493e+02
514             	3.17933729e+02
515             	3.17941037e+02
516             	3.17948411e+02
517             	3.17954165e+02
518             	3.17957079e+02
519             	3.17961635e+02
520             	3.17965533e+02
521             	3.17971443e+02
522             	3.17973622e+02
523             	3.17974288e+02
524             	3.17974994e+02
525             	3.17976406e+02
526             	3.17977623e+02
527             	3.17981880e+02
528             	3.17987809e+02
529             	3.17992599e+02
530             	3.17999022e+02
531             	3.18005350e+02
532             	3.18011049e+02
533             	3.18017178e+02
534             	3.18024977e+02
535             	3.18033905e+02
536             	3.18034667e+02
537             	3.18034612e+02
538             	3.18035861e+02
539             	3.18037514e+02
540             	3.18039240e+02
541             	3.18039017e+02
542             	3.18040002e+02
543             	3.18041404e+02
544             	3.18042827e+02
545             	3.18044534e+02
546             	3.18047630e+02
547             	3.18050449e+02
548             	3.18053756e+02
549             	3.18056805e+02
550             	3.18057380e+02
551             	3.18058109e+02
552             	3.18060349e+02
553             	3.18063029e+02
554             	3.18065950e+02
555             	3.18069260e+02
556             	3.18073616e+02
557             	3.18074442e+02
558             	3.18078014e+02
559             	3.18081768e+02
560             	3.18087802e+02
561             	3.18095326e+02
562             	3.18103379e+02
563             	3.18109898e+02
564             	3.18118064e+02
565             	3.18125651e+02
566             	3.18133455e+02
567             	3.18140024e+02
568             	3.18144867e+02
569             	3.18148397e+02
570             	3.18151116e+02
571             	3.18152793e+02
572             	3.18153285e+02
573             	3.18153396e+02
574             	3.18153386e+02
575             	3.18151338e+02
576             	3.18150596e+02
577             	3.18150225e+02
578             	3.18150022e+02
579             	3.18151946e+02
580             	3.18155574e+02
581             	3.18158929e+02
582             	3.18161652e+02
583             	3.18163877e+02
584             	3.18164815e+02
585             	3.18168399e+02
586             	3.18173139e+02
587             	3.18174801e+02
588             	3.18179464e+02
589             	3.18180927e+02
590             	3.18184328e+02
591             	3.18191718e+02
592             	3.18204176e+02
593             	3.18212852e+02
594             	3.18222946e+02
595             	3.18234824e+02
596             	3.18246842e+02
597             	3.18258334e+02
598             	3.18274446e+02
599             	3.18282283e+02
600             	3.18287817e+02
601             	3.18293291e+02
602             	3.18297063e+02
603             	3.18301076e+02
604             	3.18300506e+02
605             	3.18301688e+02
606             	3.18303362e+02
607             	3.18307303e+02
608             	3.18311885e+02
609             	3.18309557e+02
610             	3.18306006e+02
611             	3.18303441e+02
612             	3.18301956e+02
613             	3.18299526e+02
614             	3.18294101e+02
615             	3.18287153e+02
616             	3.18280314e+02
617             	3.18270714e+02
618             	3.18265760e+02
619             	3.18263192e+02
620             	3.18262082e+02
621             	3.18261335e+02
