# Region        : cellZone component_1
# Cells         : 194
# Volume        : 3.86031937e-01
# Time          	volAverage(T)
1               	3.01018271e+02
2               	3.02015661e+02
3               	3.02824054e+02
4               	3.03512264e+02
5               	3.04185480e+02
6               	3.04870519e+02
7               	3.05549146e+02
8               	3.06208650e+02
9               	3.06851959e+02
10              	3.07485206e+02
11              	3.08100623e+02
12              	3.08705352e+02
13              	3.09295221e+02
14              	3.09862036e+02
15              	3.10411627e+02
16              	3.10959031e+02
17              	3.11468916e+02
18              	3.11940922e+02
19              	3.12384345e+02
20              	3.12804180e+02
21              	3.13202460e+02
22              	3.13584339e+02
23              	3.13963778e+02
24              	3.14340314e+02
25              	3.14723239e+02
26              	3.15110467e+02
27              	3.15494692e+02
28              	3.15890329e+02
29              	3.16278113e+02
30              	3.16650915e+02
31              	3.17003248e+02
32              	3.17337853e+02
33              	3.17654182e+02
34              	3.17951171e+02
35              	3.18230688e+02
36              	3.18490540e+02
37              	3.18723753e+02
38              	3.18932292e+02
39              	3.19117777e+02
40              	3.19301174e+02
41              	3.19478399e+02
42              	3.19668744e+02
43              	3.19844786e+02
44              	3.20001123e+02
45              	3.20128005e+02
46              	3.20248440e+02
47              	3.20352880e+02
48              	3.20457187e+02
49              	3.20551746e+02
50              	3.20630100e+02
51              	3.20686553e+02
52              	3.20745734e+02
53              	3.20800493e+02
54              	3.20872463e+02
55              	3.20961968e+02
56              	3.21078386e+02
57              	3.21208547e+02
58              	3.21352812e+02
59              	3.21501797e+02
60              	3.21638936e+02
61              	3.21759326e+02
62              	3.21861569e+02
63              	3.21966695e+02
64              	3.22075345e+02
65              	3.22183450e+02
66              	3.22289693e+02
67              	3.22390307e+02
68              	3.22481988e+02
69              	3.22565731e+02
70              	3.22638912e+02
71              	3.22702029e+02
72              	3.22741169e+02
73              	3.22783507e+02
74              	3.22828515e+02
75              	3.22877785e+02
76              	3.22934736e+02
77              	3.23003563e+02
78              	3.23086738e+02
79              	3.23172622e+02
80              	3.23254978e+02
81              	3.23327600e+02
82              	3.23382303e+02
83              	3.23417528e+02
84              	3.23437572e+02
85              	3.23446706e+02
86              	3.23447819e+02
87              	3.23448046e+02
88              	3.23449920e+02
89              	3.23458004e+02
90              	3.23474931e+02
91              	3.23499999e+02
92              	3.23527550e+02
93              	3.23558548e+02
94              	3.23586072e+02
95              	3.23608777e+02
96              	3.23624913e+02
97              	3.23636424e+02
98              	3.23648008e+02
99              	3.23663532e+02
100             	3.23675495e+02
101             	3.23692651e+02
102             	3.23707370e+02
103             	3.23728397e+02
104             	3.23743622e+02
105             	3.23753590e+02
106             	3.23756013e+02
107             	3.23749356e+02
108             	3.23735313e+02
109             	3.23720057e+02
110             	3.23702212e+02
111             	3.23688644e+02
112             	3.23680807e+02
113             	3.23671963e+02
114             	3.23667630e+02
115             	3.23666983e+02
116             	3.23667970e+02
117             	3.23669942e+02
118             	3.23672961e+02
119             	3.23674961e+02
120             	3.23677382e+02
121             	3.23679645e+02
122             	3.23683078e+02
123             	3.23685914e+02
124             	3.23688154e+02
125             	3.23689239e+02
126             	3.23692131e+02
127             	3.23691297e+02
128             	3.23690738e+02
129             	3.23687988e+02
130             	3.23680370e+02
131             	3.23669189e+02
132             	3.23655874e+02
133             	3.23644729e+02
134             	3.23630892e+02
135             	3.23614423e+02
136             	3.23599333e+02
137             	3.23586944e+02
138             	3.23577002e+02
139             	3.23569466e+02
140             	3.23563016e+02
141             	3.23556014e+02
142             	3.23547807e+02
143             	3.23537399e+02
144             	3.23527087e+02
145             	3.23516999e+02
146             	3.23506178e+02
147             	3.23494816e+02
148             	3.23482979e+02
149             	3.23471324e+02
150             	3.23460265e+02
151             	3.23449818e+02
152             	3.23439609e+02
153             	3.23429223e+02
154             	3.23418179e+02
155             	3.23405255e+02
156             	3.23392563e+02
157             	3.23379778e+02
158             	3.23366048e+02
159             	3.23351406e+02
160             	3.23336261e+02
161             	3.23321929e+02
162             	3.23307419e+02
163             	3.23292505e+02
164             	3.23280270e+02
165             	3.23267962e+02
166             	3.23256752e+02
167             	3.23247377e+02
168             	3.23239384e+02
169             	3.23231953e+02
170             	3.23223750e+02
171             	3.23214031e+02
172             	3.23206202e+02
173             	3.23198645e+02
174             	3.23191797e+02
175             	3.23184985e+02
176             	3.23177487e+02
177             	3.23168186e+02
178             	3.23157508e+02
179             	3.23147306e+02
180             	3.23137222e+02
181             	3.23126501e+02
182             	3.23115101e+02
183             	3.23103590e+02
184             	3.23092490e+02
185             	3.23082983e+02
186             	3.23075403e+02
187             	3.23066833e+02
188             	3.23059766e+02
189             	3.23055432e+02
190             	3.23053190e+02
191             	3.23046053e+02
192             	3.23039538e+02
193             	3.23034451e+02
194             	3.23028244e+02
195             	3.23019750e+02
196             	3.23009598e+02
197             	3.22998578e+02
198             	3.22987355e+02
199             	3.22976170e+02
200             	3.22964564e+02
201             	3.22952523e+02
202             	3.22941058e+02
203             	3.22928568e+02
204             	3.22918384e+02
205             	3.22908202e+02
206             	3.22899538e+02
207             	3.22893235e+02
208             	3.22887998e+02
209             	3.22883154e+02
210             	3.22879235e+02
211             	3.22872938e+02
212             	3.22867160e+02
213             	3.22861000e+02
214             	3.22852961e+02
215             	3.22844044e+02
216             	3.22834182e+02
217             	3.22824535e+02
218             	3.22815519e+02
219             	3.22806592e+02
220             	3.22798304e+02
221             	3.22790842e+02
222             	3.22785952e+02
223             	3.22779252e+02
224             	3.22773304e+02
225             	3.22770213e+02
226             	3.22768849e+02
227             	3.22767559e+02
228             	3.22764931e+02
229             	3.22763096e+02
230             	3.22762509e+02
231             	3.22760626e+02
232             	3.22756770e+02
233             	3.22752002e+02
234             	3.22745865e+02
235             	3.22739626e+02
236             	3.22732722e+02
237             	3.22727258e+02
238             	3.22721453e+02
239             	3.22716703e+02
240             	3.22713174e+02
241             	3.22711670e+02
242             	3.22711418e+02
243             	3.22712920e+02
244             	3.22715701e+02
245             	3.22718804e+02
246             	3.22721834e+02
247             	3.22722274e+02
248             	3.22722677e+02
249             	3.22722579e+02
250             	3.22721327e+02
251             	3.22718542e+02
252             	3.22714294e+02
253             	3.22708811e+02
254             	3.22703236e+02
255             	3.22696891e+02
256             	3.22689646e+02
257             	3.22682070e+02
258             	3.22674513e+02
259             	3.22668563e+02
260             	3.22662790e+02
261             	3.22657227e+02
262             	3.22652776e+02
263             	3.22650573e+02
264             	3.22648953e+02
265             	3.22649030e+02
266             	3.22648036e+02
267             	3.22648321e+02
268             	3.22648983e+02
269             	3.22650167e+02
270             	3.22651393e+02
271             	3.22651280e+02
272             	3.22648510e+02
273             	3.22645438e+02
274             	3.22641647e+02
275             	3.22637379e+02
276             	3.22634355e+02
277             	3.22629750e+02
278             	3.22625768e+02
279             	3.22623222e+02
280             	3.22622720e+02
281             	3.22624017e+02
282             	3.22626093e+02
283             	3.22628725e+02
284             	3.22632574e+02
285             	3.22637360e+02
286             	3.22642327e+02
287             	3.22645367e+02
288             	3.22646475e+02
289             	3.22648705e+02
290             	3.22650754e+02
291             	3.22650763e+02
292             	3.22650069e+02
293             	3.22648559e+02
294             	3.22647651e+02
295             	3.22645923e+02
296             	3.22643909e+02
297             	3.22641616e+02
298             	3.22639022e+02
299             	3.22636627e+02
300             	3.22633486e+02
301             	3.22629743e+02
302             	3.22626165e+02
303             	3.22623293e+02
304             	3.22619990e+02
305             	3.22616755e+02
306             	3.22614178e+02
307             	3.22612854e+02
308             	3.22612594e+02
309             	3.22613070e+02
310             	3.22614222e+02
311             	3.22615909e+02
312             	3.22617989e+02
313             	3.22620289e+02
314             	3.22622653e+02
315             	3.22624979e+02
316             	3.22627167e+02
317             	3.22627200e+02
318             	3.22627855e+02
319             	3.22628635e+02
320             	3.22628548e+02
321             	3.22627468e+02
322             	3.22625804e+02
323             	3.22624009e+02
324             	3.22622419e+02
325             	3.22620077e+02
326             	3.22618943e+02
327             	3.22617249e+02
328             	3.22615491e+02
329             	3.22613702e+02
330             	3.22613359e+02
331             	3.22614065e+02
332             	3.22615146e+02
333             	3.22616026e+02
334             	3.22615828e+02
335             	3.22615446e+02
336             	3.22614972e+02
337             	3.22614180e+02
338             	3.22613873e+02
339             	3.22613454e+02
340             	3.22612813e+02
341             	3.22612470e+02
342             	3.22612692e+02
343             	3.22613409e+02
344             	3.22614309e+02
345             	3.22614434e+02
346             	3.22614982e+02
347             	3.22615806e+02
348             	3.22616619e+02
349             	3.22617601e+02
350             	3.22618111e+02
351             	3.22618211e+02
352             	3.22618047e+02
353             	3.22617563e+02
354             	3.22616721e+02
355             	3.22615652e+02
356             	3.22614924e+02
357             	3.22614043e+02
358             	3.22613167e+02
359             	3.22612468e+02
360             	3.22612015e+02
361             	3.22611764e+02
362             	3.22610453e+02
363             	3.22609063e+02
364             	3.22607460e+02
365             	3.22605345e+02
366             	3.22602726e+02
367             	3.22599817e+02
368             	3.22596927e+02
369             	3.22594523e+02
370             	3.22592813e+02
371             	3.22591148e+02
372             	3.22589816e+02
373             	3.22588827e+02
374             	3.22589000e+02
375             	3.22589332e+02
376             	3.22589699e+02
377             	3.22590213e+02
378             	3.22590771e+02
379             	3.22591365e+02
380             	3.22592098e+02
381             	3.22592829e+02
382             	3.22593412e+02
383             	3.22594280e+02
384             	3.22594881e+02
385             	3.22595221e+02
386             	3.22595718e+02
387             	3.22596273e+02
388             	3.22596928e+02
389             	3.22596951e+02
390             	3.22597269e+02
391             	3.22597048e+02
392             	3.22596865e+02
393             	3.22596487e+02
394             	3.22595755e+02
395             	3.22594728e+02
396             	3.22593570e+02
397             	3.22592447e+02
398             	3.22591351e+02
399             	3.22590057e+02
400             	3.22588581e+02
401             	3.22587071e+02
402             	3.22586642e+02
403             	3.22585797e+02
404             	3.22585229e+02
405             	3.22585252e+02
406             	3.22586138e+02
407             	3.22587573e+02
408             	3.22589232e+02
409             	3.22589868e+02
410             	3.22590523e+02
411             	3.22591098e+02
412             	3.22591231e+02
413             	3.22590789e+02
414             	3.22590303e+02
415             	3.22589775e+02
416             	3.22589114e+02
417             	3.22588607e+02
418             	3.22588479e+02
419             	3.22587580e+02
420             	3.22587149e+02
421             	3.22586868e+02
422             	3.22586393e+02
423             	3.22585530e+02
424             	3.22584406e+02
425             	3.22583160e+02
426             	3.22581973e+02
427             	3.22580846e+02
428             	3.22579792e+02
429             	3.22578815e+02
430             	3.22577896e+02
431             	3.22577027e+02
432             	3.22576373e+02
433             	3.22575913e+02
434             	3.22575631e+02
435             	3.22575543e+02
436             	3.22575549e+02
437             	3.22575755e+02
438             	3.22576277e+02
439             	3.22576646e+02
440             	3.22576987e+02
441             	3.22577635e+02
442             	3.22578408e+02
443             	3.22579129e+02
444             	3.22579766e+02
445             	3.22580366e+02
446             	3.22581265e+02
447             	3.22582182e+02
448             	3.22583182e+02
449             	3.22583528e+02
450             	3.22584156e+02
451             	3.22584848e+02
452             	3.22585456e+02
453             	3.22585589e+02
454             	3.22585375e+02
455             	3.22585026e+02
456             	3.22584642e+02
457             	3.22584245e+02
458             	3.22583860e+02
459             	3.22583500e+02
460             	3.22583179e+02
461             	3.22582913e+02
462             	3.22582733e+02
463             	3.22582768e+02
464             	3.22582755e+02
465             	3.22583357e+02
466             	3.22583797e+02
467             	3.22584207e+02
468             	3.22584804e+02
469             	3.22585584e+02
470             	3.22586328e+02
471             	3.22586474e+02
472             	3.22586859e+02
473             	3.22587311e+02
474             	3.22587592e+02
475             	3.22587699e+02
476             	3.22587597e+02
477             	3.22587380e+02
478             	3.22587131e+02
479             	3.22586845e+02
480             	3.22586508e+02
481             	3.22586261e+02
482             	3.22586166e+02
483             	3.22586001e+02
484             	3.22585776e+02
485             	3.22585188e+02
486             	3.22584899e+02
487             	3.22584727e+02
488             	3.22584387e+02
489             	3.22583809e+02
490             	3.22583149e+02
491             	3.22582476e+02
492             	3.22581769e+02
493             	3.22581413e+02
494             	3.22580973e+02
495             	3.22580184e+02
496             	3.22579260e+02
497             	3.22578319e+02
498             	3.22577339e+02
499             	3.22576085e+02
500             	3.22575013e+02
501             	3.22573970e+02
502             	3.22572955e+02
503             	3.22571824e+02
504             	3.22570778e+02
505             	3.22569875e+02
506             	3.22569079e+02
507             	3.22568346e+02
508             	3.22567729e+02
509             	3.22567116e+02
510             	3.22567522e+02
511             	3.22567864e+02
512             	3.22568270e+02
513             	3.22569049e+02
514             	3.22570247e+02
515             	3.22571620e+02
516             	3.22573161e+02
517             	3.22575145e+02
518             	3.22577145e+02
519             	3.22579011e+02
520             	3.22579577e+02
521             	3.22580074e+02
522             	3.22580335e+02
523             	3.22580001e+02
524             	3.22579364e+02
525             	3.22578158e+02
526             	3.22576777e+02
527             	3.22575554e+02
528             	3.22574610e+02
529             	3.22573957e+02
530             	3.22573558e+02
531             	3.22573353e+02
532             	3.22573338e+02
533             	3.22573535e+02
534             	3.22573890e+02
535             	3.22574332e+02
536             	3.22574847e+02
537             	3.22574970e+02
538             	3.22575160e+02
539             	3.22575312e+02
540             	3.22575150e+02
541             	3.22575000e+02
542             	3.22574956e+02
543             	3.22574857e+02
544             	3.22574982e+02
545             	3.22575561e+02
546             	3.22576497e+02
547             	3.22577487e+02
548             	3.22578182e+02
549             	3.22578594e+02
550             	3.22578461e+02
551             	3.22578026e+02
552             	3.22577928e+02
553             	3.22577937e+02
554             	3.22577915e+02
555             	3.22577848e+02
556             	3.22577830e+02
557             	3.22577907e+02
558             	3.22578083e+02
559             	3.22578350e+02
560             	3.22578651e+02
561             	3.22578926e+02
562             	3.22579133e+02
563             	3.22579222e+02
564             	3.22579228e+02
565             	3.22579244e+02
566             	3.22579357e+02
567             	3.22579507e+02
568             	3.22579754e+02
569             	3.22579938e+02
570             	3.22580080e+02
571             	3.22580224e+02
572             	3.22580356e+02
573             	3.22580453e+02
574             	3.22580506e+02
575             	3.22580492e+02
576             	3.22580528e+02
577             	3.22580632e+02
578             	3.22580768e+02
579             	3.22580928e+02
580             	3.22581131e+02
581             	3.22581389e+02
582             	3.22581677e+02
583             	3.22581963e+02
584             	3.22582200e+02
585             	3.22582343e+02
586             	3.22582446e+02
587             	3.22582340e+02
588             	3.22582169e+02
589             	3.22581915e+02
590             	3.22581511e+02
591             	3.22580913e+02
592             	3.22580436e+02
593             	3.22579795e+02
594             	3.22579011e+02
595             	3.22578188e+02
596             	3.22577383e+02
597             	3.22576364e+02
598             	3.22575455e+02
599             	3.22574599e+02
600             	3.22573724e+02
601             	3.22572846e+02
602             	3.22572049e+02
603             	3.22571407e+02
604             	3.22570972e+02
605             	3.22570741e+02
606             	3.22570645e+02
607             	3.22570638e+02
608             	3.22570744e+02
609             	3.22570958e+02
610             	3.22571258e+02
611             	3.22572131e+02
612             	3.22572922e+02
613             	3.22573699e+02
614             	3.22574670e+02
615             	3.22575850e+02
616             	3.22577132e+02
617             	3.22578401e+02
618             	3.22579587e+02
619             	3.22580619e+02
620             	3.22581442e+02
621             	3.22582065e+02
