# Region        : cellZone component_3
# Cells         : 80
# Volume        : 1.59501321e-01
# Time          	volAverage(T)
1               	3.00441001e+02
2               	3.00876671e+02
3               	3.01259264e+02
4               	3.01604724e+02
5               	3.01935848e+02
6               	3.02253825e+02
7               	3.02565203e+02
8               	3.02861159e+02
9               	3.03150393e+02
10              	3.03438159e+02
11              	3.03713432e+02
12              	3.03978780e+02
13              	3.04231553e+02
14              	3.04468849e+02
15              	3.04709690e+02
16              	3.04938988e+02
17              	3.05160866e+02
18              	3.05363139e+02
19              	3.05561560e+02
20              	3.05750844e+02
21              	3.05927773e+02
22              	3.06101074e+02
23              	3.06277080e+02
24              	3.06452045e+02
25              	3.06622348e+02
26              	3.06796882e+02
27              	3.06980138e+02
28              	3.07150121e+02
29              	3.07293311e+02
30              	3.07426940e+02
31              	3.07557623e+02
32              	3.07693063e+02
33              	3.07829761e+02
34              	3.07962513e+02
35              	3.08090742e+02
36              	3.08215160e+02
37              	3.08329770e+02
38              	3.08437362e+02
39              	3.08534719e+02
40              	3.08625717e+02
41              	3.08714861e+02
42              	3.08804117e+02
43              	3.08912156e+02
44              	3.08998825e+02
45              	3.09029310e+02
46              	3.09010442e+02
47              	3.09020740e+02
48              	3.09067443e+02
49              	3.09114805e+02
50              	3.09162240e+02
51              	3.09212955e+02
52              	3.09268817e+02
53              	3.09330947e+02
54              	3.09405840e+02
55              	3.09487819e+02
56              	3.09533178e+02
57              	3.09527697e+02
58              	3.09489717e+02
59              	3.09484934e+02
60              	3.09515252e+02
61              	3.09556438e+02
62              	3.09588442e+02
63              	3.09621049e+02
64              	3.09657078e+02
65              	3.09689316e+02
66              	3.09722370e+02
67              	3.09745925e+02
68              	3.09772723e+02
69              	3.09800366e+02
70              	3.09838875e+02
71              	3.09891128e+02
72              	3.09959346e+02
73              	3.10053891e+02
74              	3.10140691e+02
75              	3.10159676e+02
76              	3.10187767e+02
77              	3.10228679e+02
78              	3.10272748e+02
79              	3.10318430e+02
80              	3.10364884e+02
81              	3.10407673e+02
82              	3.10453231e+02
83              	3.10501379e+02
84              	3.10546586e+02
85              	3.10589352e+02
86              	3.10630295e+02
87              	3.10675149e+02
88              	3.10716087e+02
89              	3.10767911e+02
90              	3.10818292e+02
91              	3.10857523e+02
92              	3.10886079e+02
93              	3.10910519e+02
94              	3.10932561e+02
95              	3.10955200e+02
96              	3.10984433e+02
97              	3.11015884e+02
98              	3.11045163e+02
99              	3.11076807e+02
100             	3.11107322e+02
101             	3.11148748e+02
102             	3.11198783e+02
103             	3.11252799e+02
104             	3.11306967e+02
105             	3.11359827e+02
106             	3.11410746e+02
107             	3.11460828e+02
108             	3.11509594e+02
109             	3.11553503e+02
110             	3.11595276e+02
111             	3.11636704e+02
112             	3.11676768e+02
113             	3.11717907e+02
114             	3.11750722e+02
115             	3.11777237e+02
116             	3.11799781e+02
117             	3.11817334e+02
118             	3.11834192e+02
119             	3.11850884e+02
120             	3.11868968e+02
121             	3.11892519e+02
122             	3.11916250e+02
123             	3.11940958e+02
124             	3.11965108e+02
125             	3.11993654e+02
126             	3.12028544e+02
127             	3.12061363e+02
128             	3.12094841e+02
129             	3.12125526e+02
130             	3.12149387e+02
131             	3.12167685e+02
132             	3.12181050e+02
133             	3.12190379e+02
134             	3.12198763e+02
135             	3.12206723e+02
136             	3.12218278e+02
137             	3.12235828e+02
138             	3.12259429e+02
139             	3.12289198e+02
140             	3.12322247e+02
141             	3.12353552e+02
142             	3.12381746e+02
143             	3.12407398e+02
144             	3.12426551e+02
145             	3.12442853e+02
146             	3.12456494e+02
147             	3.12468161e+02
148             	3.12478681e+02
149             	3.12488784e+02
150             	3.12500090e+02
151             	3.12509445e+02
152             	3.12520678e+02
153             	3.12534415e+02
154             	3.12550099e+02
155             	3.12567559e+02
156             	3.12587781e+02
157             	3.12610633e+02
158             	3.12636286e+02
159             	3.12662672e+02
160             	3.12684762e+02
161             	3.12705550e+02
162             	3.12722963e+02
163             	3.12740966e+02
164             	3.12753217e+02
165             	3.12763621e+02
166             	3.12772336e+02
167             	3.12779752e+02
168             	3.12783941e+02
169             	3.12784265e+02
170             	3.12783022e+02
171             	3.12779509e+02
172             	3.12774106e+02
173             	3.12768615e+02
174             	3.12764956e+02
175             	3.12766296e+02
176             	3.12768739e+02
177             	3.12772657e+02
178             	3.12776061e+02
179             	3.12777400e+02
180             	3.12778928e+02
181             	3.12783076e+02
182             	3.12786568e+02
183             	3.12787460e+02
184             	3.12787494e+02
185             	3.12787033e+02
186             	3.12786724e+02
187             	3.12784425e+02
188             	3.12782380e+02
189             	3.12784629e+02
190             	3.12788826e+02
191             	3.12795425e+02
192             	3.12804284e+02
193             	3.12814998e+02
194             	3.12827289e+02
195             	3.12838685e+02
196             	3.12849155e+02
197             	3.12860558e+02
198             	3.12869498e+02
199             	3.12874062e+02
200             	3.12877454e+02
201             	3.12879409e+02
202             	3.12880063e+02
203             	3.12878194e+02
204             	3.12874895e+02
205             	3.12872421e+02
206             	3.12871500e+02
207             	3.12870586e+02
208             	3.12870843e+02
209             	3.12872492e+02
210             	3.12876689e+02
211             	3.12884238e+02
212             	3.12894230e+02
213             	3.12905531e+02
214             	3.12917204e+02
215             	3.12928628e+02
216             	3.12937420e+02
217             	3.12943551e+02
218             	3.12946458e+02
219             	3.12947609e+02
220             	3.12947557e+02
221             	3.12946578e+02
222             	3.12944161e+02
223             	3.12941009e+02
224             	3.12937834e+02
225             	3.12934435e+02
226             	3.12931385e+02
227             	3.12930166e+02
228             	3.12930134e+02
229             	3.12931216e+02
230             	3.12933199e+02
231             	3.12935929e+02
232             	3.12938990e+02
233             	3.12941904e+02
234             	3.12944425e+02
235             	3.12947737e+02
236             	3.12949040e+02
237             	3.12949368e+02
238             	3.12949707e+02
239             	3.12950262e+02
240             	3.12951339e+02
241             	3.12952798e+02
242             	3.12954794e+02
243             	3.12956912e+02
244             	3.12957767e+02
245             	3.12956632e+02
246             	3.12954957e+02
247             	3.12952705e+02
248             	3.12949828e+02
249             	3.12947664e+02
250             	3.12947131e+02
251             	3.12949482e+02
252             	3.12951171e+02
253             	3.12952630e+02
254             	3.12953556e+02
255             	3.12952418e+02
256             	3.12949483e+02
257             	3.12946583e+02
258             	3.12944780e+02
259             	3.12944428e+02
260             	3.12944922e+02
261             	3.12946348e+02
262             	3.12948845e+02
263             	3.12951235e+02
264             	3.12954275e+02
265             	3.12957871e+02
266             	3.12959909e+02
267             	3.12959941e+02
268             	3.12959218e+02
269             	3.12957645e+02
270             	3.12955052e+02
271             	3.12952197e+02
272             	3.12949249e+02
273             	3.12946304e+02
274             	3.12943853e+02
275             	3.12942743e+02
276             	3.12942534e+02
277             	3.12942147e+02
278             	3.12942304e+02
279             	3.12943108e+02
280             	3.12944155e+02
281             	3.12945622e+02
282             	3.12947621e+02
283             	3.12950348e+02
284             	3.12954103e+02
285             	3.12959067e+02
286             	3.12964301e+02
287             	3.12969189e+02
288             	3.12972470e+02
289             	3.12974403e+02
290             	3.12975261e+02
291             	3.12975031e+02
292             	3.12974060e+02
293             	3.12972661e+02
294             	3.12970630e+02
295             	3.12968345e+02
296             	3.12966127e+02
297             	3.12964707e+02
298             	3.12964380e+02
299             	3.12965269e+02
300             	3.12967540e+02
301             	3.12969960e+02
302             	3.12972502e+02
303             	3.12975400e+02
304             	3.12978138e+02
305             	3.12980555e+02
306             	3.12982485e+02
307             	3.12983906e+02
308             	3.12984916e+02
309             	3.12985541e+02
310             	3.12986205e+02
311             	3.12987234e+02
312             	3.12988553e+02
313             	3.12989404e+02
314             	3.12990004e+02
315             	3.12990590e+02
316             	3.12990340e+02
317             	3.12989389e+02
318             	3.12988204e+02
319             	3.12987129e+02
320             	3.12986264e+02
321             	3.12985663e+02
322             	3.12985467e+02
323             	3.12985788e+02
324             	3.12986446e+02
325             	3.12987395e+02
326             	3.12989940e+02
327             	3.12990491e+02
328             	3.12991109e+02
329             	3.12992314e+02
330             	3.12993886e+02
331             	3.12995062e+02
332             	3.12995730e+02
333             	3.12995918e+02
334             	3.12995536e+02
335             	3.12994678e+02
336             	3.12993675e+02
337             	3.12992868e+02
338             	3.12992034e+02
339             	3.12990974e+02
340             	3.12991053e+02
341             	3.12991173e+02
342             	3.12991362e+02
343             	3.12992165e+02
344             	3.12993506e+02
345             	3.12995213e+02
346             	3.12997444e+02
347             	3.12999769e+02
348             	3.13002246e+02
349             	3.13004955e+02
350             	3.13007662e+02
351             	3.13009937e+02
352             	3.13011786e+02
353             	3.13013447e+02
354             	3.13013174e+02
355             	3.13012363e+02
356             	3.13011401e+02
357             	3.13010323e+02
358             	3.13009568e+02
359             	3.13009356e+02
360             	3.13009179e+02
361             	3.13008743e+02
362             	3.13008474e+02
363             	3.13008535e+02
364             	3.13009250e+02
365             	3.13010519e+02
366             	3.13011687e+02
367             	3.13012692e+02
368             	3.13013796e+02
369             	3.13014773e+02
370             	3.13015448e+02
371             	3.13015996e+02
372             	3.13016653e+02
373             	3.13017459e+02
374             	3.13018205e+02
375             	3.13018838e+02
376             	3.13019029e+02
377             	3.13018675e+02
378             	3.13018008e+02
379             	3.13017206e+02
380             	3.13016266e+02
381             	3.13015162e+02
382             	3.13013935e+02
383             	3.13012800e+02
384             	3.13012259e+02
385             	3.13012503e+02
386             	3.13012686e+02
387             	3.13012760e+02
388             	3.13013136e+02
389             	3.13013737e+02
390             	3.13014692e+02
391             	3.13015610e+02
392             	3.13016744e+02
393             	3.13017610e+02
394             	3.13018300e+02
395             	3.13019028e+02
396             	3.13019687e+02
397             	3.13020023e+02
398             	3.13019897e+02
399             	3.13019421e+02
400             	3.13018758e+02
401             	3.13018016e+02
402             	3.13017296e+02
403             	3.13016752e+02
404             	3.13016512e+02
405             	3.13016545e+02
406             	3.13016712e+02
407             	3.13016920e+02
408             	3.13017300e+02
409             	3.13017893e+02
410             	3.13018489e+02
411             	3.13018891e+02
412             	3.13019017e+02
413             	3.13018888e+02
414             	3.13018807e+02
415             	3.13018796e+02
416             	3.13018582e+02
417             	3.13018138e+02
418             	3.13017625e+02
419             	3.13017149e+02
420             	3.13016765e+02
421             	3.13016396e+02
422             	3.13016034e+02
423             	3.13015788e+02
424             	3.13015695e+02
425             	3.13015761e+02
426             	3.13015848e+02
427             	3.13015887e+02
428             	3.13016118e+02
429             	3.13016421e+02
430             	3.13016586e+02
431             	3.13016662e+02
432             	3.13016670e+02
433             	3.13016675e+02
434             	3.13016584e+02
435             	3.13016429e+02
436             	3.13016435e+02
437             	3.13016576e+02
438             	3.13016854e+02
439             	3.13017024e+02
440             	3.13017139e+02
441             	3.13016993e+02
442             	3.13016672e+02
443             	3.13016226e+02
444             	3.13015734e+02
445             	3.13015203e+02
446             	3.13014703e+02
447             	3.13014206e+02
448             	3.13013990e+02
449             	3.13013856e+02
450             	3.13013734e+02
451             	3.13013621e+02
452             	3.13013546e+02
453             	3.13013455e+02
454             	3.13013146e+02
455             	3.13012553e+02
456             	3.13011868e+02
457             	3.13011305e+02
458             	3.13010915e+02
459             	3.13010671e+02
460             	3.13010565e+02
461             	3.13010540e+02
462             	3.13010427e+02
463             	3.13010173e+02
464             	3.13009866e+02
465             	3.13009567e+02
466             	3.13009364e+02
467             	3.13009273e+02
468             	3.13009237e+02
469             	3.13009154e+02
470             	3.13008991e+02
471             	3.13008843e+02
472             	3.13008833e+02
473             	3.13008796e+02
474             	3.13008830e+02
475             	3.13009089e+02
476             	3.13009236e+02
477             	3.13009162e+02
478             	3.13008998e+02
479             	3.13008793e+02
480             	3.13008588e+02
481             	3.13008396e+02
482             	3.13008296e+02
483             	3.13008264e+02
484             	3.13008287e+02
485             	3.13008350e+02
486             	3.13008463e+02
487             	3.13008591e+02
488             	3.13008672e+02
489             	3.13008645e+02
490             	3.13008550e+02
491             	3.13008503e+02
492             	3.13008383e+02
493             	3.13008142e+02
494             	3.13007858e+02
495             	3.13007502e+02
496             	3.13007119e+02
497             	3.13006771e+02
498             	3.13006475e+02
499             	3.13006272e+02
500             	3.13006205e+02
501             	3.13006232e+02
502             	3.13006341e+02
503             	3.13006593e+02
504             	3.13006841e+02
505             	3.13006986e+02
506             	3.13007077e+02
507             	3.13007085e+02
508             	3.13007050e+02
509             	3.13006963e+02
510             	3.13006797e+02
511             	3.13006617e+02
512             	3.13006513e+02
513             	3.13006442e+02
514             	3.13006408e+02
515             	3.13006410e+02
516             	3.13006452e+02
517             	3.13006509e+02
518             	3.13006582e+02
519             	3.13006677e+02
520             	3.13006761e+02
521             	3.13006810e+02
522             	3.13006838e+02
523             	3.13006815e+02
524             	3.13006761e+02
525             	3.13006616e+02
526             	3.13006455e+02
527             	3.13006306e+02
528             	3.13006178e+02
529             	3.13006044e+02
530             	3.13005910e+02
531             	3.13005741e+02
532             	3.13005554e+02
533             	3.13005337e+02
534             	3.13005168e+02
535             	3.13005022e+02
536             	3.13005110e+02
537             	3.13005326e+02
538             	3.13005555e+02
539             	3.13005793e+02
540             	3.13005870e+02
541             	3.13005797e+02
542             	3.13005750e+02
543             	3.13005670e+02
544             	3.13005616e+02
545             	3.13005582e+02
546             	3.13005518e+02
547             	3.13005443e+02
548             	3.13005402e+02
549             	3.13005436e+02
550             	3.13005470e+02
551             	3.13005463e+02
552             	3.13005447e+02
553             	3.13005398e+02
554             	3.13005335e+02
555             	3.13005229e+02
556             	3.13005171e+02
557             	3.13005163e+02
558             	3.13005219e+02
559             	3.13005260e+02
560             	3.13005355e+02
561             	3.13005498e+02
562             	3.13005596e+02
563             	3.13005587e+02
564             	3.13005503e+02
565             	3.13005340e+02
566             	3.13005153e+02
567             	3.13004943e+02
568             	3.13004749e+02
569             	3.13004606e+02
570             	3.13004510e+02
571             	3.13004466e+02
572             	3.13004512e+02
573             	3.13004602e+02
574             	3.13004711e+02
575             	3.13004806e+02
576             	3.13004907e+02
577             	3.13004983e+02
578             	3.13005050e+02
579             	3.13005073e+02
580             	3.13005084e+02
581             	3.13005070e+02
582             	3.13005063e+02
583             	3.13004995e+02
584             	3.13004938e+02
585             	3.13004845e+02
586             	3.13004765e+02
587             	3.13004698e+02
588             	3.13004645e+02
589             	3.13004576e+02
590             	3.13004537e+02
591             	3.13004488e+02
592             	3.13004426e+02
593             	3.13004350e+02
594             	3.13004317e+02
595             	3.13004290e+02
596             	3.13004278e+02
597             	3.13004260e+02
598             	3.13004251e+02
599             	3.13004239e+02
600             	3.13004236e+02
601             	3.13004233e+02
602             	3.13004231e+02
603             	3.13004211e+02
604             	3.13004211e+02
605             	3.13004211e+02
606             	3.13004213e+02
607             	3.13004189e+02
608             	3.13004148e+02
609             	3.13004085e+02
610             	3.13004027e+02
611             	3.13003969e+02
612             	3.13003946e+02
613             	3.13003931e+02
614             	3.13003944e+02
615             	3.13003959e+02
616             	3.13004004e+02
617             	3.13004058e+02
618             	3.13004126e+02
619             	3.13004182e+02
620             	3.13004251e+02
621             	3.13004311e+02
