# Region        : cellZone component_2
# Cells         : 105
# Volume        : 1.90981694e-01
# Time          	volAverage(T)
1               	3.00279247e+02
2               	3.00554903e+02
3               	3.00814722e+02
4               	3.01063107e+02
5               	3.01304053e+02
6               	3.01539292e+02
7               	3.01769987e+02
8               	3.01997060e+02
9               	3.02222487e+02
10              	3.02445215e+02
11              	3.02664302e+02
12              	3.02878510e+02
13              	3.03084155e+02
14              	3.03282710e+02
15              	3.03479434e+02
16              	3.03670308e+02
17              	3.03858655e+02
18              	3.04043069e+02
19              	3.04226342e+02
20              	3.04408023e+02
21              	3.04588123e+02
22              	3.04767438e+02
23              	3.04944678e+02
24              	3.05116592e+02
25              	3.05285215e+02
26              	3.05448674e+02
27              	3.05608408e+02
28              	3.05765037e+02
29              	3.05916143e+02
30              	3.06065527e+02
31              	3.06214886e+02
32              	3.06366018e+02
33              	3.06519257e+02
34              	3.06654792e+02
35              	3.06766460e+02
36              	3.06879699e+02
37              	3.06999586e+02
38              	3.07121015e+02
39              	3.07244009e+02
40              	3.07367151e+02
41              	3.07489667e+02
42              	3.07607884e+02
43              	3.07725172e+02
44              	3.07834702e+02
45              	3.07942259e+02
46              	3.08051812e+02
47              	3.08158042e+02
48              	3.08266672e+02
49              	3.08339392e+02
50              	3.08399624e+02
51              	3.08463793e+02
52              	3.08533816e+02
53              	3.08614386e+02
54              	3.08701493e+02
55              	3.08787431e+02
56              	3.08873691e+02
57              	3.08966202e+02
58              	3.09055250e+02
59              	3.09139542e+02
60              	3.09219540e+02
61              	3.09296089e+02
62              	3.09360379e+02
63              	3.09422584e+02
64              	3.09489625e+02
65              	3.09557342e+02
66              	3.09623722e+02
67              	3.09685695e+02
68              	3.09750341e+02
69              	3.09820244e+02
70              	3.09894446e+02
71              	3.09972699e+02
72              	3.10049700e+02
73              	3.10128517e+02
74              	3.10208389e+02
75              	3.10283615e+02
76              	3.10354462e+02
77              	3.10419864e+02
78              	3.10481992e+02
79              	3.10541121e+02
80              	3.10597139e+02
81              	3.10665375e+02
82              	3.10720051e+02
83              	3.10762192e+02
84              	3.10794505e+02
85              	3.10818249e+02
86              	3.10847173e+02
87              	3.10884272e+02
88              	3.10930155e+02
89              	3.10978005e+02
90              	3.11023438e+02
91              	3.11065186e+02
92              	3.11104259e+02
93              	3.11142135e+02
94              	3.11181002e+02
95              	3.11221623e+02
96              	3.11263420e+02
97              	3.11310323e+02
98              	3.11362522e+02
99              	3.11418309e+02
100             	3.11473563e+02
101             	3.11529415e+02
102             	3.11582600e+02
103             	3.11636465e+02
104             	3.11694155e+02
105             	3.11751529e+02
106             	3.11810156e+02
107             	3.11868316e+02
108             	3.11926615e+02
109             	3.11985502e+02
110             	3.12040066e+02
111             	3.12095127e+02
112             	3.12146723e+02
113             	3.12195001e+02
114             	3.12243721e+02
115             	3.12293842e+02
116             	3.12344484e+02
117             	3.12401790e+02
118             	3.12457596e+02
119             	3.12503677e+02
120             	3.12527972e+02
121             	3.12560619e+02
122             	3.12600121e+02
123             	3.12641661e+02
124             	3.12685923e+02
125             	3.12732861e+02
126             	3.12784119e+02
127             	3.12853776e+02
128             	3.12901474e+02
129             	3.12934911e+02
130             	3.12955567e+02
131             	3.12979633e+02
132             	3.13016130e+02
133             	3.13048193e+02
134             	3.13074513e+02
135             	3.13095501e+02
136             	3.13116366e+02
137             	3.13138668e+02
138             	3.13166883e+02
139             	3.13192446e+02
140             	3.13202123e+02
141             	3.13193839e+02
142             	3.13193468e+02
143             	3.13191508e+02
144             	3.13204314e+02
145             	3.13227740e+02
146             	3.13242522e+02
147             	3.13251284e+02
148             	3.13260252e+02
149             	3.13280303e+02
150             	3.13303174e+02
151             	3.13327667e+02
152             	3.13345553e+02
153             	3.13358216e+02
154             	3.13364965e+02
155             	3.13371110e+02
156             	3.13385405e+02
157             	3.13407180e+02
158             	3.13430558e+02
159             	3.13451453e+02
160             	3.13469215e+02
161             	3.13483568e+02
162             	3.13494711e+02
163             	3.13504246e+02
164             	3.13514708e+02
165             	3.13530104e+02
166             	3.13553229e+02
167             	3.13584821e+02
168             	3.13624123e+02
169             	3.13662182e+02
170             	3.13700668e+02
171             	3.13739459e+02
172             	3.13775367e+02
173             	3.13809386e+02
174             	3.13840638e+02
175             	3.13870030e+02
176             	3.13901283e+02
177             	3.13930961e+02
178             	3.13961940e+02
179             	3.13995935e+02
180             	3.14033757e+02
181             	3.14068368e+02
182             	3.14098825e+02
183             	3.14128736e+02
184             	3.14162762e+02
185             	3.14194560e+02
186             	3.14221396e+02
187             	3.14245267e+02
188             	3.14267520e+02
189             	3.14288481e+02
190             	3.14308594e+02
191             	3.14329198e+02
192             	3.14352139e+02
193             	3.14377946e+02
194             	3.14406167e+02
195             	3.14438067e+02
196             	3.14473376e+02
197             	3.14510608e+02
198             	3.14547962e+02
199             	3.14584874e+02
200             	3.14620143e+02
201             	3.14653492e+02
202             	3.14685606e+02
203             	3.14712896e+02
204             	3.14743469e+02
205             	3.14779379e+02
206             	3.14818462e+02
207             	3.14857454e+02
208             	3.14895785e+02
209             	3.14931450e+02
210             	3.14967924e+02
211             	3.14999239e+02
212             	3.15027263e+02
213             	3.15050063e+02
214             	3.15071208e+02
215             	3.15093265e+02
216             	3.15118322e+02
217             	3.15142096e+02
218             	3.15168006e+02
219             	3.15195987e+02
220             	3.15225190e+02
221             	3.15257984e+02
222             	3.15290012e+02
223             	3.15321628e+02
224             	3.15353654e+02
225             	3.15383694e+02
226             	3.15412998e+02
227             	3.15442421e+02
228             	3.15466858e+02
229             	3.15492634e+02
230             	3.15518203e+02
231             	3.15547228e+02
232             	3.15575892e+02
233             	3.15604040e+02
234             	3.15630283e+02
235             	3.15657266e+02
236             	3.15684882e+02
237             	3.15706389e+02
238             	3.15729090e+02
239             	3.15748958e+02
240             	3.15769953e+02
241             	3.15790958e+02
242             	3.15809637e+02
243             	3.15828986e+02
244             	3.15851384e+02
245             	3.15872097e+02
246             	3.15898221e+02
247             	3.15921386e+02
248             	3.15947776e+02
249             	3.15972454e+02
250             	3.15999210e+02
251             	3.16025589e+02
252             	3.16048269e+02
253             	3.16068165e+02
254             	3.16086739e+02
255             	3.16106390e+02
256             	3.16123467e+02
257             	3.16137931e+02
258             	3.16154486e+02
259             	3.16169004e+02
260             	3.16185804e+02
261             	3.16202879e+02
262             	3.16217709e+02
263             	3.16236461e+02
264             	3.16253042e+02
265             	3.16272602e+02
266             	3.16290132e+02
267             	3.16309031e+02
268             	3.16325100e+02
269             	3.16342635e+02
270             	3.16357066e+02
271             	3.16373499e+02
272             	3.16389450e+02
273             	3.16402740e+02
274             	3.16417331e+02
275             	3.16433928e+02
276             	3.16446538e+02
277             	3.16460388e+02
278             	3.16474365e+02
279             	3.16490109e+02
280             	3.16501228e+02
281             	3.16512339e+02
282             	3.16527170e+02
283             	3.16538831e+02
284             	3.16552780e+02
285             	3.16564488e+02
286             	3.16578859e+02
287             	3.16590361e+02
288             	3.16603732e+02
289             	3.16616200e+02
290             	3.16630221e+02
291             	3.16639237e+02
292             	3.16649325e+02
293             	3.16659443e+02
294             	3.16670644e+02
295             	3.16678657e+02
296             	3.16688609e+02
297             	3.16697042e+02
298             	3.16707993e+02
299             	3.16716673e+02
300             	3.16728493e+02
301             	3.16737913e+02
302             	3.16749248e+02
303             	3.16758437e+02
304             	3.16769061e+02
305             	3.16776912e+02
306             	3.16786502e+02
307             	3.16793233e+02
308             	3.16801450e+02
309             	3.16807768e+02
310             	3.16816730e+02
311             	3.16822813e+02
312             	3.16832033e+02
313             	3.16839436e+02
314             	3.16847314e+02
315             	3.16855175e+02
316             	3.16864377e+02
317             	3.16869925e+02
318             	3.16876818e+02
319             	3.16881191e+02
320             	3.16888216e+02
321             	3.16892608e+02
322             	3.16899227e+02
323             	3.16904211e+02
324             	3.16911772e+02
325             	3.16917375e+02
326             	3.16925874e+02
327             	3.16932014e+02
328             	3.16939023e+02
329             	3.16948265e+02
330             	3.16952641e+02
331             	3.16959156e+02
332             	3.16963076e+02
333             	3.16969431e+02
334             	3.16973374e+02
335             	3.16979765e+02
336             	3.16984373e+02
337             	3.16991535e+02
338             	3.16996940e+02
339             	3.17004076e+02
340             	3.17010585e+02
341             	3.17015154e+02
342             	3.17021286e+02
343             	3.17024626e+02
344             	3.17029939e+02
345             	3.17032661e+02
346             	3.17038021e+02
347             	3.17040902e+02
348             	3.17046160e+02
349             	3.17049418e+02
350             	3.17055200e+02
351             	3.17059093e+02
352             	3.17064909e+02
353             	3.17072135e+02
354             	3.17075081e+02
355             	3.17079901e+02
356             	3.17082173e+02
357             	3.17087154e+02
358             	3.17089151e+02
359             	3.17093345e+02
360             	3.17095830e+02
361             	3.17100610e+02
362             	3.17103433e+02
363             	3.17108687e+02
364             	3.17111774e+02
365             	3.17117089e+02
366             	3.17119918e+02
367             	3.17124780e+02
368             	3.17127265e+02
369             	3.17131388e+02
370             	3.17133374e+02
371             	3.17137411e+02
372             	3.17139177e+02
373             	3.17143194e+02
374             	3.17145014e+02
375             	3.17149278e+02
376             	3.17151382e+02
377             	3.17155940e+02
378             	3.17158214e+02
379             	3.17162087e+02
380             	3.17164156e+02
381             	3.17168170e+02
382             	3.17169780e+02
383             	3.17173266e+02
384             	3.17174475e+02
385             	3.17177834e+02
386             	3.17178949e+02
387             	3.17182388e+02
388             	3.17183571e+02
389             	3.17187228e+02
390             	3.17188673e+02
391             	3.17192520e+02
392             	3.17194232e+02
393             	3.17197900e+02
394             	3.17199488e+02
395             	3.17203117e+02
396             	3.17204238e+02
397             	3.17207425e+02
398             	3.17208158e+02
399             	3.17211208e+02
400             	3.17211902e+02
401             	3.17214798e+02
402             	3.17215635e+02
403             	3.17218750e+02
404             	3.17219806e+02
405             	3.17223191e+02
406             	3.17224464e+02
407             	3.17227796e+02
408             	3.17229072e+02
409             	3.17232309e+02
410             	3.17233308e+02
411             	3.17236415e+02
412             	3.17237143e+02
413             	3.17239907e+02
414             	3.17240437e+02
415             	3.17243045e+02
416             	3.17243421e+02
417             	3.17245940e+02
418             	3.17246324e+02
419             	3.17249110e+02
420             	3.17249661e+02
421             	3.17252532e+02
422             	3.17253224e+02
423             	3.17256131e+02
424             	3.17256811e+02
425             	3.17259632e+02
426             	3.17260065e+02
427             	3.17262638e+02
428             	3.17262838e+02
429             	3.17265189e+02
430             	3.17265248e+02
431             	3.17267443e+02
432             	3.17267475e+02
433             	3.17269766e+02
434             	3.17269880e+02
435             	3.17272211e+02
436             	3.17272473e+02
437             	3.17274853e+02
438             	3.17275107e+02
439             	3.17277450e+02
440             	3.17277510e+02
441             	3.17279633e+02
442             	3.17279485e+02
443             	3.17281579e+02
444             	3.17281408e+02
445             	3.17283518e+02
446             	3.17283469e+02
447             	3.17285612e+02
448             	3.17285655e+02
449             	3.17287780e+02
450             	3.17287793e+02
451             	3.17289955e+02
452             	3.17289856e+02
453             	3.17291976e+02
454             	3.17291777e+02
455             	3.17293747e+02
456             	3.17293506e+02
457             	3.17295452e+02
458             	3.17295165e+02
459             	3.17297077e+02
460             	3.17296777e+02
461             	3.17298699e+02
462             	3.17298425e+02
463             	3.17300379e+02
464             	3.17300131e+02
465             	3.17302091e+02
466             	3.17301874e+02
467             	3.17303764e+02
468             	3.17303529e+02
469             	3.17305432e+02
470             	3.17305108e+02
471             	3.17306896e+02
472             	3.17306481e+02
473             	3.17308220e+02
474             	3.17307765e+02
475             	3.17309463e+02
476             	3.17308957e+02
477             	3.17310681e+02
478             	3.17310186e+02
479             	3.17311906e+02
480             	3.17311434e+02
481             	3.17313166e+02
482             	3.17312691e+02
483             	3.17314442e+02
484             	3.17313947e+02
485             	3.17315644e+02
486             	3.17315128e+02
487             	3.17316779e+02
488             	3.17316239e+02
489             	3.17317851e+02
490             	3.17317253e+02
491             	3.17318807e+02
492             	3.17318178e+02
493             	3.17319733e+02
494             	3.17319108e+02
495             	3.17320680e+02
496             	3.17320055e+02
497             	3.17321663e+02
498             	3.17321059e+02
499             	3.17322694e+02
500             	3.17322117e+02
501             	3.17323739e+02
502             	3.17323155e+02
503             	3.17324740e+02
504             	3.17324137e+02
505             	3.17325669e+02
506             	3.17325012e+02
507             	3.17326507e+02
508             	3.17325816e+02
509             	3.17327296e+02
510             	3.17326606e+02
511             	3.17328098e+02
512             	3.17327419e+02
513             	3.17328932e+02
514             	3.17328265e+02
515             	3.17329803e+02
516             	3.17329119e+02
517             	3.17330627e+02
518             	3.17329929e+02
519             	3.17331420e+02
520             	3.17330713e+02
521             	3.17332176e+02
522             	3.17331436e+02
523             	3.17332875e+02
524             	3.17332120e+02
525             	3.17333548e+02
526             	3.17332774e+02
527             	3.17334175e+02
528             	3.17333385e+02
529             	3.17334780e+02
530             	3.17333985e+02
531             	3.17335390e+02
532             	3.17334587e+02
533             	3.17335985e+02
534             	3.17335188e+02
535             	3.17336594e+02
536             	3.17335795e+02
537             	3.17337177e+02
538             	3.17336365e+02
539             	3.17337730e+02
540             	3.17336906e+02
541             	3.17338256e+02
542             	3.17337415e+02
543             	3.17338768e+02
544             	3.17337932e+02
545             	3.17339290e+02
546             	3.17338462e+02
547             	3.17339808e+02
548             	3.17338968e+02
549             	3.17340299e+02
550             	3.17339451e+02
551             	3.17340774e+02
552             	3.17339900e+02
553             	3.17341198e+02
554             	3.17340310e+02
555             	3.17341614e+02
556             	3.17340721e+02
557             	3.17342039e+02
558             	3.17341158e+02
559             	3.17342481e+02
560             	3.17341626e+02
561             	3.17342958e+02
562             	3.17342101e+02
563             	3.17343406e+02
564             	3.17342531e+02
565             	3.17343832e+02
566             	3.17342919e+02
567             	3.17344182e+02
568             	3.17343251e+02
569             	3.17344508e+02
570             	3.17343598e+02
571             	3.17344879e+02
572             	3.17343972e+02
573             	3.17345250e+02
574             	3.17344352e+02
575             	3.17345619e+02
576             	3.17344714e+02
577             	3.17345980e+02
578             	3.17345047e+02
579             	3.17346297e+02
580             	3.17345349e+02
581             	3.17346591e+02
582             	3.17345630e+02
583             	3.17346876e+02
584             	3.17345927e+02
585             	3.17347188e+02
586             	3.17346255e+02
587             	3.17347512e+02
588             	3.17346586e+02
589             	3.17347830e+02
590             	3.17346903e+02
591             	3.17348149e+02
592             	3.17347194e+02
593             	3.17348414e+02
594             	3.17347440e+02
595             	3.17348660e+02
596             	3.17347680e+02
597             	3.17348886e+02
598             	3.17347904e+02
599             	3.17349110e+02
600             	3.17348138e+02
601             	3.17349347e+02
602             	3.17348368e+02
603             	3.17349579e+02
604             	3.17348599e+02
605             	3.17349814e+02
606             	3.17348832e+02
607             	3.17350028e+02
608             	3.17349036e+02
609             	3.17350227e+02
610             	3.17349235e+02
611             	3.17350424e+02
612             	3.17349417e+02
613             	3.17350597e+02
614             	3.17349590e+02
615             	3.17350776e+02
616             	3.17349769e+02
617             	3.17350955e+02
618             	3.17349950e+02
619             	3.17351138e+02
620             	3.17350146e+02
621             	3.17351341e+02
