# Region        : cellZone component_0
# Cells         : 252
# Volume        : 5.04632506e-01
# Time          	volAverage(T)
1               	3.00078193e+02
2               	3.00155655e+02
3               	3.00229640e+02
4               	3.00301133e+02
5               	3.00370748e+02
6               	3.00439249e+02
7               	3.00505829e+02
8               	3.00572045e+02
9               	3.00637738e+02
10              	3.00703121e+02
11              	3.00767845e+02
12              	3.00831504e+02
13              	3.00894041e+02
14              	3.00956131e+02
15              	3.01017412e+02
16              	3.01077388e+02
17              	3.01137374e+02
18              	3.01196390e+02
19              	3.01253866e+02
20              	3.01311004e+02
21              	3.01368128e+02
22              	3.01423315e+02
23              	3.01477332e+02
24              	3.01530778e+02
25              	3.01583760e+02
26              	3.01636140e+02
27              	3.01687716e+02
28              	3.01738259e+02
29              	3.01787241e+02
30              	3.01834911e+02
31              	3.01881934e+02
32              	3.01929901e+02
33              	3.01976233e+02
34              	3.02019826e+02
35              	3.02061257e+02
36              	3.02098789e+02
37              	3.02135572e+02
38              	3.02172071e+02
39              	3.02212153e+02
40              	3.02253175e+02
41              	3.02293365e+02
42              	3.02334474e+02
43              	3.02375454e+02
44              	3.02417571e+02
45              	3.02455714e+02
46              	3.02490991e+02
47              	3.02524933e+02
48              	3.02562170e+02
49              	3.02600230e+02
50              	3.02637825e+02
51              	3.02676124e+02
52              	3.02714780e+02
53              	3.02753883e+02
54              	3.02793354e+02
55              	3.02832902e+02
56              	3.02872029e+02
57              	3.02912678e+02
58              	3.02952376e+02
59              	3.02992575e+02
60              	3.03033690e+02
61              	3.03073392e+02
62              	3.03112642e+02
63              	3.03151230e+02
64              	3.03188695e+02
65              	3.03226733e+02
66              	3.03265551e+02
67              	3.03304113e+02
68              	3.03343356e+02
69              	3.03378662e+02
70              	3.03412451e+02
71              	3.03446453e+02
72              	3.03480730e+02
73              	3.03515163e+02
74              	3.03548807e+02
75              	3.03581197e+02
76              	3.03614057e+02
77              	3.03645837e+02
78              	3.03676760e+02
79              	3.03706575e+02
80              	3.03736518e+02
81              	3.03766470e+02
82              	3.03796227e+02
83              	3.03825943e+02
84              	3.03855704e+02
85              	3.03885372e+02
86              	3.03914972e+02
87              	3.03944332e+02
88              	3.03973114e+02
89              	3.04001662e+02
90              	3.04030028e+02
91              	3.04057449e+02
92              	3.04085353e+02
93              	3.04112413e+02
94              	3.04139496e+02
95              	3.04166826e+02
96              	3.04193835e+02
97              	3.04220536e+02
98              	3.04246609e+02
99              	3.04272129e+02
100             	3.04297689e+02
101             	3.04323221e+02
102             	3.04348491e+02
103             	3.04373271e+02
104             	3.04397452e+02
105             	3.04421069e+02
106             	3.04444269e+02
107             	3.04467271e+02
108             	3.04490125e+02
109             	3.04512698e+02
110             	3.04535186e+02
111             	3.04557251e+02
112             	3.04579146e+02
113             	3.04601071e+02
114             	3.04622788e+02
115             	3.04644712e+02
116             	3.04666680e+02
117             	3.04688466e+02
118             	3.04709613e+02
119             	3.04730229e+02
120             	3.04750403e+02
121             	3.04770102e+02
122             	3.04789097e+02
123             	3.04807764e+02
124             	3.04827712e+02
125             	3.04847652e+02
126             	3.04866484e+02
127             	3.04884688e+02
128             	3.04903299e+02
129             	3.04922182e+02
130             	3.04941167e+02
131             	3.04959021e+02
132             	3.04975239e+02
133             	3.04991442e+02
134             	3.05007722e+02
135             	3.05023857e+02
136             	3.05040358e+02
137             	3.05057008e+02
138             	3.05073400e+02
139             	3.05090023e+02
140             	3.05106997e+02
141             	3.05123580e+02
142             	3.05139777e+02
143             	3.05155510e+02
144             	3.05170186e+02
145             	3.05184581e+02
146             	3.05199591e+02
147             	3.05214831e+02
148             	3.05229290e+02
149             	3.05243804e+02
150             	3.05259043e+02
151             	3.05273882e+02
152             	3.05288451e+02
153             	3.05302033e+02
154             	3.05315859e+02
155             	3.05329313e+02
156             	3.05342612e+02
157             	3.05355630e+02
158             	3.05368178e+02
159             	3.05380890e+02
160             	3.05393498e+02
161             	3.05406493e+02
162             	3.05419818e+02
163             	3.05433424e+02
164             	3.05446692e+02
165             	3.05459900e+02
166             	3.05472958e+02
167             	3.05485691e+02
168             	3.05497985e+02
169             	3.05509931e+02
170             	3.05521754e+02
171             	3.05532976e+02
172             	3.05544572e+02
173             	3.05556403e+02
174             	3.05568320e+02
175             	3.05580311e+02
176             	3.05592601e+02
177             	3.05604900e+02
178             	3.05616799e+02
179             	3.05628451e+02
180             	3.05639810e+02
181             	3.05650929e+02
182             	3.05661711e+02
183             	3.05672310e+02
184             	3.05682764e+02
185             	3.05693129e+02
186             	3.05703438e+02
187             	3.05713540e+02
188             	3.05723598e+02
189             	3.05733794e+02
190             	3.05743941e+02
191             	3.05753993e+02
192             	3.05763920e+02
193             	3.05773585e+02
194             	3.05783120e+02
195             	3.05792489e+02
196             	3.05801611e+02
197             	3.05810656e+02
198             	3.05819658e+02
199             	3.05828661e+02
200             	3.05837580e+02
201             	3.05846566e+02
202             	3.05855374e+02
203             	3.05864183e+02
204             	3.05872930e+02
205             	3.05881550e+02
206             	3.05890015e+02
207             	3.05898484e+02
208             	3.05906681e+02
209             	3.05914336e+02
210             	3.05921889e+02
211             	3.05929471e+02
212             	3.05937026e+02
213             	3.05944530e+02
214             	3.05952067e+02
215             	3.05959998e+02
216             	3.05967415e+02
217             	3.05974972e+02
218             	3.05982594e+02
219             	3.05990147e+02
220             	3.05997346e+02
221             	3.06004429e+02
222             	3.06011418e+02
223             	3.06018233e+02
224             	3.06024932e+02
225             	3.06031491e+02
226             	3.06038016e+02
227             	3.06044595e+02
228             	3.06051135e+02
229             	3.06057569e+02
230             	3.06063957e+02
231             	3.06070344e+02
232             	3.06076674e+02
233             	3.06082986e+02
234             	3.06089230e+02
235             	3.06095471e+02
236             	3.06101713e+02
237             	3.06107785e+02
238             	3.06113776e+02
239             	3.06119573e+02
240             	3.06125165e+02
241             	3.06130671e+02
242             	3.06136125e+02
243             	3.06141533e+02
244             	3.06146851e+02
245             	3.06151681e+02
246             	3.06156904e+02
247             	3.06162277e+02
248             	3.06167630e+02
249             	3.06172773e+02
250             	3.06177676e+02
251             	3.06182426e+02
252             	3.06187406e+02
253             	3.06192010e+02
254             	3.06196590e+02
255             	3.06201139e+02
256             	3.06205644e+02
257             	3.06210004e+02
258             	3.06214460e+02
259             	3.06218730e+02
260             	3.06223032e+02
261             	3.06227400e+02
262             	3.06231801e+02
263             	3.06236131e+02
264             	3.06240332e+02
265             	3.06244460e+02
266             	3.06248634e+02
267             	3.06252825e+02
268             	3.06256889e+02
269             	3.06260552e+02
270             	3.06264621e+02
271             	3.06268850e+02
272             	3.06272979e+02
273             	3.06277171e+02
274             	3.06281258e+02
275             	3.06285338e+02
276             	3.06289492e+02
277             	3.06293743e+02
278             	3.06298022e+02
279             	3.06302230e+02
280             	3.06306247e+02
281             	3.06310057e+02
282             	3.06313830e+02
283             	3.06317539e+02
284             	3.06321260e+02
285             	3.06325043e+02
286             	3.06328870e+02
287             	3.06332790e+02
288             	3.06336628e+02
289             	3.06340462e+02
290             	3.06344111e+02
291             	3.06347647e+02
292             	3.06351047e+02
293             	3.06354281e+02
294             	3.06357372e+02
295             	3.06360355e+02
296             	3.06363375e+02
297             	3.06366407e+02
298             	3.06369524e+02
299             	3.06372693e+02
300             	3.06375810e+02
301             	3.06378951e+02
302             	3.06382070e+02
303             	3.06385043e+02
304             	3.06387846e+02
305             	3.06390684e+02
306             	3.06393474e+02
307             	3.06396233e+02
308             	3.06398994e+02
309             	3.06401776e+02
310             	3.06404521e+02
311             	3.06407159e+02
312             	3.06409773e+02
313             	3.06412325e+02
314             	3.06414846e+02
315             	3.06417440e+02
316             	3.06420098e+02
317             	3.06422677e+02
318             	3.06425226e+02
319             	3.06427723e+02
320             	3.06430229e+02
321             	3.06432618e+02
322             	3.06435004e+02
323             	3.06437401e+02
324             	3.06439719e+02
325             	3.06441949e+02
326             	3.06444122e+02
327             	3.06446329e+02
328             	3.06448541e+02
329             	3.06450715e+02
330             	3.06452856e+02
331             	3.06454989e+02
332             	3.06457240e+02
333             	3.06459546e+02
334             	3.06461836e+02
335             	3.06464052e+02
336             	3.06466321e+02
337             	3.06468586e+02
338             	3.06470796e+02
339             	3.06472943e+02
340             	3.06474948e+02
341             	3.06476854e+02
342             	3.06478701e+02
343             	3.06480756e+02
344             	3.06482849e+02
345             	3.06484790e+02
346             	3.06486805e+02
347             	3.06488586e+02
348             	3.06490421e+02
349             	3.06492313e+02
350             	3.06494109e+02
351             	3.06495773e+02
352             	3.06497464e+02
353             	3.06499261e+02
354             	3.06501084e+02
355             	3.06502387e+02
356             	3.06503932e+02
357             	3.06505488e+02
358             	3.06507058e+02
359             	3.06508499e+02
360             	3.06509920e+02
361             	3.06511486e+02
362             	3.06513181e+02
363             	3.06514918e+02
364             	3.06516746e+02
365             	3.06518512e+02
366             	3.06520295e+02
367             	3.06521867e+02
368             	3.06523172e+02
369             	3.06524502e+02
370             	3.06525884e+02
371             	3.06527261e+02
372             	3.06528645e+02
373             	3.06529945e+02
374             	3.06531278e+02
375             	3.06532632e+02
376             	3.06534071e+02
377             	3.06535597e+02
378             	3.06536969e+02
379             	3.06537731e+02
380             	3.06539042e+02
381             	3.06540424e+02
382             	3.06541782e+02
383             	3.06543131e+02
384             	3.06544515e+02
385             	3.06545787e+02
386             	3.06547103e+02
387             	3.06548186e+02
388             	3.06549013e+02
389             	3.06549723e+02
390             	3.06550496e+02
391             	3.06551312e+02
392             	3.06551589e+02
393             	3.06552244e+02
394             	3.06553081e+02
395             	3.06554189e+02
396             	3.06555418e+02
397             	3.06556758e+02
398             	3.06558051e+02
399             	3.06559277e+02
400             	3.06560434e+02
401             	3.06561529e+02
402             	3.06562709e+02
403             	3.06563698e+02
404             	3.06564299e+02
405             	3.06565067e+02
406             	3.06565984e+02
407             	3.06566857e+02
408             	3.06567820e+02
409             	3.06568872e+02
410             	3.06570001e+02
411             	3.06570984e+02
412             	3.06571799e+02
413             	3.06572497e+02
414             	3.06573150e+02
415             	3.06573888e+02
416             	3.06574417e+02
417             	3.06575015e+02
418             	3.06575600e+02
419             	3.06576240e+02
420             	3.06577013e+02
421             	3.06577867e+02
422             	3.06578688e+02
423             	3.06579565e+02
424             	3.06580515e+02
425             	3.06581528e+02
426             	3.06582517e+02
427             	3.06583342e+02
428             	3.06584106e+02
429             	3.06584837e+02
430             	3.06585593e+02
431             	3.06585777e+02
432             	3.06586504e+02
433             	3.06587442e+02
434             	3.06588540e+02
435             	3.06589720e+02
436             	3.06590987e+02
437             	3.06592240e+02
438             	3.06593341e+02
439             	3.06594339e+02
440             	3.06595168e+02
441             	3.06595892e+02
442             	3.06596538e+02
443             	3.06597229e+02
444             	3.06597782e+02
445             	3.06598431e+02
446             	3.06599286e+02
447             	3.06600130e+02
448             	3.06601031e+02
449             	3.06601937e+02
450             	3.06602818e+02
451             	3.06603682e+02
452             	3.06604390e+02
453             	3.06605004e+02
454             	3.06605558e+02
455             	3.06606163e+02
456             	3.06606813e+02
457             	3.06607283e+02
458             	3.06607704e+02
459             	3.06608329e+02
460             	3.06609119e+02
461             	3.06609936e+02
462             	3.06610797e+02
463             	3.06611697e+02
464             	3.06612599e+02
465             	3.06613414e+02
466             	3.06614059e+02
467             	3.06614591e+02
468             	3.06615066e+02
469             	3.06615553e+02
470             	3.06615967e+02
471             	3.06616408e+02
472             	3.06616820e+02
473             	3.06617322e+02
474             	3.06617969e+02
475             	3.06618672e+02
476             	3.06619392e+02
477             	3.06620085e+02
478             	3.06620613e+02
479             	3.06621044e+02
480             	3.06621381e+02
481             	3.06621765e+02
482             	3.06622198e+02
483             	3.06622463e+02
484             	3.06622798e+02
485             	3.06623254e+02
486             	3.06623755e+02
487             	3.06624268e+02
488             	3.06624655e+02
489             	3.06625172e+02
490             	3.06625747e+02
491             	3.06626355e+02
492             	3.06626959e+02
493             	3.06627560e+02
494             	3.06628013e+02
495             	3.06628401e+02
496             	3.06628759e+02
497             	3.06629094e+02
498             	3.06629474e+02
499             	3.06629893e+02
500             	3.06630327e+02
501             	3.06630763e+02
502             	3.06631156e+02
503             	3.06631537e+02
504             	3.06631966e+02
505             	3.06632461e+02
506             	3.06632914e+02
507             	3.06633303e+02
508             	3.06633721e+02
509             	3.06634069e+02
510             	3.06634415e+02
511             	3.06634741e+02
512             	3.06635098e+02
513             	3.06635483e+02
514             	3.06635853e+02
515             	3.06636229e+02
516             	3.06636619e+02
517             	3.06637048e+02
518             	3.06637425e+02
519             	3.06637835e+02
520             	3.06638276e+02
521             	3.06638725e+02
522             	3.06639153e+02
523             	3.06639577e+02
524             	3.06639877e+02
525             	3.06640158e+02
526             	3.06640394e+02
527             	3.06640575e+02
528             	3.06640708e+02
529             	3.06640824e+02
530             	3.06641009e+02
531             	3.06641164e+02
532             	3.06641386e+02
533             	3.06641636e+02
534             	3.06641769e+02
535             	3.06641939e+02
536             	3.06642118e+02
537             	3.06642323e+02
538             	3.06642549e+02
539             	3.06642816e+02
540             	3.06643100e+02
541             	3.06643403e+02
542             	3.06643731e+02
543             	3.06643973e+02
544             	3.06644213e+02
545             	3.06644548e+02
546             	3.06644862e+02
547             	3.06645148e+02
548             	3.06645452e+02
549             	3.06645699e+02
550             	3.06645975e+02
551             	3.06646276e+02
552             	3.06646535e+02
553             	3.06646814e+02
554             	3.06647097e+02
555             	3.06647371e+02
556             	3.06647689e+02
557             	3.06647954e+02
558             	3.06648207e+02
559             	3.06648413e+02
560             	3.06648595e+02
561             	3.06648741e+02
562             	3.06648878e+02
563             	3.06649039e+02
564             	3.06649196e+02
565             	3.06649367e+02
566             	3.06649526e+02
567             	3.06649718e+02
568             	3.06649921e+02
569             	3.06650156e+02
570             	3.06650423e+02
571             	3.06650694e+02
572             	3.06650980e+02
573             	3.06651227e+02
574             	3.06651463e+02
575             	3.06651690e+02
576             	3.06651898e+02
577             	3.06652097e+02
578             	3.06652262e+02
579             	3.06652413e+02
580             	3.06652567e+02
581             	3.06652743e+02
582             	3.06652900e+02
583             	3.06653095e+02
584             	3.06653322e+02
585             	3.06653558e+02
586             	3.06653786e+02
587             	3.06654006e+02
588             	3.06654226e+02
589             	3.06654430e+02
590             	3.06654638e+02
591             	3.06654841e+02
592             	3.06655029e+02
593             	3.06655211e+02
594             	3.06655358e+02
595             	3.06655500e+02
596             	3.06655638e+02
597             	3.06655768e+02
598             	3.06655926e+02
599             	3.06656065e+02
600             	3.06656215e+02
601             	3.06656328e+02
602             	3.06656446e+02
603             	3.06656550e+02
604             	3.06656657e+02
605             	3.06656789e+02
606             	3.06656884e+02
607             	3.06657016e+02
608             	3.06657128e+02
609             	3.06657235e+02
610             	3.06657335e+02
611             	3.06657465e+02
612             	3.06657619e+02
613             	3.06657752e+02
614             	3.06657833e+02
615             	3.06657908e+02
616             	3.06657953e+02
617             	3.06658022e+02
618             	3.06658068e+02
619             	3.06658127e+02
620             	3.06658213e+02
621             	3.06658312e+02
