# Region        : cellZone component_1
# Cells         : 50
# Volume        : 8.54321461e-02
# Time          	volAverage(T)
1               	3.00992167e+02
2               	3.01951887e+02
3               	3.02813946e+02
4               	3.03609455e+02
5               	3.04365624e+02
6               	3.05087580e+02
7               	3.05778621e+02
8               	3.06444414e+02
9               	3.07081517e+02
10              	3.07691357e+02
11              	3.08270988e+02
12              	3.08813533e+02
13              	3.09354869e+02
14              	3.09887204e+02
15              	3.10423514e+02
16              	3.10964004e+02
17              	3.11427008e+02
18              	3.11817380e+02
19              	3.12186840e+02
20              	3.12576536e+02
21              	3.12980913e+02
22              	3.13401782e+02
23              	3.13809392e+02
24              	3.14211999e+02
25              	3.14603957e+02
26              	3.14979894e+02
27              	3.15334451e+02
28              	3.15686655e+02
29              	3.16012743e+02
30              	3.16316434e+02
31              	3.16604559e+02
32              	3.16888716e+02
33              	3.17165095e+02
34              	3.17452522e+02
35              	3.17608233e+02
36              	3.17721171e+02
37              	3.17761489e+02
38              	3.17828509e+02
39              	3.17947770e+02
40              	3.18072492e+02
41              	3.18197209e+02
42              	3.18327541e+02
43              	3.18456156e+02
44              	3.18587277e+02
45              	3.18721025e+02
46              	3.18855440e+02
47              	3.19003672e+02
48              	3.19159657e+02
49              	3.19334079e+02
50              	3.19519501e+02
51              	3.19721425e+02
52              	3.19932524e+02
53              	3.20128192e+02
54              	3.20298674e+02
55              	3.20469999e+02
56              	3.20652731e+02
57              	3.20800322e+02
58              	3.20924157e+02
59              	3.21053293e+02
60              	3.21168595e+02
61              	3.21291734e+02
62              	3.21419832e+02
63              	3.21550193e+02
64              	3.21689954e+02
65              	3.21832054e+02
66              	3.21972896e+02
67              	3.22121040e+02
68              	3.22274295e+02
69              	3.22449350e+02
70              	3.22610363e+02
71              	3.22744562e+02
72              	3.22864087e+02
73              	3.22975213e+02
74              	3.23062427e+02
75              	3.23127176e+02
76              	3.23180490e+02
77              	3.23226426e+02
78              	3.23271487e+02
79              	3.23315762e+02
80              	3.23359212e+02
81              	3.23416126e+02
82              	3.23484922e+02
83              	3.23581141e+02
84              	3.23663353e+02
85              	3.23741326e+02
86              	3.23825187e+02
87              	3.23905282e+02
88              	3.23973774e+02
89              	3.24029487e+02
90              	3.24077461e+02
91              	3.24120573e+02
92              	3.24161268e+02
93              	3.24202146e+02
94              	3.24241171e+02
95              	3.24284667e+02
96              	3.24329342e+02
97              	3.24382973e+02
98              	3.24440933e+02
99              	3.24502218e+02
100             	3.24565870e+02
101             	3.24622823e+02
102             	3.24674038e+02
103             	3.24722480e+02
104             	3.24771056e+02
105             	3.24819818e+02
106             	3.24863845e+02
107             	3.24907915e+02
108             	3.24955544e+02
109             	3.25002952e+02
110             	3.25054036e+02
111             	3.25106462e+02
112             	3.25162645e+02
113             	3.25226332e+02
114             	3.25280670e+02
115             	3.25336570e+02
116             	3.25391740e+02
117             	3.25444598e+02
118             	3.25492225e+02
119             	3.25535414e+02
120             	3.25578440e+02
121             	3.25623231e+02
122             	3.25669916e+02
123             	3.25711977e+02
124             	3.25737869e+02
125             	3.25771274e+02
126             	3.25805038e+02
127             	3.25838591e+02
128             	3.25870231e+02
129             	3.25902822e+02
130             	3.25941006e+02
131             	3.25986764e+02
132             	3.26035888e+02
133             	3.26086187e+02
134             	3.26137848e+02
135             	3.26189506e+02
136             	3.26237149e+02
137             	3.26273908e+02
138             	3.26312940e+02
139             	3.26349849e+02
140             	3.26382205e+02
141             	3.26410019e+02
142             	3.26435439e+02
143             	3.26460562e+02
144             	3.26489741e+02
145             	3.26524537e+02
146             	3.26561909e+02
147             	3.26587712e+02
148             	3.26622821e+02
149             	3.26652443e+02
150             	3.26679554e+02
151             	3.26709939e+02
152             	3.26728782e+02
153             	3.26745530e+02
154             	3.26757569e+02
155             	3.26767408e+02
156             	3.26777534e+02
157             	3.26788398e+02
158             	3.26800895e+02
159             	3.26813881e+02
160             	3.26826066e+02
161             	3.26834676e+02
162             	3.26848336e+02
163             	3.26865970e+02
164             	3.26877753e+02
165             	3.26897107e+02
166             	3.26918439e+02
167             	3.26938548e+02
168             	3.26956509e+02
169             	3.26973336e+02
170             	3.26989706e+02
171             	3.27005605e+02
172             	3.27020730e+02
173             	3.27036024e+02
174             	3.27052167e+02
175             	3.27069765e+02
176             	3.27090284e+02
177             	3.27114680e+02
178             	3.27134223e+02
179             	3.27137084e+02
180             	3.27145500e+02
181             	3.27158055e+02
182             	3.27169757e+02
183             	3.27180516e+02
184             	3.27190671e+02
185             	3.27203542e+02
186             	3.27218786e+02
187             	3.27235023e+02
188             	3.27255898e+02
189             	3.27276554e+02
190             	3.27299590e+02
191             	3.27314251e+02
192             	3.27326698e+02
193             	3.27329910e+02
194             	3.27335710e+02
195             	3.27341639e+02
196             	3.27344537e+02
197             	3.27345168e+02
198             	3.27344941e+02
199             	3.27346284e+02
200             	3.27351770e+02
201             	3.27361560e+02
202             	3.27372877e+02
203             	3.27392084e+02
204             	3.27397637e+02
205             	3.27404116e+02
206             	3.27412454e+02
207             	3.27417059e+02
208             	3.27417076e+02
209             	3.27417582e+02
210             	3.27415601e+02
211             	3.27412373e+02
212             	3.27409246e+02
213             	3.27406118e+02
214             	3.27408110e+02
215             	3.27418922e+02
216             	3.27430330e+02
217             	3.27439939e+02
218             	3.27453009e+02
219             	3.27466439e+02
220             	3.27481344e+02
221             	3.27497542e+02
222             	3.27511891e+02
223             	3.27523652e+02
224             	3.27534448e+02
225             	3.27540365e+02
226             	3.27545786e+02
227             	3.27550169e+02
228             	3.27553945e+02
229             	3.27560892e+02
230             	3.27571793e+02
231             	3.27583967e+02
232             	3.27597888e+02
233             	3.27610052e+02
234             	3.27613945e+02
235             	3.27625314e+02
236             	3.27632468e+02
237             	3.27638858e+02
238             	3.27646019e+02
239             	3.27650073e+02
240             	3.27651137e+02
241             	3.27651930e+02
242             	3.27650540e+02
243             	3.27646697e+02
244             	3.27640927e+02
245             	3.27634607e+02
246             	3.27631526e+02
247             	3.27631884e+02
248             	3.27629766e+02
249             	3.27629613e+02
250             	3.27632555e+02
251             	3.27637606e+02
252             	3.27642782e+02
253             	3.27648350e+02
254             	3.27647414e+02
255             	3.27647507e+02
256             	3.27649551e+02
257             	3.27651187e+02
258             	3.27651193e+02
259             	3.27651268e+02
260             	3.27651807e+02
261             	3.27652034e+02
262             	3.27652404e+02
263             	3.27652364e+02
264             	3.27653101e+02
265             	3.27653630e+02
266             	3.27655577e+02
267             	3.27662458e+02
268             	3.27666035e+02
269             	3.27672356e+02
270             	3.27678952e+02
271             	3.27687577e+02
272             	3.27696275e+02
273             	3.27704429e+02
274             	3.27712238e+02
275             	3.27716956e+02
276             	3.27718185e+02
277             	3.27718835e+02
278             	3.27718045e+02
279             	3.27716652e+02
280             	3.27715014e+02
281             	3.27714275e+02
282             	3.27715712e+02
283             	3.27710956e+02
284             	3.27710118e+02
285             	3.27711264e+02
286             	3.27713743e+02
287             	3.27720304e+02
288             	3.27726643e+02
289             	3.27731014e+02
290             	3.27735148e+02
291             	3.27739865e+02
292             	3.27744853e+02
293             	3.27750152e+02
294             	3.27756983e+02
295             	3.27761968e+02
296             	3.27761497e+02
297             	3.27757066e+02
298             	3.27753949e+02
299             	3.27750730e+02
300             	3.27747161e+02
301             	3.27747549e+02
302             	3.27751957e+02
303             	3.27756962e+02
304             	3.27765425e+02
305             	3.27776924e+02
306             	3.27791424e+02
307             	3.27805871e+02
308             	3.27817462e+02
309             	3.27826357e+02
310             	3.27833637e+02
311             	3.27839146e+02
312             	3.27842051e+02
313             	3.27845560e+02
314             	3.27848143e+02
315             	3.27852216e+02
316             	3.27857712e+02
317             	3.27864788e+02
318             	3.27871924e+02
319             	3.27875830e+02
320             	3.27877265e+02
321             	3.27879270e+02
322             	3.27880837e+02
323             	3.27884190e+02
324             	3.27884483e+02
325             	3.27884577e+02
326             	3.27884395e+02
327             	3.27884842e+02
328             	3.27886036e+02
329             	3.27887049e+02
330             	3.27887131e+02
331             	3.27885951e+02
332             	3.27884555e+02
333             	3.27882521e+02
334             	3.27880295e+02
335             	3.27878565e+02
336             	3.27877862e+02
337             	3.27877422e+02
338             	3.27877036e+02
339             	3.27878273e+02
340             	3.27878920e+02
341             	3.27879041e+02
342             	3.27878967e+02
343             	3.27879000e+02
344             	3.27879033e+02
345             	3.27878904e+02
346             	3.27877844e+02
347             	3.27876446e+02
348             	3.27874064e+02
349             	3.27871385e+02
350             	3.27868371e+02
351             	3.27865224e+02
352             	3.27862034e+02
353             	3.27859243e+02
354             	3.27856959e+02
355             	3.27854842e+02
356             	3.27853080e+02
357             	3.27851642e+02
358             	3.27851214e+02
359             	3.27850328e+02
360             	3.27849437e+02
361             	3.27848701e+02
362             	3.27847887e+02
363             	3.27846911e+02
364             	3.27845652e+02
365             	3.27844316e+02
366             	3.27842882e+02
367             	3.27841546e+02
368             	3.27840233e+02
369             	3.27838912e+02
370             	3.27836322e+02
371             	3.27834305e+02
372             	3.27832611e+02
373             	3.27831146e+02
374             	3.27830028e+02
375             	3.27828972e+02
376             	3.27827918e+02
377             	3.27826937e+02
378             	3.27826047e+02
379             	3.27826890e+02
380             	3.27826638e+02
381             	3.27826237e+02
382             	3.27826293e+02
383             	3.27826123e+02
384             	3.27826277e+02
385             	3.27826093e+02
386             	3.27826338e+02
387             	3.27826845e+02
388             	3.27827490e+02
389             	3.27827622e+02
390             	3.27828266e+02
391             	3.27828161e+02
392             	3.27828600e+02
393             	3.27829343e+02
394             	3.27830322e+02
395             	3.27831711e+02
396             	3.27833801e+02
397             	3.27835010e+02
398             	3.27835681e+02
399             	3.27836615e+02
400             	3.27836590e+02
401             	3.27836020e+02
402             	3.27834991e+02
403             	3.27833288e+02
404             	3.27831636e+02
405             	3.27829485e+02
406             	3.27827531e+02
407             	3.27825733e+02
408             	3.27824353e+02
409             	3.27823950e+02
410             	3.27824540e+02
411             	3.27825592e+02
412             	3.27827203e+02
413             	3.27829393e+02
414             	3.27831012e+02
415             	3.27832041e+02
416             	3.27832883e+02
417             	3.27833187e+02
418             	3.27832913e+02
419             	3.27832004e+02
420             	3.27831016e+02
421             	3.27828356e+02
422             	3.27826205e+02
423             	3.27824393e+02
424             	3.27822856e+02
425             	3.27821809e+02
426             	3.27821526e+02
427             	3.27821650e+02
428             	3.27822539e+02
429             	3.27823350e+02
430             	3.27826337e+02
431             	3.27828190e+02
432             	3.27829375e+02
433             	3.27830460e+02
434             	3.27830853e+02
435             	3.27830452e+02
436             	3.27830117e+02
437             	3.27828925e+02
438             	3.27827366e+02
439             	3.27825505e+02
440             	3.27823705e+02
441             	3.27822056e+02
442             	3.27821483e+02
443             	3.27821262e+02
444             	3.27821351e+02
445             	3.27821041e+02
446             	3.27820354e+02
447             	3.27819313e+02
448             	3.27817959e+02
449             	3.27816205e+02
450             	3.27814026e+02
451             	3.27811465e+02
452             	3.27808828e+02
453             	3.27805602e+02
454             	3.27802896e+02
455             	3.27800546e+02
456             	3.27798926e+02
457             	3.27798450e+02
458             	3.27798181e+02
459             	3.27798297e+02
460             	3.27798786e+02
461             	3.27799397e+02
462             	3.27800345e+02
463             	3.27800929e+02
464             	3.27801793e+02
465             	3.27802342e+02
466             	3.27802266e+02
467             	3.27802156e+02
468             	3.27801754e+02
469             	3.27801075e+02
470             	3.27800453e+02
471             	3.27799891e+02
472             	3.27799468e+02
473             	3.27799318e+02
474             	3.27799045e+02
475             	3.27799255e+02
476             	3.27799877e+02
477             	3.27800445e+02
478             	3.27801314e+02
479             	3.27802346e+02
480             	3.27803349e+02
481             	3.27804411e+02
482             	3.27805516e+02
483             	3.27806959e+02
484             	3.27808229e+02
485             	3.27810117e+02
486             	3.27811631e+02
487             	3.27812932e+02
488             	3.27814181e+02
489             	3.27815318e+02
490             	3.27816389e+02
491             	3.27817351e+02
492             	3.27818146e+02
493             	3.27818927e+02
494             	3.27819699e+02
495             	3.27820635e+02
496             	3.27821715e+02
497             	3.27822980e+02
498             	3.27824442e+02
499             	3.27826032e+02
500             	3.27827695e+02
501             	3.27829397e+02
502             	3.27830669e+02
503             	3.27831938e+02
504             	3.27832945e+02
505             	3.27833530e+02
506             	3.27833674e+02
507             	3.27833384e+02
508             	3.27833465e+02
509             	3.27832982e+02
510             	3.27832214e+02
511             	3.27831418e+02
512             	3.27830665e+02
513             	3.27829989e+02
514             	3.27829234e+02
515             	3.27828504e+02
516             	3.27827269e+02
517             	3.27826337e+02
518             	3.27825582e+02
519             	3.27825165e+02
520             	3.27824714e+02
521             	3.27824329e+02
522             	3.27824058e+02
523             	3.27823898e+02
524             	3.27824997e+02
525             	3.27825569e+02
526             	3.27825755e+02
527             	3.27825802e+02
528             	3.27825721e+02
529             	3.27825339e+02
530             	3.27824456e+02
531             	3.27823102e+02
532             	3.27820672e+02
533             	3.27818578e+02
534             	3.27816519e+02
535             	3.27814424e+02
536             	3.27812371e+02
537             	3.27810450e+02
538             	3.27808710e+02
539             	3.27807319e+02
540             	3.27806441e+02
541             	3.27805908e+02
542             	3.27805145e+02
543             	3.27804303e+02
544             	3.27803364e+02
545             	3.27802325e+02
546             	3.27802048e+02
547             	3.27801534e+02
548             	3.27801188e+02
549             	3.27801081e+02
550             	3.27801070e+02
551             	3.27801386e+02
552             	3.27801694e+02
553             	3.27802556e+02
554             	3.27803529e+02
555             	3.27804315e+02
556             	3.27805429e+02
557             	3.27806560e+02
558             	3.27808170e+02
559             	3.27809653e+02
560             	3.27811393e+02
561             	3.27813143e+02
562             	3.27814462e+02
563             	3.27815435e+02
564             	3.27816346e+02
565             	3.27816388e+02
566             	3.27816365e+02
567             	3.27816261e+02
568             	3.27816731e+02
569             	3.27817155e+02
570             	3.27817044e+02
571             	3.27816732e+02
572             	3.27816706e+02
573             	3.27816651e+02
574             	3.27816497e+02
575             	3.27816561e+02
576             	3.27817667e+02
577             	3.27819109e+02
578             	3.27820808e+02
579             	3.27822082e+02
580             	3.27822825e+02
581             	3.27823080e+02
582             	3.27823050e+02
583             	3.27822697e+02
584             	3.27821990e+02
585             	3.27820982e+02
586             	3.27820381e+02
587             	3.27819971e+02
588             	3.27819598e+02
589             	3.27819421e+02
590             	3.27819303e+02
591             	3.27819380e+02
592             	3.27819683e+02
593             	3.27820500e+02
594             	3.27820171e+02
595             	3.27820449e+02
596             	3.27820011e+02
597             	3.27818841e+02
598             	3.27817657e+02
599             	3.27816189e+02
600             	3.27814036e+02
601             	3.27810926e+02
602             	3.27808499e+02
603             	3.27806055e+02
604             	3.27803579e+02
605             	3.27801310e+02
606             	3.27799703e+02
607             	3.27799612e+02
608             	3.27801115e+02
609             	3.27802874e+02
610             	3.27805159e+02
611             	3.27806945e+02
612             	3.27807948e+02
613             	3.27808240e+02
614             	3.27807987e+02
615             	3.27806693e+02
616             	3.27804608e+02
617             	3.27802020e+02
618             	3.27799570e+02
619             	3.27797456e+02
620             	3.27795998e+02
621             	3.27795141e+02
