# Region        : cellZone fluid
# Cells         : 9260
# Volume        : 1.75177592e+01
# Time          	volAverage(T)
1               	3.00000338e+02
2               	3.00000593e+02
3               	3.00002200e+02
4               	3.00004532e+02
5               	3.00005755e+02
6               	3.00006749e+02
7               	3.00007936e+02
8               	3.00009552e+02
9               	3.00011138e+02
10              	3.00014039e+02
11              	3.00016682e+02
12              	3.00020597e+02
13              	3.00024042e+02
14              	3.00026321e+02
15              	3.00028997e+02
16              	3.00032208e+02
17              	3.00037069e+02
18              	3.00040507e+02
19              	3.00045119e+02
20              	3.00047937e+02
21              	3.00050941e+02
22              	3.00053797e+02
23              	3.00057669e+02
24              	3.00065560e+02
25              	3.00069092e+02
26              	3.00071371e+02
27              	3.00072828e+02
28              	3.00075513e+02
29              	3.00079769e+02
30              	3.00084034e+02
31              	3.00087392e+02
32              	3.00091627e+02
33              	3.00097164e+02
34              	3.00100822e+02
35              	3.00107516e+02
36              	3.00112568e+02
37              	3.00118220e+02
38              	3.00124866e+02
39              	3.00129439e+02
40              	3.00132233e+02
41              	3.00133112e+02
42              	3.00137441e+02
43              	3.00139241e+02
44              	3.00142841e+02
45              	3.00146757e+02
46              	3.00151000e+02
47              	3.00155387e+02
48              	3.00158594e+02
49              	3.00163738e+02
50              	3.00169899e+02
51              	3.00173003e+02
52              	3.00176172e+02
53              	3.00180452e+02
54              	3.00184050e+02
55              	3.00186284e+02
56              	3.00188475e+02
57              	3.00192474e+02
58              	3.00195812e+02
59              	3.00198245e+02
60              	3.00200772e+02
61              	3.00203600e+02
62              	3.00206953e+02
63              	3.00210086e+02
64              	3.00213873e+02
65              	3.00217637e+02
66              	3.00220548e+02
67              	3.00224019e+02
68              	3.00226660e+02
69              	3.00228863e+02
70              	3.00230994e+02
71              	3.00233996e+02
72              	3.00237089e+02
73              	3.00239891e+02
74              	3.00244265e+02
75              	3.00248282e+02
76              	3.00251816e+02
77              	3.00255011e+02
78              	3.00258571e+02
79              	3.00263015e+02
80              	3.00266047e+02
81              	3.00269709e+02
82              	3.00272092e+02
83              	3.00276027e+02
84              	3.00278861e+02
85              	3.00281310e+02
86              	3.00283297e+02
87              	3.00285847e+02
88              	3.00288874e+02
89              	3.00291727e+02
90              	3.00295570e+02
91              	3.00298254e+02
92              	3.00301341e+02
93              	3.00304370e+02
94              	3.00307835e+02
95              	3.00310675e+02
96              	3.00312701e+02
97              	3.00314914e+02
98              	3.00316897e+02
99              	3.00319197e+02
100             	3.00321109e+02
101             	3.00322715e+02
102             	3.00325252e+02
103             	3.00328272e+02
104             	3.00330666e+02
105             	3.00332610e+02
106             	3.00334762e+02
107             	3.00336945e+02
108             	3.00340456e+02
109             	3.00340509e+02
110             	3.00341716e+02
111             	3.00342606e+02
112             	3.00343347e+02
113             	3.00344342e+02
114             	3.00345609e+02
115             	3.00347150e+02
116             	3.00350417e+02
117             	3.00351331e+02
118             	3.00353170e+02
119             	3.00355175e+02
120             	3.00356947e+02
121             	3.00358913e+02
122             	3.00360395e+02
123             	3.00361120e+02
124             	3.00363706e+02
125             	3.00364062e+02
126             	3.00364029e+02
127             	3.00364101e+02
128             	3.00364780e+02
129             	3.00367003e+02
130             	3.00368408e+02
131             	3.00369850e+02
132             	3.00371426e+02
133             	3.00373113e+02
134             	3.00374149e+02
135             	3.00373516e+02
136             	3.00373464e+02
137             	3.00373323e+02
138             	3.00373681e+02
139             	3.00373893e+02
140             	3.00374334e+02
141             	3.00375041e+02
142             	3.00375852e+02
143             	3.00376606e+02
144             	3.00378159e+02
145             	3.00378835e+02
146             	3.00379719e+02
147             	3.00381007e+02
148             	3.00381891e+02
149             	3.00381771e+02
150             	3.00381204e+02
151             	3.00381086e+02
152             	3.00380920e+02
153             	3.00380789e+02
154             	3.00380922e+02
155             	3.00381799e+02
156             	3.00382011e+02
157             	3.00382985e+02
158             	3.00384496e+02
159             	3.00385265e+02
160             	3.00386655e+02
161             	3.00386818e+02
162             	3.00388064e+02
163             	3.00389782e+02
164             	3.00387917e+02
165             	3.00387213e+02
166             	3.00386011e+02
167             	3.00385170e+02
168             	3.00384739e+02
169             	3.00384581e+02
170             	3.00384675e+02
171             	3.00384706e+02
172             	3.00384609e+02
173             	3.00384548e+02
174             	3.00385141e+02
175             	3.00385792e+02
176             	3.00386050e+02
177             	3.00386162e+02
178             	3.00385910e+02
179             	3.00386924e+02
180             	3.00385980e+02
181             	3.00385964e+02
182             	3.00385383e+02
183             	3.00384731e+02
184             	3.00384441e+02
185             	3.00384313e+02
186             	3.00384483e+02
187             	3.00384510e+02
188             	3.00384639e+02
189             	3.00384893e+02
190             	3.00385087e+02
191             	3.00385078e+02
192             	3.00385502e+02
193             	3.00385694e+02
194             	3.00385788e+02
195             	3.00385841e+02
196             	3.00385959e+02
197             	3.00386100e+02
198             	3.00385491e+02
199             	3.00385395e+02
200             	3.00385002e+02
201             	3.00385014e+02
202             	3.00384925e+02
203             	3.00384891e+02
204             	3.00385005e+02
205             	3.00385056e+02
206             	3.00385257e+02
207             	3.00385667e+02
208             	3.00385846e+02
209             	3.00386069e+02
210             	3.00386005e+02
211             	3.00386172e+02
212             	3.00386155e+02
213             	3.00386350e+02
214             	3.00386123e+02
215             	3.00385898e+02
216             	3.00385566e+02
217             	3.00385381e+02
218             	3.00385216e+02
219             	3.00385318e+02
220             	3.00385429e+02
221             	3.00385801e+02
222             	3.00386055e+02
223             	3.00386186e+02
224             	3.00386398e+02
225             	3.00386531e+02
226             	3.00386629e+02
227             	3.00386920e+02
228             	3.00387139e+02
229             	3.00387275e+02
230             	3.00387319e+02
231             	3.00387552e+02
232             	3.00387239e+02
233             	3.00387056e+02
234             	3.00386986e+02
235             	3.00386891e+02
236             	3.00386952e+02
237             	3.00386966e+02
238             	3.00387066e+02
239             	3.00387053e+02
240             	3.00387165e+02
241             	3.00387282e+02
242             	3.00387472e+02
243             	3.00387480e+02
244             	3.00387526e+02
245             	3.00387675e+02
246             	3.00387818e+02
247             	3.00387837e+02
248             	3.00387865e+02
249             	3.00387867e+02
250             	3.00387971e+02
251             	3.00387821e+02
252             	3.00387996e+02
253             	3.00387932e+02
254             	3.00388058e+02
255             	3.00388024e+02
256             	3.00387942e+02
257             	3.00387977e+02
258             	3.00387985e+02
259             	3.00387963e+02
260             	3.00387981e+02
261             	3.00388072e+02
262             	3.00388184e+02
263             	3.00388252e+02
264             	3.00388369e+02
265             	3.00388429e+02
266             	3.00388500e+02
267             	3.00388439e+02
268             	3.00388636e+02
269             	3.00388584e+02
270             	3.00388701e+02
271             	3.00388734e+02
272             	3.00388816e+02
273             	3.00388776e+02
274             	3.00388799e+02
275             	3.00388773e+02
276             	3.00388873e+02
277             	3.00388825e+02
278             	3.00388877e+02
279             	3.00388863e+02
280             	3.00388961e+02
281             	3.00388998e+02
282             	3.00389111e+02
283             	3.00389138e+02
284             	3.00389222e+02
285             	3.00389277e+02
286             	3.00389390e+02
287             	3.00389408e+02
288             	3.00389493e+02
289             	3.00389485e+02
290             	3.00389548e+02
291             	3.00389542e+02
292             	3.00389627e+02
293             	3.00389643e+02
294             	3.00389774e+02
295             	3.00389796e+02
296             	3.00389912e+02
297             	3.00389887e+02
298             	3.00389957e+02
299             	3.00390008e+02
300             	3.00390110e+02
301             	3.00390109e+02
302             	3.00390173e+02
303             	3.00390162e+02
304             	3.00390224e+02
305             	3.00390213e+02
306             	3.00390293e+02
307             	3.00390303e+02
308             	3.00390400e+02
309             	3.00390425e+02
310             	3.00390547e+02
311             	3.00390549e+02
312             	3.00390648e+02
313             	3.00390660e+02
314             	3.00390736e+02
315             	3.00390752e+02
316             	3.00390850e+02
317             	3.00390861e+02
318             	3.00390953e+02
319             	3.00390966e+02
320             	3.00391066e+02
321             	3.00391083e+02
322             	3.00391178e+02
323             	3.00391172e+02
324             	3.00391274e+02
325             	3.00391280e+02
326             	3.00391352e+02
327             	3.00391345e+02
328             	3.00391419e+02
329             	3.00391418e+02
330             	3.00391497e+02
331             	3.00391496e+02
332             	3.00391569e+02
333             	3.00391587e+02
334             	3.00391649e+02
335             	3.00391643e+02
336             	3.00391726e+02
337             	3.00391732e+02
338             	3.00391824e+02
339             	3.00391836e+02
340             	3.00391931e+02
341             	3.00391947e+02
342             	3.00392030e+02
343             	3.00392023e+02
344             	3.00392115e+02
345             	3.00392117e+02
346             	3.00392189e+02
347             	3.00392186e+02
348             	3.00392253e+02
349             	3.00392238e+02
350             	3.00392307e+02
351             	3.00392293e+02
352             	3.00392364e+02
353             	3.00392353e+02
354             	3.00392425e+02
355             	3.00392413e+02
356             	3.00392489e+02
357             	3.00392478e+02
358             	3.00392542e+02
359             	3.00392527e+02
360             	3.00392599e+02
361             	3.00392584e+02
362             	3.00392657e+02
363             	3.00392652e+02
364             	3.00392723e+02
365             	3.00392714e+02
366             	3.00392795e+02
367             	3.00392799e+02
368             	3.00392875e+02
369             	3.00392861e+02
370             	3.00392933e+02
371             	3.00392925e+02
372             	3.00392995e+02
373             	3.00392978e+02
374             	3.00393044e+02
375             	3.00393024e+02
376             	3.00393088e+02
377             	3.00393074e+02
378             	3.00393144e+02
379             	3.00393129e+02
380             	3.00393197e+02
381             	3.00393181e+02
382             	3.00393251e+02
383             	3.00393238e+02
384             	3.00393305e+02
385             	3.00393288e+02
386             	3.00393358e+02
387             	3.00393342e+02
388             	3.00393405e+02
389             	3.00393389e+02
390             	3.00393454e+02
391             	3.00393436e+02
392             	3.00393503e+02
393             	3.00393487e+02
394             	3.00393553e+02
395             	3.00393535e+02
396             	3.00393595e+02
397             	3.00393572e+02
398             	3.00393626e+02
399             	3.00393601e+02
400             	3.00393659e+02
401             	3.00393635e+02
402             	3.00393696e+02
403             	3.00393673e+02
404             	3.00393730e+02
405             	3.00393707e+02
406             	3.00393769e+02
407             	3.00393748e+02
408             	3.00393810e+02
409             	3.00393786e+02
410             	3.00393841e+02
411             	3.00393821e+02
412             	3.00393882e+02
413             	3.00393858e+02
414             	3.00393918e+02
415             	3.00393889e+02
416             	3.00393945e+02
417             	3.00393919e+02
418             	3.00393976e+02
419             	3.00393950e+02
420             	3.00394009e+02
421             	3.00393984e+02
422             	3.00394040e+02
423             	3.00394013e+02
424             	3.00394070e+02
425             	3.00394040e+02
426             	3.00394096e+02
427             	3.00394069e+02
428             	3.00394121e+02
429             	3.00394093e+02
430             	3.00394149e+02
431             	3.00394122e+02
432             	3.00394179e+02
433             	3.00394153e+02
434             	3.00394214e+02
435             	3.00394185e+02
436             	3.00394241e+02
437             	3.00394215e+02
438             	3.00394271e+02
439             	3.00394242e+02
440             	3.00394296e+02
441             	3.00394266e+02
442             	3.00394319e+02
443             	3.00394288e+02
444             	3.00394344e+02
445             	3.00394312e+02
446             	3.00394366e+02
447             	3.00394335e+02
448             	3.00394390e+02
449             	3.00394360e+02
450             	3.00394414e+02
451             	3.00394383e+02
452             	3.00394437e+02
453             	3.00394406e+02
454             	3.00394459e+02
455             	3.00394427e+02
456             	3.00394479e+02
457             	3.00394448e+02
458             	3.00394500e+02
459             	3.00394467e+02
460             	3.00394518e+02
461             	3.00394486e+02
462             	3.00394537e+02
463             	3.00394505e+02
464             	3.00394556e+02
465             	3.00394523e+02
466             	3.00394574e+02
467             	3.00394539e+02
468             	3.00394589e+02
469             	3.00394556e+02
470             	3.00394607e+02
471             	3.00394574e+02
472             	3.00394626e+02
473             	3.00394593e+02
474             	3.00394643e+02
475             	3.00394611e+02
476             	3.00394662e+02
477             	3.00394628e+02
478             	3.00394678e+02
479             	3.00394643e+02
480             	3.00394693e+02
481             	3.00394658e+02
482             	3.00394707e+02
483             	3.00394672e+02
484             	3.00394721e+02
485             	3.00394687e+02
486             	3.00394737e+02
487             	3.00394702e+02
488             	3.00394752e+02
489             	3.00394717e+02
490             	3.00394765e+02
491             	3.00394730e+02
492             	3.00394778e+02
493             	3.00394743e+02
494             	3.00394792e+02
495             	3.00394757e+02
496             	3.00394807e+02
497             	3.00394772e+02
498             	3.00394823e+02
499             	3.00394788e+02
500             	3.00394837e+02
501             	3.00394801e+02
502             	3.00394850e+02
503             	3.00394814e+02
504             	3.00394861e+02
505             	3.00394825e+02
506             	3.00394874e+02
507             	3.00394837e+02
508             	3.00394884e+02
509             	3.00394847e+02
510             	3.00394895e+02
511             	3.00394859e+02
512             	3.00394907e+02
513             	3.00394871e+02
514             	3.00394918e+02
515             	3.00394882e+02
516             	3.00394930e+02
517             	3.00394894e+02
518             	3.00394942e+02
519             	3.00394905e+02
520             	3.00394952e+02
521             	3.00394915e+02
522             	3.00394961e+02
523             	3.00394924e+02
524             	3.00394970e+02
525             	3.00394933e+02
526             	3.00394979e+02
527             	3.00394941e+02
528             	3.00394988e+02
529             	3.00394951e+02
530             	3.00394998e+02
531             	3.00394961e+02
532             	3.00395007e+02
533             	3.00394970e+02
534             	3.00395017e+02
535             	3.00394979e+02
536             	3.00395025e+02
537             	3.00394987e+02
538             	3.00395033e+02
539             	3.00394995e+02
540             	3.00395041e+02
541             	3.00395003e+02
542             	3.00395049e+02
543             	3.00395011e+02
544             	3.00395057e+02
545             	3.00395019e+02
546             	3.00395065e+02
547             	3.00395026e+02
548             	3.00395071e+02
549             	3.00395032e+02
550             	3.00395077e+02
551             	3.00395038e+02
552             	3.00395084e+02
553             	3.00395046e+02
554             	3.00395091e+02
555             	3.00395053e+02
556             	3.00395099e+02
557             	3.00395061e+02
558             	3.00395106e+02
559             	3.00395068e+02
560             	3.00395113e+02
561             	3.00395075e+02
562             	3.00395120e+02
563             	3.00395080e+02
564             	3.00395125e+02
565             	3.00395087e+02
566             	3.00395131e+02
567             	3.00395092e+02
568             	3.00395136e+02
569             	3.00395097e+02
570             	3.00395141e+02
571             	3.00395103e+02
572             	3.00395147e+02
573             	3.00395108e+02
574             	3.00395153e+02
575             	3.00395113e+02
576             	3.00395158e+02
577             	3.00395119e+02
578             	3.00395163e+02
579             	3.00395124e+02
580             	3.00395168e+02
581             	3.00395129e+02
582             	3.00395174e+02
583             	3.00395135e+02
584             	3.00395180e+02
585             	3.00395141e+02
586             	3.00395185e+02
587             	3.00395146e+02
588             	3.00395190e+02
589             	3.00395151e+02
590             	3.00395195e+02
591             	3.00395155e+02
592             	3.00395199e+02
593             	3.00395159e+02
594             	3.00395203e+02
595             	3.00395163e+02
596             	3.00395208e+02
597             	3.00395168e+02
598             	3.00395212e+02
599             	3.00395173e+02
600             	3.00395217e+02
601             	3.00395177e+02
602             	3.00395220e+02
603             	3.00395180e+02
604             	3.00395224e+02
605             	3.00395184e+02
606             	3.00395227e+02
607             	3.00395187e+02
608             	3.00395230e+02
609             	3.00395190e+02
610             	3.00395234e+02
611             	3.00395194e+02
612             	3.00395238e+02
613             	3.00395198e+02
614             	3.00395242e+02
615             	3.00395202e+02
616             	3.00395245e+02
617             	3.00395206e+02
618             	3.00395249e+02
619             	3.00395210e+02
620             	3.00395253e+02
621             	3.00395213e+02
