# Region        : cellZone component_1
# Cells         : 60
# Volume        : 1.12699257e-01
# Time          	volAverage(T)
1               	3.00625147e+02
2               	3.01240707e+02
3               	3.01801884e+02
4               	3.02328021e+02
5               	3.02846431e+02
6               	3.03352792e+02
7               	3.03853227e+02
8               	3.04347227e+02
9               	3.04843816e+02
10              	3.05324142e+02
11              	3.05776415e+02
12              	3.06224831e+02
13              	3.06661202e+02
14              	3.07104986e+02
15              	3.07553250e+02
16              	3.07985421e+02
17              	3.08396589e+02
18              	3.08794766e+02
19              	3.09197337e+02
20              	3.09597041e+02
21              	3.10010502e+02
22              	3.10418491e+02
23              	3.10825820e+02
24              	3.11235974e+02
25              	3.11637969e+02
26              	3.12023739e+02
27              	3.12396053e+02
28              	3.12755775e+02
29              	3.13106848e+02
30              	3.13447064e+02
31              	3.13783546e+02
32              	3.14116554e+02
33              	3.14450677e+02
34              	3.14788261e+02
35              	3.15122094e+02
36              	3.15447490e+02
37              	3.15766278e+02
38              	3.16070956e+02
39              	3.16358209e+02
40              	3.16640993e+02
41              	3.16914273e+02
42              	3.17168240e+02
43              	3.17413527e+02
44              	3.17647314e+02
45              	3.17872032e+02
46              	3.18088039e+02
47              	3.18293844e+02
48              	3.18491512e+02
49              	3.18679092e+02
50              	3.18858885e+02
51              	3.19030579e+02
52              	3.19201050e+02
53              	3.19365289e+02
54              	3.19523368e+02
55              	3.19677360e+02
56              	3.19823662e+02
57              	3.19953570e+02
58              	3.20084351e+02
59              	3.20214535e+02
60              	3.20338318e+02
61              	3.20446597e+02
62              	3.20547873e+02
63              	3.20645876e+02
64              	3.20742478e+02
65              	3.20836240e+02
66              	3.20927840e+02
67              	3.21019634e+02
68              	3.21099379e+02
69              	3.21191717e+02
70              	3.21269879e+02
71              	3.21346008e+02
72              	3.21429811e+02
73              	3.21504199e+02
74              	3.21574013e+02
75              	3.21648278e+02
76              	3.21716053e+02
77              	3.21787878e+02
78              	3.21859932e+02
79              	3.21920096e+02
80              	3.21988541e+02
81              	3.22054727e+02
82              	3.22105467e+02
83              	3.22141853e+02
84              	3.22182893e+02
85              	3.22221358e+02
86              	3.22253982e+02
87              	3.22284326e+02
88              	3.22314327e+02
89              	3.22344012e+02
90              	3.22373347e+02
91              	3.22403293e+02
92              	3.22433741e+02
93              	3.22462888e+02
94              	3.22491338e+02
95              	3.22519548e+02
96              	3.22544320e+02
97              	3.22564827e+02
98              	3.22585267e+02
99              	3.22604528e+02
100             	3.22621478e+02
101             	3.22638480e+02
102             	3.22655172e+02
103             	3.22672940e+02
104             	3.22688550e+02
105             	3.22702875e+02
106             	3.22718914e+02
107             	3.22734160e+02
108             	3.22744960e+02
109             	3.22752492e+02
110             	3.22757955e+02
111             	3.22762689e+02
112             	3.22769675e+02
113             	3.22776354e+02
114             	3.22782272e+02
115             	3.22787771e+02
116             	3.22789860e+02
117             	3.22789600e+02
118             	3.22788465e+02
119             	3.22788337e+02
120             	3.22787856e+02
121             	3.22786328e+02
122             	3.22783571e+02
123             	3.22780085e+02
124             	3.22775580e+02
125             	3.22772118e+02
126             	3.22769399e+02
127             	3.22767906e+02
128             	3.22766813e+02
129             	3.22762129e+02
130             	3.22757954e+02
131             	3.22756448e+02
132             	3.22755737e+02
133             	3.22755739e+02
134             	3.22755689e+02
135             	3.22755371e+02
136             	3.22755244e+02
137             	3.22755285e+02
138             	3.22753094e+02
139             	3.22753568e+02
140             	3.22751132e+02
141             	3.22746828e+02
142             	3.22741319e+02
143             	3.22737894e+02
144             	3.22734632e+02
145             	3.22730243e+02
146             	3.22721556e+02
147             	3.22716378e+02
148             	3.22712239e+02
149             	3.22707595e+02
150             	3.22702756e+02
151             	3.22697411e+02
152             	3.22691586e+02
153             	3.22685615e+02
154             	3.22679624e+02
155             	3.22673993e+02
156             	3.22668724e+02
157             	3.22663427e+02
158             	3.22658561e+02
159             	3.22653765e+02
160             	3.22649724e+02
161             	3.22644931e+02
162             	3.22639800e+02
163             	3.22635120e+02
164             	3.22630349e+02
165             	3.22625427e+02
166             	3.22620504e+02
167             	3.22615617e+02
168             	3.22610509e+02
169             	3.22605134e+02
170             	3.22600207e+02
171             	3.22595401e+02
172             	3.22590554e+02
173             	3.22585720e+02
174             	3.22580663e+02
175             	3.22575279e+02
176             	3.22570051e+02
177             	3.22565238e+02
178             	3.22560448e+02
179             	3.22555626e+02
180             	3.22550838e+02
181             	3.22546074e+02
182             	3.22541291e+02
183             	3.22538128e+02
184             	3.22533826e+02
185             	3.22529356e+02
186             	3.22525248e+02
187             	3.22521440e+02
188             	3.22517709e+02
189             	3.22513985e+02
190             	3.22510157e+02
191             	3.22506438e+02
192             	3.22502705e+02
193             	3.22498819e+02
194             	3.22494591e+02
195             	3.22490587e+02
196             	3.22486788e+02
197             	3.22482786e+02
198             	3.22479030e+02
199             	3.22475155e+02
200             	3.22471222e+02
201             	3.22467299e+02
202             	3.22463475e+02
203             	3.22459991e+02
204             	3.22456605e+02
205             	3.22453485e+02
206             	3.22450634e+02
207             	3.22447526e+02
208             	3.22444511e+02
209             	3.22441714e+02
210             	3.22439039e+02
211             	3.22436397e+02
212             	3.22433632e+02
213             	3.22430873e+02
214             	3.22428272e+02
215             	3.22425696e+02
216             	3.22423055e+02
217             	3.22420532e+02
218             	3.22418050e+02
219             	3.22415624e+02
220             	3.22413699e+02
221             	3.22411461e+02
222             	3.22409145e+02
223             	3.22406882e+02
224             	3.22404740e+02
225             	3.22402599e+02
226             	3.22400580e+02
227             	3.22398743e+02
228             	3.22396923e+02
229             	3.22395064e+02
230             	3.22393211e+02
231             	3.22391395e+02
232             	3.22389627e+02
233             	3.22387896e+02
234             	3.22386252e+02
235             	3.22384628e+02
236             	3.22382988e+02
237             	3.22381319e+02
238             	3.22379779e+02
239             	3.22378219e+02
240             	3.22376802e+02
241             	3.22375446e+02
242             	3.22374116e+02
243             	3.22372639e+02
244             	3.22371359e+02
245             	3.22370154e+02
246             	3.22368979e+02
247             	3.22367805e+02
248             	3.22366821e+02
249             	3.22365761e+02
250             	3.22364718e+02
251             	3.22363657e+02
252             	3.22362674e+02
253             	3.22361787e+02
254             	3.22360930e+02
255             	3.22359897e+02
256             	3.22359130e+02
257             	3.22358429e+02
258             	3.22357692e+02
259             	3.22356923e+02
260             	3.22356168e+02
261             	3.22355376e+02
262             	3.22354670e+02
263             	3.22353992e+02
264             	3.22353303e+02
265             	3.22352613e+02
266             	3.22351938e+02
267             	3.22351420e+02
268             	3.22350832e+02
269             	3.22350226e+02
270             	3.22349698e+02
271             	3.22349217e+02
272             	3.22348813e+02
273             	3.22348427e+02
274             	3.22348033e+02
275             	3.22347617e+02
276             	3.22347195e+02
277             	3.22346760e+02
278             	3.22346311e+02
279             	3.22345892e+02
280             	3.22345493e+02
281             	3.22345107e+02
282             	3.22344716e+02
283             	3.22344370e+02
284             	3.22344036e+02
285             	3.22343738e+02
286             	3.22343454e+02
287             	3.22343160e+02
288             	3.22342922e+02
289             	3.22342674e+02
290             	3.22342433e+02
291             	3.22342212e+02
292             	3.22342018e+02
293             	3.22341836e+02
294             	3.22341651e+02
295             	3.22341486e+02
296             	3.22341336e+02
297             	3.22341207e+02
298             	3.22341089e+02
299             	3.22340972e+02
300             	3.22340854e+02
301             	3.22340740e+02
302             	3.22340654e+02
303             	3.22340570e+02
304             	3.22340507e+02
305             	3.22340452e+02
306             	3.22340396e+02
307             	3.22340339e+02
308             	3.22340283e+02
309             	3.22340229e+02
310             	3.22340176e+02
311             	3.22340125e+02
312             	3.22340078e+02
313             	3.22340032e+02
314             	3.22339989e+02
315             	3.22339946e+02
316             	3.22339905e+02
317             	3.22339865e+02
318             	3.22339826e+02
319             	3.22339789e+02
320             	3.22339753e+02
321             	3.22339718e+02
322             	3.22339685e+02
323             	3.22339656e+02
324             	3.22339629e+02
325             	3.22339606e+02
326             	3.22339586e+02
327             	3.22339570e+02
328             	3.22339555e+02
329             	3.22339543e+02
330             	3.22339533e+02
331             	3.22339524e+02
332             	3.22339518e+02
333             	3.22339512e+02
334             	3.22339509e+02
335             	3.22339507e+02
336             	3.22339508e+02
337             	3.22339509e+02
338             	3.22339511e+02
339             	3.22339514e+02
340             	3.22339517e+02
341             	3.22339522e+02
342             	3.22339511e+02
343             	3.22339514e+02
344             	3.22339503e+02
345             	3.22339488e+02
346             	3.22339493e+02
347             	3.22339511e+02
348             	3.22339534e+02
349             	3.22339561e+02
350             	3.22339590e+02
351             	3.22339617e+02
352             	3.22339651e+02
353             	3.22339694e+02
354             	3.22339741e+02
355             	3.22339784e+02
356             	3.22339812e+02
357             	3.22339857e+02
358             	3.22339904e+02
359             	3.22339943e+02
360             	3.22339979e+02
361             	3.22340011e+02
362             	3.22340041e+02
363             	3.22340070e+02
364             	3.22340089e+02
365             	3.22340101e+02
366             	3.22340119e+02
367             	3.22340134e+02
368             	3.22340154e+02
369             	3.22340160e+02
370             	3.22340157e+02
371             	3.22340159e+02
372             	3.22340159e+02
373             	3.22340153e+02
374             	3.22340167e+02
375             	3.22340167e+02
376             	3.22340163e+02
377             	3.22340161e+02
378             	3.22340166e+02
379             	3.22340178e+02
380             	3.22340168e+02
381             	3.22340178e+02
382             	3.22340192e+02
383             	3.22340203e+02
384             	3.22340209e+02
385             	3.22340215e+02
386             	3.22340224e+02
387             	3.22340233e+02
388             	3.22340246e+02
389             	3.22340259e+02
390             	3.22340272e+02
391             	3.22340283e+02
392             	3.22340299e+02
393             	3.22340318e+02
394             	3.22340351e+02
395             	3.22340394e+02
396             	3.22340438e+02
397             	3.22340484e+02
398             	3.22340531e+02
399             	3.22340573e+02
400             	3.22340616e+02
401             	3.22340656e+02
402             	3.22340690e+02
403             	3.22340726e+02
404             	3.22340763e+02
405             	3.22340802e+02
406             	3.22340838e+02
407             	3.22340870e+02
408             	3.22340903e+02
409             	3.22340939e+02
410             	3.22340977e+02
411             	3.22341015e+02
412             	3.22341042e+02
413             	3.22341066e+02
414             	3.22341101e+02
415             	3.22341135e+02
416             	3.22341176e+02
417             	3.22341216e+02
418             	3.22341228e+02
419             	3.22341232e+02
420             	3.22341239e+02
421             	3.22341245e+02
422             	3.22341248e+02
423             	3.22341246e+02
424             	3.22341236e+02
425             	3.22341229e+02
426             	3.22341210e+02
427             	3.22341185e+02
428             	3.22341173e+02
429             	3.22341161e+02
430             	3.22341147e+02
431             	3.22341132e+02
432             	3.22341127e+02
433             	3.22341121e+02
434             	3.22341099e+02
435             	3.22341079e+02
436             	3.22341056e+02
437             	3.22341036e+02
438             	3.22341026e+02
439             	3.22341019e+02
440             	3.22341015e+02
441             	3.22341013e+02
442             	3.22341021e+02
443             	3.22341027e+02
444             	3.22341040e+02
445             	3.22341050e+02
446             	3.22341063e+02
447             	3.22341079e+02
448             	3.22341096e+02
449             	3.22341115e+02
450             	3.22341133e+02
451             	3.22341153e+02
452             	3.22341176e+02
453             	3.22341195e+02
454             	3.22341223e+02
455             	3.22341248e+02
456             	3.22341275e+02
457             	3.22341303e+02
458             	3.22341330e+02
459             	3.22341355e+02
460             	3.22341378e+02
461             	3.22341399e+02
462             	3.22341418e+02
463             	3.22341435e+02
464             	3.22341451e+02
465             	3.22341465e+02
466             	3.22341475e+02
467             	3.22341483e+02
468             	3.22341488e+02
469             	3.22341488e+02
470             	3.22341486e+02
471             	3.22341487e+02
472             	3.22341480e+02
473             	3.22341470e+02
474             	3.22341460e+02
475             	3.22341450e+02
476             	3.22341440e+02
477             	3.22341430e+02
478             	3.22341421e+02
479             	3.22341411e+02
480             	3.22341399e+02
481             	3.22341389e+02
482             	3.22341379e+02
483             	3.22341368e+02
484             	3.22341356e+02
485             	3.22341341e+02
486             	3.22341328e+02
487             	3.22341314e+02
488             	3.22341300e+02
489             	3.22341279e+02
490             	3.22341264e+02
491             	3.22341251e+02
492             	3.22341243e+02
493             	3.22341241e+02
494             	3.22341230e+02
495             	3.22341218e+02
496             	3.22341223e+02
497             	3.22341226e+02
498             	3.22341219e+02
499             	3.22341223e+02
500             	3.22341234e+02
501             	3.22341245e+02
502             	3.22341268e+02
503             	3.22341279e+02
504             	3.22341288e+02
505             	3.22341291e+02
506             	3.22341295e+02
507             	3.22341296e+02
508             	3.22341298e+02
509             	3.22341308e+02
510             	3.22341317e+02
511             	3.22341321e+02
512             	3.22341323e+02
513             	3.22341327e+02
514             	3.22341335e+02
515             	3.22341356e+02
516             	3.22341364e+02
517             	3.22341373e+02
518             	3.22341387e+02
519             	3.22341398e+02
520             	3.22341416e+02
521             	3.22341434e+02
522             	3.22341455e+02
523             	3.22341476e+02
524             	3.22341494e+02
525             	3.22341510e+02
526             	3.22341523e+02
527             	3.22341539e+02
528             	3.22341550e+02
529             	3.22341561e+02
530             	3.22341571e+02
531             	3.22341583e+02
532             	3.22341596e+02
533             	3.22341610e+02
534             	3.22341624e+02
535             	3.22341634e+02
536             	3.22341645e+02
537             	3.22341648e+02
538             	3.22341652e+02
539             	3.22341661e+02
540             	3.22341669e+02
541             	3.22341675e+02
542             	3.22341681e+02
543             	3.22341678e+02
544             	3.22341668e+02
545             	3.22341656e+02
546             	3.22341643e+02
547             	3.22341629e+02
548             	3.22341613e+02
549             	3.22341597e+02
550             	3.22341579e+02
551             	3.22341564e+02
552             	3.22341548e+02
553             	3.22341530e+02
554             	3.22341512e+02
555             	3.22341494e+02
556             	3.22341476e+02
557             	3.22341460e+02
558             	3.22341445e+02
559             	3.22341425e+02
560             	3.22341411e+02
561             	3.22341400e+02
562             	3.22341388e+02
563             	3.22341377e+02
564             	3.22341382e+02
565             	3.22341376e+02
566             	3.22341370e+02
567             	3.22341369e+02
568             	3.22341369e+02
569             	3.22341371e+02
570             	3.22341378e+02
571             	3.22341382e+02
572             	3.22341391e+02
573             	3.22341398e+02
574             	3.22341407e+02
575             	3.22341413e+02
576             	3.22341424e+02
577             	3.22341429e+02
578             	3.22341433e+02
579             	3.22341436e+02
580             	3.22341435e+02
581             	3.22341435e+02
582             	3.22341438e+02
583             	3.22341441e+02
584             	3.22341442e+02
585             	3.22341441e+02
586             	3.22341440e+02
587             	3.22341437e+02
588             	3.22341432e+02
589             	3.22341427e+02
590             	3.22341422e+02
591             	3.22341417e+02
592             	3.22341412e+02
593             	3.22341409e+02
594             	3.22341408e+02
595             	3.22341405e+02
596             	3.22341404e+02
597             	3.22341404e+02
598             	3.22341404e+02
599             	3.22341407e+02
600             	3.22341409e+02
601             	3.22341415e+02
602             	3.22341418e+02
603             	3.22341421e+02
604             	3.22341428e+02
605             	3.22341436e+02
606             	3.22341445e+02
607             	3.22341455e+02
608             	3.22341465e+02
609             	3.22341475e+02
610             	3.22341485e+02
611             	3.22341494e+02
612             	3.22341501e+02
613             	3.22341506e+02
614             	3.22341508e+02
615             	3.22341506e+02
616             	3.22341503e+02
617             	3.22341494e+02
618             	3.22341486e+02
619             	3.22341479e+02
620             	3.22341470e+02
621             	3.22341459e+02
