# Region        : cellZone component_3
# Cells         : 40
# Volume        : 7.07512112e-02
# Time          	volAverage(T)
1               	3.13300106e+02
2               	3.26241788e+02
3               	3.35499420e+02
4               	3.42897577e+02
5               	3.50562712e+02
6               	3.58699304e+02
7               	3.66854871e+02
8               	3.74908098e+02
9               	3.83107415e+02
10              	3.90782769e+02
11              	3.97742794e+02
12              	4.04288859e+02
13              	4.10354237e+02
14              	4.16248250e+02
15              	4.21580524e+02
16              	4.26699647e+02
17              	4.31781858e+02
18              	4.37171274e+02
19              	4.42676680e+02
20              	4.48013095e+02
21              	4.53065887e+02
22              	4.57719595e+02
23              	4.62402273e+02
24              	4.66999083e+02
25              	4.71428361e+02
26              	4.75731497e+02
27              	4.79606311e+02
28              	4.83959897e+02
29              	4.88304440e+02
30              	4.91420915e+02
31              	4.93889093e+02
32              	4.95930046e+02
33              	4.97188420e+02
34              	4.98703111e+02
35              	5.00454792e+02
36              	5.02093859e+02
37              	5.04658923e+02
38              	5.07133635e+02
39              	5.09238507e+02
40              	5.10940046e+02
41              	5.12761958e+02
42              	5.14742941e+02
43              	5.16947724e+02
44              	5.19297316e+02
45              	5.22091058e+02
46              	5.24978449e+02
47              	5.28417662e+02
48              	5.31791420e+02
49              	5.34907605e+02
50              	5.37800562e+02
51              	5.40618818e+02
52              	5.43344692e+02
53              	5.46088150e+02
54              	5.48661284e+02
55              	5.51038892e+02
56              	5.53250488e+02
57              	5.55331707e+02
58              	5.57096723e+02
59              	5.58484567e+02
60              	5.59511163e+02
61              	5.60293307e+02
62              	5.60762780e+02
63              	5.61065200e+02
64              	5.61328328e+02
65              	5.62011947e+02
66              	5.63003346e+02
67              	5.64165208e+02
68              	5.65108384e+02
69              	5.65947799e+02
70              	5.66672573e+02
71              	5.67273387e+02
72              	5.67532979e+02
73              	5.67846296e+02
74              	5.68072863e+02
75              	5.68171212e+02
76              	5.68222810e+02
77              	5.68270616e+02
78              	5.68314603e+02
79              	5.68295246e+02
80              	5.68199784e+02
81              	5.68143738e+02
82              	5.68051510e+02
83              	5.67833019e+02
84              	5.67456944e+02
85              	5.66954142e+02
86              	5.66504181e+02
87              	5.66288037e+02
88              	5.66188991e+02
89              	5.66050389e+02
90              	5.65939527e+02
91              	5.65980850e+02
92              	5.65939764e+02
93              	5.65802197e+02
94              	5.65676932e+02
95              	5.65428220e+02
96              	5.64951585e+02
97              	5.64364492e+02
98              	5.63769822e+02
99              	5.63178949e+02
100             	5.62655677e+02
101             	5.62166252e+02
102             	5.61737684e+02
103             	5.61464577e+02
104             	5.61339421e+02
105             	5.61303916e+02
106             	5.61300386e+02
107             	5.61336020e+02
108             	5.61412566e+02
109             	5.61499859e+02
110             	5.61463669e+02
111             	5.61318305e+02
112             	5.61113934e+02
113             	5.60945937e+02
114             	5.60694836e+02
115             	5.60363429e+02
116             	5.59979756e+02
117             	5.59541276e+02
118             	5.59114251e+02
119             	5.58828618e+02
120             	5.58468272e+02
121             	5.58287208e+02
122             	5.58285206e+02
123             	5.58193548e+02
124             	5.57981876e+02
125             	5.57988340e+02
126             	5.58037840e+02
127             	5.58033270e+02
128             	5.57954204e+02
129             	5.57750745e+02
130             	5.57435096e+02
131             	5.57149454e+02
132             	5.57021248e+02
133             	5.56897811e+02
134             	5.56835996e+02
135             	5.56588347e+02
136             	5.56248715e+02
137             	5.56128639e+02
138             	5.56056523e+02
139             	5.55929890e+02
140             	5.55723524e+02
141             	5.55446043e+02
142             	5.55147647e+02
143             	5.54878467e+02
144             	5.54596266e+02
145             	5.54350077e+02
146             	5.54171881e+02
147             	5.54024186e+02
148             	5.53810749e+02
149             	5.53643859e+02
150             	5.53516256e+02
151             	5.53345164e+02
152             	5.53142903e+02
153             	5.52908668e+02
154             	5.52651104e+02
155             	5.52338103e+02
156             	5.51990227e+02
157             	5.51674187e+02
158             	5.51344170e+02
159             	5.51097866e+02
160             	5.50923922e+02
161             	5.50809565e+02
162             	5.50744242e+02
163             	5.50697940e+02
164             	5.50567124e+02
165             	5.50466555e+02
166             	5.50385561e+02
167             	5.50298806e+02
168             	5.50170537e+02
169             	5.49989146e+02
170             	5.49778427e+02
171             	5.49536085e+02
172             	5.49278019e+02
173             	5.49071789e+02
174             	5.48951056e+02
175             	5.48819760e+02
176             	5.48726333e+02
177             	5.48694204e+02
178             	5.48639230e+02
179             	5.48575368e+02
180             	5.48558177e+02
181             	5.48526027e+02
182             	5.48446952e+02
183             	5.48333638e+02
184             	5.48181663e+02
185             	5.48007809e+02
186             	5.47862674e+02
187             	5.47777395e+02
188             	5.47644863e+02
189             	5.47574547e+02
190             	5.47504890e+02
191             	5.47364629e+02
192             	5.47240839e+02
193             	5.47167034e+02
194             	5.47070693e+02
195             	5.46937257e+02
196             	5.46781329e+02
197             	5.46615855e+02
198             	5.46464861e+02
199             	5.46367337e+02
200             	5.46243505e+02
201             	5.46133813e+02
202             	5.46036853e+02
203             	5.45961165e+02
204             	5.45849351e+02
205             	5.45723808e+02
206             	5.45619842e+02
207             	5.45507128e+02
208             	5.45376624e+02
209             	5.45223254e+02
210             	5.45071845e+02
211             	5.44940676e+02
212             	5.44789389e+02
213             	5.44652125e+02
214             	5.44538533e+02
215             	5.44474886e+02
216             	5.44408779e+02
217             	5.44358216e+02
218             	5.44280887e+02
219             	5.44213819e+02
220             	5.44162411e+02
221             	5.44087459e+02
222             	5.44001707e+02
223             	5.43898855e+02
224             	5.43779396e+02
225             	5.43653367e+02
226             	5.43527575e+02
227             	5.43405379e+02
228             	5.43295627e+02
229             	5.43181566e+02
230             	5.43080612e+02
231             	5.42993765e+02
232             	5.42919134e+02
233             	5.42857551e+02
234             	5.42804379e+02
235             	5.42761686e+02
236             	5.42727649e+02
237             	5.42696344e+02
238             	5.42664633e+02
239             	5.42634406e+02
240             	5.42600507e+02
241             	5.42563002e+02
242             	5.42510595e+02
243             	5.42454301e+02
244             	5.42390260e+02
245             	5.42315576e+02
246             	5.42233932e+02
247             	5.42146501e+02
248             	5.42054169e+02
249             	5.41959467e+02
250             	5.41863522e+02
251             	5.41766821e+02
252             	5.41676376e+02
253             	5.41592946e+02
254             	5.41511724e+02
255             	5.41436114e+02
256             	5.41367615e+02
257             	5.41304914e+02
258             	5.41248313e+02
259             	5.41201566e+02
260             	5.41163355e+02
261             	5.41131078e+02
262             	5.41105415e+02
263             	5.41078346e+02
264             	5.41051111e+02
265             	5.41020839e+02
266             	5.40978230e+02
267             	5.40929160e+02
268             	5.40870890e+02
269             	5.40803343e+02
270             	5.40728999e+02
271             	5.40648490e+02
272             	5.40566252e+02
273             	5.40484296e+02
274             	5.40405049e+02
275             	5.40338255e+02
276             	5.40276104e+02
277             	5.40220803e+02
278             	5.40172068e+02
279             	5.40130746e+02
280             	5.40093457e+02
281             	5.40060611e+02
282             	5.40034111e+02
283             	5.40003931e+02
284             	5.39971867e+02
285             	5.39941107e+02
286             	5.39905136e+02
287             	5.39860372e+02
288             	5.39814254e+02
289             	5.39762518e+02
290             	5.39714936e+02
291             	5.39667882e+02
292             	5.39620959e+02
293             	5.39583628e+02
294             	5.39549582e+02
295             	5.39518404e+02
296             	5.39492292e+02
297             	5.39463582e+02
298             	5.39431737e+02
299             	5.39400781e+02
300             	5.39367235e+02
301             	5.39328397e+02
302             	5.39283752e+02
303             	5.39235313e+02
304             	5.39188728e+02
305             	5.39146181e+02
306             	5.39104659e+02
307             	5.39063662e+02
308             	5.39028692e+02
309             	5.38997995e+02
310             	5.38969452e+02
311             	5.38943911e+02
312             	5.38920356e+02
313             	5.38893277e+02
314             	5.38866925e+02
315             	5.38837220e+02
316             	5.38803351e+02
317             	5.38764828e+02
318             	5.38721551e+02
319             	5.38672390e+02
320             	5.38625768e+02
321             	5.38575902e+02
322             	5.38530321e+02
323             	5.38490269e+02
324             	5.38451844e+02
325             	5.38418668e+02
326             	5.38391262e+02
327             	5.38366861e+02
328             	5.38343165e+02
329             	5.38319973e+02
330             	5.38294467e+02
331             	5.38269315e+02
332             	5.38241822e+02
333             	5.38210556e+02
334             	5.38176222e+02
335             	5.38139982e+02
336             	5.38107375e+02
337             	5.38073518e+02
338             	5.38038695e+02
339             	5.38006107e+02
340             	5.37976164e+02
341             	5.37949348e+02
342             	5.37925303e+02
343             	5.37901164e+02
344             	5.37880504e+02
345             	5.37859538e+02
346             	5.37837087e+02
347             	5.37814044e+02
348             	5.37788710e+02
349             	5.37760819e+02
350             	5.37730494e+02
351             	5.37698722e+02
352             	5.37666159e+02
353             	5.37637212e+02
354             	5.37614902e+02
355             	5.37591848e+02
356             	5.37572283e+02
357             	5.37557500e+02
358             	5.37544503e+02
359             	5.37530283e+02
360             	5.37512760e+02
361             	5.37496355e+02
362             	5.37477038e+02
363             	5.37451747e+02
364             	5.37424199e+02
365             	5.37397286e+02
366             	5.37374353e+02
367             	5.37348337e+02
368             	5.37324751e+02
369             	5.37305608e+02
370             	5.37292525e+02
371             	5.37280718e+02
372             	5.37267777e+02
373             	5.37257254e+02
374             	5.37248968e+02
375             	5.37239867e+02
376             	5.37227867e+02
377             	5.37210485e+02
378             	5.37191571e+02
379             	5.37169986e+02
380             	5.37149694e+02
381             	5.37131353e+02
382             	5.37113137e+02
383             	5.37101002e+02
384             	5.37095253e+02
385             	5.37092133e+02
386             	5.37084558e+02
387             	5.37080735e+02
388             	5.37076839e+02
389             	5.37070304e+02
390             	5.37056682e+02
391             	5.37040721e+02
392             	5.37023609e+02
393             	5.37013092e+02
394             	5.36996679e+02
395             	5.36986267e+02
396             	5.36983325e+02
397             	5.36984693e+02
398             	5.36982013e+02
399             	5.36980929e+02
400             	5.36978552e+02
401             	5.36973951e+02
402             	5.36963904e+02
403             	5.36948952e+02
404             	5.36932543e+02
405             	5.36922633e+02
406             	5.36904597e+02
407             	5.36890121e+02
408             	5.36881206e+02
409             	5.36880580e+02
410             	5.36880671e+02
411             	5.36868780e+02
412             	5.36869858e+02
413             	5.36867668e+02
414             	5.36862043e+02
415             	5.36852356e+02
416             	5.36840675e+02
417             	5.36832091e+02
418             	5.36825092e+02
419             	5.36813945e+02
420             	5.36807009e+02
421             	5.36806335e+02
422             	5.36806236e+02
423             	5.36803589e+02
424             	5.36798384e+02
425             	5.36797139e+02
426             	5.36793019e+02
427             	5.36783505e+02
428             	5.36776338e+02
429             	5.36769642e+02
430             	5.36760552e+02
431             	5.36751722e+02
432             	5.36746805e+02
433             	5.36747357e+02
434             	5.36750915e+02
435             	5.36755637e+02
436             	5.36759379e+02
437             	5.36764324e+02
438             	5.36768935e+02
439             	5.36771697e+02
440             	5.36771680e+02
441             	5.36769579e+02
442             	5.36764479e+02
443             	5.36756926e+02
444             	5.36745989e+02
445             	5.36732075e+02
446             	5.36717306e+02
447             	5.36706603e+02
448             	5.36692360e+02
449             	5.36682181e+02
450             	5.36675171e+02
451             	5.36672019e+02
452             	5.36674227e+02
453             	5.36681643e+02
454             	5.36694947e+02
455             	5.36704790e+02
456             	5.36713620e+02
457             	5.36724528e+02
458             	5.36732637e+02
459             	5.36736880e+02
460             	5.36736133e+02
461             	5.36731016e+02
462             	5.36721979e+02
463             	5.36714828e+02
464             	5.36702795e+02
465             	5.36693421e+02
466             	5.36683741e+02
467             	5.36677496e+02
468             	5.36674842e+02
469             	5.36676117e+02
470             	5.36681822e+02
471             	5.36691987e+02
472             	5.36699455e+02
473             	5.36708327e+02
474             	5.36719283e+02
475             	5.36728848e+02
476             	5.36735806e+02
477             	5.36740282e+02
478             	5.36742447e+02
479             	5.36741411e+02
480             	5.36737044e+02
481             	5.36733588e+02
482             	5.36727131e+02
483             	5.36721947e+02
484             	5.36717176e+02
485             	5.36714070e+02
486             	5.36713252e+02
487             	5.36715219e+02
488             	5.36719964e+02
489             	5.36727151e+02
490             	5.36735109e+02
491             	5.36743218e+02
492             	5.36753303e+02
493             	5.36762526e+02
494             	5.36771529e+02
495             	5.36779263e+02
496             	5.36785523e+02
497             	5.36790257e+02
498             	5.36793194e+02
499             	5.36794212e+02
500             	5.36792880e+02
501             	5.36793734e+02
502             	5.36792444e+02
503             	5.36790835e+02
504             	5.36790163e+02
505             	5.36790942e+02
506             	5.36793273e+02
507             	5.36797466e+02
508             	5.36802942e+02
509             	5.36810774e+02
510             	5.36820423e+02
511             	5.36831356e+02
512             	5.36842422e+02
513             	5.36853059e+02
514             	5.36862570e+02
515             	5.36871594e+02
516             	5.36879284e+02
517             	5.36884344e+02
518             	5.36887166e+02
519             	5.36887959e+02
520             	5.36887823e+02
521             	5.36887231e+02
522             	5.36885898e+02
523             	5.36884685e+02
524             	5.36884440e+02
525             	5.36884562e+02
526             	5.36885583e+02
527             	5.36888001e+02
528             	5.36891791e+02
529             	5.36897064e+02
530             	5.36902743e+02
531             	5.36909249e+02
532             	5.36916899e+02
533             	5.36925891e+02
534             	5.36935164e+02
535             	5.36943806e+02
536             	5.36950707e+02
537             	5.36958179e+02
538             	5.36963398e+02
539             	5.36966542e+02
540             	5.36968288e+02
541             	5.36968293e+02
542             	5.36966805e+02
543             	5.36964456e+02
544             	5.36962574e+02
545             	5.36962476e+02
546             	5.36962173e+02
547             	5.36963702e+02
548             	5.36967144e+02
549             	5.36972700e+02
550             	5.36980218e+02
551             	5.36989428e+02
552             	5.36997431e+02
553             	5.37005247e+02
554             	5.37013753e+02
555             	5.37021247e+02
556             	5.37026977e+02
557             	5.37031424e+02
558             	5.37036776e+02
559             	5.37042617e+02
560             	5.37047160e+02
561             	5.37051810e+02
562             	5.37057147e+02
563             	5.37062701e+02
564             	5.37068425e+02
565             	5.37073988e+02
566             	5.37079904e+02
567             	5.37085883e+02
568             	5.37091671e+02
569             	5.37097055e+02
570             	5.37102201e+02
571             	5.37107003e+02
572             	5.37111430e+02
573             	5.37115370e+02
574             	5.37119002e+02
575             	5.37122769e+02
576             	5.37126536e+02
577             	5.37130588e+02
578             	5.37135008e+02
579             	5.37139300e+02
580             	5.37143631e+02
581             	5.37148197e+02
582             	5.37153101e+02
583             	5.37158507e+02
584             	5.37164096e+02
585             	5.37170153e+02
586             	5.37176650e+02
587             	5.37182630e+02
588             	5.37188465e+02
589             	5.37194643e+02
590             	5.37200656e+02
591             	5.37206033e+02
592             	5.37210957e+02
593             	5.37215474e+02
594             	5.37219550e+02
595             	5.37222867e+02
596             	5.37225605e+02
597             	5.37228045e+02
598             	5.37230641e+02
599             	5.37234304e+02
600             	5.37238113e+02
601             	5.37242536e+02
602             	5.37248080e+02
603             	5.37254395e+02
604             	5.37261216e+02
605             	5.37268274e+02
606             	5.37275710e+02
607             	5.37282959e+02
608             	5.37290235e+02
609             	5.37295685e+02
610             	5.37300967e+02
611             	5.37305531e+02
612             	5.37308970e+02
613             	5.37311533e+02
614             	5.37313422e+02
615             	5.37316168e+02
616             	5.37318396e+02
617             	5.37320740e+02
618             	5.37322857e+02
619             	5.37325695e+02
620             	5.37329069e+02
621             	5.37332760e+02
