# Region        : cellZone component_3
# Cells         : 119
# Volume        : 1.54148208e-01
# Time          	volAverage(T)
1               	3.00323302e+02
2               	3.00640844e+02
3               	3.00944926e+02
4               	3.01240961e+02
5               	3.01532100e+02
6               	3.01819256e+02
7               	3.02102931e+02
8               	3.02383483e+02
9               	3.02661960e+02
10              	3.02938128e+02
11              	3.03211550e+02
12              	3.03483428e+02
13              	3.03753368e+02
14              	3.04022053e+02
15              	3.04286146e+02
16              	3.04547286e+02
17              	3.04806824e+02
18              	3.05063600e+02
19              	3.05318346e+02
20              	3.05569475e+02
21              	3.05813538e+02
22              	3.06049285e+02
23              	3.06291474e+02
24              	3.06528161e+02
25              	3.06762618e+02
26              	3.06994899e+02
27              	3.07224514e+02
28              	3.07449329e+02
29              	3.07674162e+02
30              	3.07904006e+02
31              	3.08128600e+02
32              	3.08353930e+02
33              	3.08574639e+02
34              	3.08790365e+02
35              	3.08997037e+02
36              	3.09192638e+02
37              	3.09380156e+02
38              	3.09561714e+02
39              	3.09746908e+02
40              	3.09935771e+02
41              	3.10126382e+02
42              	3.10314127e+02
43              	3.10502890e+02
44              	3.10687631e+02
45              	3.10870174e+02
46              	3.11050476e+02
47              	3.11231463e+02
48              	3.11410774e+02
49              	3.11591399e+02
50              	3.11771438e+02
51              	3.11952396e+02
52              	3.12136400e+02
53              	3.12323030e+02
54              	3.12505881e+02
55              	3.12679311e+02
56              	3.12840510e+02
57              	3.12996199e+02
58              	3.13145710e+02
59              	3.13296536e+02
60              	3.13457763e+02
61              	3.13616212e+02
62              	3.13768831e+02
63              	3.13917194e+02
64              	3.14061103e+02
65              	3.14206762e+02
66              	3.14354662e+02
67              	3.14504163e+02
68              	3.14656203e+02
69              	3.14812362e+02
70              	3.14964221e+02
71              	3.15107520e+02
72              	3.15242509e+02
73              	3.15382997e+02
74              	3.15529930e+02
75              	3.15672207e+02
76              	3.15809641e+02
77              	3.15944933e+02
78              	3.16078710e+02
79              	3.16210543e+02
80              	3.16345584e+02
81              	3.16479355e+02
82              	3.16619580e+02
83              	3.16765074e+02
84              	3.16909416e+02
85              	3.17050351e+02
86              	3.17187379e+02
87              	3.17323495e+02
88              	3.17460932e+02
89              	3.17597277e+02
90              	3.17730026e+02
91              	3.17858838e+02
92              	3.17984061e+02
93              	3.18106261e+02
94              	3.18228447e+02
95              	3.18348744e+02
96              	3.18474406e+02
97              	3.18606093e+02
98              	3.18738212e+02
99              	3.18863886e+02
100             	3.18982828e+02
101             	3.19105058e+02
102             	3.19226402e+02
103             	3.19346803e+02
104             	3.19463845e+02
105             	3.19575534e+02
106             	3.19684047e+02
107             	3.19795148e+02
108             	3.19911099e+02
109             	3.20034201e+02
110             	3.20157141e+02
111             	3.20269051e+02
112             	3.20365798e+02
113             	3.20468741e+02
114             	3.20572672e+02
115             	3.20674271e+02
116             	3.20773437e+02
117             	3.20870207e+02
118             	3.20964561e+02
119             	3.21059252e+02
120             	3.21156930e+02
121             	3.21261543e+02
122             	3.21370662e+02
123             	3.21480561e+02
124             	3.21574964e+02
125             	3.21655202e+02
126             	3.21736996e+02
127             	3.21819508e+02
128             	3.21905050e+02
129             	3.21989476e+02
130             	3.22070609e+02
131             	3.22150579e+02
132             	3.22229161e+02
133             	3.22305861e+02
134             	3.22382009e+02
135             	3.22460359e+02
136             	3.22542209e+02
137             	3.22629772e+02
138             	3.22721624e+02
139             	3.22817713e+02
140             	3.22915142e+02
141             	3.23012166e+02
142             	3.23107149e+02
143             	3.23201728e+02
144             	3.23295359e+02
145             	3.23385007e+02
146             	3.23471635e+02
147             	3.23556131e+02
148             	3.23639395e+02
149             	3.23721889e+02
150             	3.23804047e+02
151             	3.23885812e+02
152             	3.23966919e+02
153             	3.24047423e+02
154             	3.24129583e+02
155             	3.24212688e+02
156             	3.24297291e+02
157             	3.24383044e+02
158             	3.24470420e+02
159             	3.24559178e+02
160             	3.24649529e+02
161             	3.24740265e+02
162             	3.24830341e+02
163             	3.24919004e+02
164             	3.25005403e+02
165             	3.25089086e+02
166             	3.25170095e+02
167             	3.25249120e+02
168             	3.25326910e+02
169             	3.25403911e+02
170             	3.25480360e+02
171             	3.25556842e+02
172             	3.25632481e+02
173             	3.25707384e+02
174             	3.25782048e+02
175             	3.25856528e+02
176             	3.25931232e+02
177             	3.26006383e+02
178             	3.26082231e+02
179             	3.26159063e+02
180             	3.26236998e+02
181             	3.26315952e+02
182             	3.26395743e+02
183             	3.26475507e+02
184             	3.26555298e+02
185             	3.26635128e+02
186             	3.26714395e+02
187             	3.26792561e+02
188             	3.26869714e+02
189             	3.26944925e+02
190             	3.27018337e+02
191             	3.27090350e+02
192             	3.27161048e+02
193             	3.27230667e+02
194             	3.27299429e+02
195             	3.27367710e+02
196             	3.27435660e+02
197             	3.27503806e+02
198             	3.27572423e+02
199             	3.27641688e+02
200             	3.27711634e+02
201             	3.27782327e+02
202             	3.27853253e+02
203             	3.27925021e+02
204             	3.27996419e+02
205             	3.28067617e+02
206             	3.28138831e+02
207             	3.28209353e+02
208             	3.28279208e+02
209             	3.28348118e+02
210             	3.28415770e+02
211             	3.28481472e+02
212             	3.28545961e+02
213             	3.28609609e+02
214             	3.28672250e+02
215             	3.28733763e+02
216             	3.28794175e+02
217             	3.28853881e+02
218             	3.28913159e+02
219             	3.28972108e+02
220             	3.29030869e+02
221             	3.29089614e+02
222             	3.29148418e+02
223             	3.29207808e+02
224             	3.29267649e+02
225             	3.29327667e+02
226             	3.29388020e+02
227             	3.29448784e+02
228             	3.29509871e+02
229             	3.29570835e+02
230             	3.29631555e+02
231             	3.29691967e+02
232             	3.29752044e+02
233             	3.29811494e+02
234             	3.29870354e+02
235             	3.29928123e+02
236             	3.29984811e+02
237             	3.30039364e+02
238             	3.30092791e+02
239             	3.30145497e+02
240             	3.30197386e+02
241             	3.30248343e+02
242             	3.30298741e+02
243             	3.30348807e+02
244             	3.30398716e+02
245             	3.30448622e+02
246             	3.30498704e+02
247             	3.30549102e+02
248             	3.30599963e+02
249             	3.30651671e+02
250             	3.30703498e+02
251             	3.30755465e+02
252             	3.30807493e+02
253             	3.30859585e+02
254             	3.30910898e+02
255             	3.30961358e+02
256             	3.31011390e+02
257             	3.31060865e+02
258             	3.31109156e+02
259             	3.31156226e+02
260             	3.31202359e+02
261             	3.31247568e+02
262             	3.31292085e+02
263             	3.31336186e+02
264             	3.31380189e+02
265             	3.31424272e+02
266             	3.31468603e+02
267             	3.31513261e+02
268             	3.31558053e+02
269             	3.31603106e+02
270             	3.31647990e+02
271             	3.31692584e+02
272             	3.31737224e+02
273             	3.31780756e+02
274             	3.31822750e+02
275             	3.31864139e+02
276             	3.31904219e+02
277             	3.31943130e+02
278             	3.31981502e+02
279             	3.32019281e+02
280             	3.32056461e+02
281             	3.32093276e+02
282             	3.32129934e+02
283             	3.32166622e+02
284             	3.32203735e+02
285             	3.32241466e+02
286             	3.32279916e+02
287             	3.32318854e+02
288             	3.32357931e+02
289             	3.32397154e+02
290             	3.32436088e+02
291             	3.32474683e+02
292             	3.32512709e+02
293             	3.32549988e+02
294             	3.32585773e+02
295             	3.32620636e+02
296             	3.32654723e+02
297             	3.32687933e+02
298             	3.32720312e+02
299             	3.32751991e+02
300             	3.32782889e+02
301             	3.32813140e+02
302             	3.32843007e+02
303             	3.32872602e+02
304             	3.32902131e+02
305             	3.32931826e+02
306             	3.32961598e+02
307             	3.32991920e+02
308             	3.33022617e+02
309             	3.33053526e+02
310             	3.33084552e+02
311             	3.33115614e+02
312             	3.33146665e+02
313             	3.33177709e+02
314             	3.33208710e+02
315             	3.33239648e+02
316             	3.33270458e+02
317             	3.33300750e+02
318             	3.33330961e+02
319             	3.33360946e+02
320             	3.33390825e+02
321             	3.33420361e+02
322             	3.33449586e+02
323             	3.33478523e+02
324             	3.33507125e+02
325             	3.33535236e+02
326             	3.33562884e+02
327             	3.33590274e+02
328             	3.33617048e+02
329             	3.33643310e+02
330             	3.33669172e+02
331             	3.33694745e+02
332             	3.33720039e+02
333             	3.33745051e+02
334             	3.33769867e+02
335             	3.33794534e+02
336             	3.33819104e+02
337             	3.33843591e+02
338             	3.33868018e+02
339             	3.33892367e+02
340             	3.33916440e+02
341             	3.33940482e+02
342             	3.33964396e+02
343             	3.33988182e+02
344             	3.34011797e+02
345             	3.34035209e+02
346             	3.34058359e+02
347             	3.34081179e+02
348             	3.34103687e+02
349             	3.34125898e+02
350             	3.34147791e+02
351             	3.34169555e+02
352             	3.34191218e+02
353             	3.34212725e+02
354             	3.34234113e+02
355             	3.34255411e+02
356             	3.34276495e+02
357             	3.34297466e+02
358             	3.34318305e+02
359             	3.34339064e+02
360             	3.34359587e+02
361             	3.34380008e+02
362             	3.34400305e+02
363             	3.34420435e+02
364             	3.34440428e+02
365             	3.34460288e+02
366             	3.34480002e+02
367             	3.34499571e+02
368             	3.34519007e+02
369             	3.34538346e+02
370             	3.34557548e+02
371             	3.34576649e+02
372             	3.34595553e+02
373             	3.34614347e+02
374             	3.34633040e+02
375             	3.34651613e+02
376             	3.34669965e+02
377             	3.34688388e+02
378             	3.34706710e+02
379             	3.34725027e+02
380             	3.34743400e+02
381             	3.34761785e+02
382             	3.34780297e+02
383             	3.34798619e+02
384             	3.34816809e+02
385             	3.34834759e+02
386             	3.34852622e+02
387             	3.34870415e+02
388             	3.34887990e+02
389             	3.34905247e+02
390             	3.34922170e+02
391             	3.34938816e+02
392             	3.34955205e+02
393             	3.34971359e+02
394             	3.34987273e+02
395             	3.35002980e+02
396             	3.35018429e+02
397             	3.35033577e+02
398             	3.35048458e+02
399             	3.35063179e+02
400             	3.35077780e+02
401             	3.35092068e+02
402             	3.35106280e+02
403             	3.35120293e+02
404             	3.35134269e+02
405             	3.35148208e+02
406             	3.35162109e+02
407             	3.35176047e+02
408             	3.35190069e+02
409             	3.35204125e+02
410             	3.35218177e+02
411             	3.35232121e+02
412             	3.35245912e+02
413             	3.35259507e+02
414             	3.35272902e+02
415             	3.35286104e+02
416             	3.35299155e+02
417             	3.35312072e+02
418             	3.35324875e+02
419             	3.35337517e+02
420             	3.35350071e+02
421             	3.35362634e+02
422             	3.35375024e+02
423             	3.35387153e+02
424             	3.35399010e+02
425             	3.35410576e+02
426             	3.35421805e+02
427             	3.35432774e+02
428             	3.35443507e+02
429             	3.35453997e+02
430             	3.35464244e+02
431             	3.35474340e+02
432             	3.35484290e+02
433             	3.35494151e+02
434             	3.35503912e+02
435             	3.35513511e+02
436             	3.35523006e+02
437             	3.35532419e+02
438             	3.35541723e+02
439             	3.35551036e+02
440             	3.35560360e+02
441             	3.35569689e+02
442             	3.35578907e+02
443             	3.35587993e+02
444             	3.35596942e+02
445             	3.35605785e+02
446             	3.35614549e+02
447             	3.35623319e+02
448             	3.35632047e+02
449             	3.35640817e+02
450             	3.35649638e+02
451             	3.35658510e+02
452             	3.35667421e+02
453             	3.35676389e+02
454             	3.35685444e+02
455             	3.35694568e+02
456             	3.35703704e+02
457             	3.35712752e+02
458             	3.35722020e+02
459             	3.35731426e+02
460             	3.35740874e+02
461             	3.35750296e+02
462             	3.35759568e+02
463             	3.35768666e+02
464             	3.35777575e+02
465             	3.35786318e+02
466             	3.35794901e+02
467             	3.35803338e+02
468             	3.35811654e+02
469             	3.35819856e+02
470             	3.35827958e+02
471             	3.35835960e+02
472             	3.35844070e+02
473             	3.35852334e+02
474             	3.35860527e+02
475             	3.35868575e+02
476             	3.35876476e+02
477             	3.35884347e+02
478             	3.35892280e+02
479             	3.35900171e+02
480             	3.35908223e+02
481             	3.35916334e+02
482             	3.35924362e+02
483             	3.35932210e+02
484             	3.35939896e+02
485             	3.35947465e+02
486             	3.35954918e+02
487             	3.35962223e+02
488             	3.35969516e+02
489             	3.35976894e+02
490             	3.35984386e+02
491             	3.35991935e+02
492             	3.35999571e+02
493             	3.36007342e+02
494             	3.36015183e+02
495             	3.36022998e+02
496             	3.36030918e+02
497             	3.36038867e+02
498             	3.36046777e+02
499             	3.36054567e+02
500             	3.36062099e+02
501             	3.36069364e+02
502             	3.36076323e+02
503             	3.36082977e+02
504             	3.36089337e+02
505             	3.36095403e+02
506             	3.36101183e+02
507             	3.36106687e+02
508             	3.36111924e+02
509             	3.36116954e+02
510             	3.36121846e+02
511             	3.36126704e+02
512             	3.36131450e+02
513             	3.36136302e+02
514             	3.36140958e+02
515             	3.36145735e+02
516             	3.36150553e+02
517             	3.36155082e+02
518             	3.36159672e+02
519             	3.36164080e+02
520             	3.36168485e+02
521             	3.36172883e+02
522             	3.36177182e+02
523             	3.36181403e+02
524             	3.36185643e+02
525             	3.36189825e+02
526             	3.36194002e+02
527             	3.36198237e+02
528             	3.36202552e+02
529             	3.36206934e+02
530             	3.36211402e+02
531             	3.36215899e+02
532             	3.36220470e+02
533             	3.36225030e+02
534             	3.36229616e+02
535             	3.36234381e+02
536             	3.36239114e+02
537             	3.36243723e+02
538             	3.36248249e+02
539             	3.36252798e+02
540             	3.36257232e+02
541             	3.36261576e+02
542             	3.36265806e+02
543             	3.36269888e+02
544             	3.36273888e+02
545             	3.36277831e+02
546             	3.36281711e+02
547             	3.36285452e+02
548             	3.36289088e+02
549             	3.36292668e+02
550             	3.36296253e+02
551             	3.36299697e+02
552             	3.36303282e+02
553             	3.36307035e+02
554             	3.36310878e+02
555             	3.36314815e+02
556             	3.36318836e+02
557             	3.36322903e+02
558             	3.36326985e+02
559             	3.36331129e+02
560             	3.36335142e+02
561             	3.36339087e+02
562             	3.36343023e+02
563             	3.36346941e+02
564             	3.36350955e+02
565             	3.36355110e+02
566             	3.36359367e+02
567             	3.36363720e+02
568             	3.36368158e+02
569             	3.36372637e+02
570             	3.36377072e+02
571             	3.36381375e+02
572             	3.36385632e+02
573             	3.36389713e+02
574             	3.36393593e+02
575             	3.36397289e+02
576             	3.36400868e+02
577             	3.36404278e+02
578             	3.36407498e+02
579             	3.36410564e+02
580             	3.36413490e+02
581             	3.36416370e+02
582             	3.36419341e+02
583             	3.36422295e+02
584             	3.36425272e+02
585             	3.36428305e+02
586             	3.36431348e+02
587             	3.36434303e+02
588             	3.36437088e+02
589             	3.36439799e+02
590             	3.36442363e+02
591             	3.36444857e+02
592             	3.36447331e+02
593             	3.36449861e+02
594             	3.36452413e+02
595             	3.36455016e+02
596             	3.36457642e+02
597             	3.36460284e+02
598             	3.36462945e+02
599             	3.36465634e+02
600             	3.36468363e+02
601             	3.36470982e+02
602             	3.36473525e+02
603             	3.36476035e+02
604             	3.36478509e+02
605             	3.36480942e+02
606             	3.36483334e+02
607             	3.36485690e+02
608             	3.36488037e+02
609             	3.36490353e+02
610             	3.36492626e+02
611             	3.36494910e+02
612             	3.36497319e+02
613             	3.36499738e+02
614             	3.36502146e+02
615             	3.36504501e+02
616             	3.36506780e+02
617             	3.36508947e+02
618             	3.36510977e+02
619             	3.36512848e+02
620             	3.36514570e+02
621             	3.36516160e+02
