# Region        : cellZone component_2
# Cells         : 112
# Volume        : 2.16407811e-01
# Time          	volAverage(T)
1               	3.01005257e+02
2               	3.01990209e+02
3               	3.02803282e+02
4               	3.03493660e+02
5               	3.04141768e+02
6               	3.04772393e+02
7               	3.05382228e+02
8               	3.05967178e+02
9               	3.06536244e+02
10              	3.07098523e+02
11              	3.07638864e+02
12              	3.08134966e+02
13              	3.08615094e+02
14              	3.09074392e+02
15              	3.09513021e+02
16              	3.09923700e+02
17              	3.10310144e+02
18              	3.10714056e+02
19              	3.11117903e+02
20              	3.11510231e+02
21              	3.11881743e+02
22              	3.12230237e+02
23              	3.12560633e+02
24              	3.12878069e+02
25              	3.13188675e+02
26              	3.13509541e+02
27              	3.13841254e+02
28              	3.14176743e+02
29              	3.14493780e+02
30              	3.14751034e+02
31              	3.14972059e+02
32              	3.15140499e+02
33              	3.15332402e+02
34              	3.15536820e+02
35              	3.15751452e+02
36              	3.15978727e+02
37              	3.16208245e+02
38              	3.16435155e+02
39              	3.16650474e+02
40              	3.16869795e+02
41              	3.17058593e+02
42              	3.17225452e+02
43              	3.17372939e+02
44              	3.17479462e+02
45              	3.17544330e+02
46              	3.17608672e+02
47              	3.17716815e+02
48              	3.17852542e+02
49              	3.17998370e+02
50              	3.18137092e+02
51              	3.18272092e+02
52              	3.18415269e+02
53              	3.18557989e+02
54              	3.18713722e+02
55              	3.18897719e+02
56              	3.18999262e+02
57              	3.18996036e+02
58              	3.18913030e+02
59              	3.18830487e+02
60              	3.18758209e+02
61              	3.18783579e+02
62              	3.18862470e+02
63              	3.18961754e+02
64              	3.19060077e+02
65              	3.19155831e+02
66              	3.19276609e+02
67              	3.19407908e+02
68              	3.19494597e+02
69              	3.19505991e+02
70              	3.19458452e+02
71              	3.19389459e+02
72              	3.19364279e+02
73              	3.19389374e+02
74              	3.19434382e+02
75              	3.19489842e+02
76              	3.19546570e+02
77              	3.19608495e+02
78              	3.19658851e+02
79              	3.19731981e+02
80              	3.19782068e+02
81              	3.19765866e+02
82              	3.19680188e+02
83              	3.19606975e+02
84              	3.19553061e+02
85              	3.19539008e+02
86              	3.19554836e+02
87              	3.19620823e+02
88              	3.19708339e+02
89              	3.19787738e+02
90              	3.19884168e+02
91              	3.19984409e+02
92              	3.20101981e+02
93              	3.20224260e+02
94              	3.20348355e+02
95              	3.20475617e+02
96              	3.20602048e+02
97              	3.20730001e+02
98              	3.20858863e+02
99              	3.20984454e+02
100             	3.21079787e+02
101             	3.21194101e+02
102             	3.21270940e+02
103             	3.21347936e+02
104             	3.21419149e+02
105             	3.21471455e+02
106             	3.21519760e+02
107             	3.21561233e+02
108             	3.21619935e+02
109             	3.21674108e+02
110             	3.21734872e+02
111             	3.21796225e+02
112             	3.21853836e+02
113             	3.21917180e+02
114             	3.21989190e+02
115             	3.22008904e+02
116             	3.22040703e+02
117             	3.22072479e+02
118             	3.22068946e+02
119             	3.22073016e+02
120             	3.22041525e+02
121             	3.22056714e+02
122             	3.22082704e+02
123             	3.22119065e+02
124             	3.22162532e+02
125             	3.22216315e+02
126             	3.22275760e+02
127             	3.22342106e+02
128             	3.22377229e+02
129             	3.22375310e+02
130             	3.22337733e+02
131             	3.22264823e+02
132             	3.22279832e+02
133             	3.22311314e+02
134             	3.22339251e+02
135             	3.22367749e+02
136             	3.22396031e+02
137             	3.22429716e+02
138             	3.22463382e+02
139             	3.22497790e+02
140             	3.22528285e+02
141             	3.22557197e+02
142             	3.22538598e+02
143             	3.22522887e+02
144             	3.22540227e+02
145             	3.22573245e+02
146             	3.22572282e+02
147             	3.22570557e+02
148             	3.22588250e+02
149             	3.22609424e+02
150             	3.22638071e+02
151             	3.22676649e+02
152             	3.22728906e+02
153             	3.22781847e+02
154             	3.22834910e+02
155             	3.22888286e+02
156             	3.22930688e+02
157             	3.22969481e+02
158             	3.22965764e+02
159             	3.22987628e+02
160             	3.23009465e+02
161             	3.23063063e+02
162             	3.23128999e+02
163             	3.23199779e+02
164             	3.23266336e+02
165             	3.23323672e+02
166             	3.23361535e+02
167             	3.23386274e+02
168             	3.23402870e+02
169             	3.23422004e+02
170             	3.23441228e+02
171             	3.23470591e+02
172             	3.23505622e+02
173             	3.23558033e+02
174             	3.23621562e+02
175             	3.23683783e+02
176             	3.23741232e+02
177             	3.23794723e+02
178             	3.23826610e+02
179             	3.23849680e+02
180             	3.23855085e+02
181             	3.23861226e+02
182             	3.23882205e+02
183             	3.23931525e+02
184             	3.23959247e+02
185             	3.24005026e+02
186             	3.24051559e+02
187             	3.24091771e+02
188             	3.24128861e+02
189             	3.24166589e+02
190             	3.24205990e+02
191             	3.24232803e+02
192             	3.24264205e+02
193             	3.24295113e+02
194             	3.24310539e+02
195             	3.24337740e+02
196             	3.24345855e+02
197             	3.24352369e+02
198             	3.24341761e+02
199             	3.24335208e+02
200             	3.24321652e+02
201             	3.24341117e+02
202             	3.24357890e+02
203             	3.24388965e+02
204             	3.24424879e+02
205             	3.24453457e+02
206             	3.24472294e+02
207             	3.24479549e+02
208             	3.24480944e+02
209             	3.24479931e+02
210             	3.24474777e+02
211             	3.24478527e+02
212             	3.24501157e+02
213             	3.24522361e+02
214             	3.24517482e+02
215             	3.24539537e+02
216             	3.24557153e+02
217             	3.24587118e+02
218             	3.24621306e+02
219             	3.24649030e+02
220             	3.24675178e+02
221             	3.24685235e+02
222             	3.24695526e+02
223             	3.24711601e+02
224             	3.24724903e+02
225             	3.24740268e+02
226             	3.24758566e+02
227             	3.24785933e+02
228             	3.24805428e+02
229             	3.24821611e+02
230             	3.24827858e+02
231             	3.24844307e+02
232             	3.24860772e+02
233             	3.24866156e+02
234             	3.24875719e+02
235             	3.24893707e+02
236             	3.24893406e+02
237             	3.24906973e+02
238             	3.24923837e+02
239             	3.24935289e+02
240             	3.24950418e+02
241             	3.24957792e+02
242             	3.24960226e+02
243             	3.24961354e+02
244             	3.24969161e+02
245             	3.24964618e+02
246             	3.24971094e+02
247             	3.24979077e+02
248             	3.24995736e+02
249             	3.25013758e+02
250             	3.25027999e+02
251             	3.25043623e+02
252             	3.25056063e+02
253             	3.25075156e+02
254             	3.25093062e+02
255             	3.25113658e+02
256             	3.25129462e+02
257             	3.25147660e+02
258             	3.25142335e+02
259             	3.25149046e+02
260             	3.25158918e+02
261             	3.25168722e+02
262             	3.25177091e+02
263             	3.25186762e+02
264             	3.25197642e+02
265             	3.25208397e+02
266             	3.25214170e+02
267             	3.25222827e+02
268             	3.25229130e+02
269             	3.25239988e+02
270             	3.25231211e+02
271             	3.25233852e+02
272             	3.25239839e+02
273             	3.25240685e+02
274             	3.25251369e+02
275             	3.25265521e+02
276             	3.25277544e+02
277             	3.25289701e+02
278             	3.25297404e+02
279             	3.25308415e+02
280             	3.25315081e+02
281             	3.25315171e+02
282             	3.25309477e+02
283             	3.25307302e+02
284             	3.25307292e+02
285             	3.25314314e+02
286             	3.25313296e+02
287             	3.25315832e+02
288             	3.25318388e+02
289             	3.25322985e+02
290             	3.25328337e+02
291             	3.25336764e+02
292             	3.25342571e+02
293             	3.25350830e+02
294             	3.25355004e+02
295             	3.25363322e+02
296             	3.25366023e+02
297             	3.25371182e+02
298             	3.25372216e+02
299             	3.25365491e+02
300             	3.25362261e+02
301             	3.25367306e+02
302             	3.25369709e+02
303             	3.25375271e+02
304             	3.25376848e+02
305             	3.25382904e+02
306             	3.25385967e+02
307             	3.25386749e+02
308             	3.25386183e+02
309             	3.25387121e+02
310             	3.25386784e+02
311             	3.25388934e+02
312             	3.25389936e+02
313             	3.25396227e+02
314             	3.25387203e+02
315             	3.25390461e+02
316             	3.25396329e+02
317             	3.25406602e+02
318             	3.25410503e+02
319             	3.25416294e+02
320             	3.25416683e+02
321             	3.25420698e+02
322             	3.25420310e+02
323             	3.25427548e+02
324             	3.25430149e+02
325             	3.25437226e+02
326             	3.25441951e+02
327             	3.25447660e+02
328             	3.25455555e+02
329             	3.25460559e+02
330             	3.25465726e+02
331             	3.25468176e+02
332             	3.25474661e+02
333             	3.25475899e+02
334             	3.25479624e+02
335             	3.25478231e+02
336             	3.25479958e+02
337             	3.25477023e+02
338             	3.25466264e+02
339             	3.25464101e+02
340             	3.25470557e+02
341             	3.25473452e+02
342             	3.25479608e+02
343             	3.25483581e+02
344             	3.25488409e+02
345             	3.25489892e+02
346             	3.25493703e+02
347             	3.25497677e+02
348             	3.25499039e+02
349             	3.25500639e+02
350             	3.25498478e+02
351             	3.25496002e+02
352             	3.25493119e+02
353             	3.25478676e+02
354             	3.25473088e+02
355             	3.25475047e+02
356             	3.25479180e+02
357             	3.25487385e+02
358             	3.25492581e+02
359             	3.25499022e+02
360             	3.25505862e+02
361             	3.25510557e+02
362             	3.25512236e+02
363             	3.25515976e+02
364             	3.25513987e+02
365             	3.25503000e+02
366             	3.25497752e+02
367             	3.25500723e+02
368             	3.25501536e+02
369             	3.25506917e+02
370             	3.25509243e+02
371             	3.25513157e+02
372             	3.25519890e+02
373             	3.25522955e+02
374             	3.25526907e+02
375             	3.25527671e+02
376             	3.25527661e+02
377             	3.25510055e+02
378             	3.25503214e+02
379             	3.25495907e+02
380             	3.25495380e+02
381             	3.25493815e+02
382             	3.25496804e+02
383             	3.25497367e+02
384             	3.25502527e+02
385             	3.25503967e+02
386             	3.25507421e+02
387             	3.25509641e+02
388             	3.25510999e+02
389             	3.25513351e+02
390             	3.25513563e+02
391             	3.25515115e+02
392             	3.25513071e+02
393             	3.25513053e+02
394             	3.25511876e+02
395             	3.25516728e+02
396             	3.25520286e+02
397             	3.25525033e+02
398             	3.25528935e+02
399             	3.25535199e+02
400             	3.25536301e+02
401             	3.25539148e+02
402             	3.25537431e+02
403             	3.25536742e+02
404             	3.25533040e+02
405             	3.25533321e+02
406             	3.25529242e+02
407             	3.25526661e+02
408             	3.25521526e+02
409             	3.25508926e+02
410             	3.25503037e+02
411             	3.25507013e+02
412             	3.25507692e+02
413             	3.25514247e+02
414             	3.25503052e+02
415             	3.25503369e+02
416             	3.25504773e+02
417             	3.25507081e+02
418             	3.25499036e+02
419             	3.25493077e+02
420             	3.25484806e+02
421             	3.25483249e+02
422             	3.25485059e+02
423             	3.25467739e+02
424             	3.25449503e+02
425             	3.25457040e+02
426             	3.25469721e+02
427             	3.25479706e+02
428             	3.25482539e+02
429             	3.25483114e+02
430             	3.25471083e+02
431             	3.25459920e+02
432             	3.25447757e+02
433             	3.25445535e+02
434             	3.25441483e+02
435             	3.25433142e+02
436             	3.25429566e+02
437             	3.25419080e+02
438             	3.25427560e+02
439             	3.25435050e+02
440             	3.25439396e+02
441             	3.25439788e+02
442             	3.25441917e+02
443             	3.25437493e+02
444             	3.25422917e+02
445             	3.25410354e+02
446             	3.25402594e+02
447             	3.25399986e+02
448             	3.25401564e+02
449             	3.25390427e+02
450             	3.25386788e+02
451             	3.25389374e+02
452             	3.25387488e+02
453             	3.25372819e+02
454             	3.25349619e+02
455             	3.25349930e+02
456             	3.25352197e+02
457             	3.25337525e+02
458             	3.25332911e+02
459             	3.25337982e+02
460             	3.25346276e+02
461             	3.25346342e+02
462             	3.25325428e+02
463             	3.25300253e+02
464             	3.25274959e+02
465             	3.25259095e+02
466             	3.25238171e+02
467             	3.25217604e+02
468             	3.25218325e+02
469             	3.25220321e+02
470             	3.25218664e+02
471             	3.25214938e+02
472             	3.25211572e+02
473             	3.25202129e+02
474             	3.25190676e+02
475             	3.25166398e+02
476             	3.25153526e+02
477             	3.25145147e+02
478             	3.25139186e+02
479             	3.25125389e+02
480             	3.25095804e+02
481             	3.25090980e+02
482             	3.25106374e+02
483             	3.25098368e+02
484             	3.25099116e+02
485             	3.25096571e+02
486             	3.25088343e+02
487             	3.25075358e+02
488             	3.25066966e+02
489             	3.25048264e+02
490             	3.25037259e+02
491             	3.25038659e+02
492             	3.25034879e+02
493             	3.25035470e+02
494             	3.25023624e+02
495             	3.25024190e+02
496             	3.25019060e+02
497             	3.25016447e+02
498             	3.25003559e+02
499             	3.24992568e+02
500             	3.24979240e+02
501             	3.24975254e+02
502             	3.24969210e+02
503             	3.24961320e+02
504             	3.24978177e+02
505             	3.25006020e+02
506             	3.25034552e+02
507             	3.25056289e+02
508             	3.25076913e+02
509             	3.25097854e+02
510             	3.25110767e+02
511             	3.25116093e+02
512             	3.25116070e+02
513             	3.25121401e+02
514             	3.25130312e+02
515             	3.25124312e+02
516             	3.25126331e+02
517             	3.25144591e+02
518             	3.25161327e+02
519             	3.25182238e+02
520             	3.25204761e+02
521             	3.25224208e+02
522             	3.25238396e+02
523             	3.25242165e+02
524             	3.25241113e+02
525             	3.25240395e+02
526             	3.25246980e+02
527             	3.25255772e+02
528             	3.25249196e+02
529             	3.25252753e+02
530             	3.25266961e+02
531             	3.25283940e+02
532             	3.25296107e+02
533             	3.25287988e+02
534             	3.25293824e+02
535             	3.25308693e+02
536             	3.25306891e+02
537             	3.25308603e+02
538             	3.25308409e+02
539             	3.25315845e+02
540             	3.25325844e+02
541             	3.25335775e+02
542             	3.25328539e+02
543             	3.25322542e+02
544             	3.25307255e+02
545             	3.25308767e+02
546             	3.25313357e+02
547             	3.25318402e+02
548             	3.25326412e+02
549             	3.25328296e+02
550             	3.25323408e+02
551             	3.25318114e+02
552             	3.25317028e+02
553             	3.25322589e+02
554             	3.25313682e+02
555             	3.25309842e+02
556             	3.25320514e+02
557             	3.25334486e+02
558             	3.25333287e+02
559             	3.25331399e+02
560             	3.25336072e+02
561             	3.25345611e+02
562             	3.25345621e+02
563             	3.25346561e+02
564             	3.25348257e+02
565             	3.25353941e+02
566             	3.25359461e+02
567             	3.25360690e+02
568             	3.25349028e+02
569             	3.25343561e+02
570             	3.25334986e+02
571             	3.25334398e+02
572             	3.25341619e+02
573             	3.25346864e+02
574             	3.25349237e+02
575             	3.25353746e+02
576             	3.25361010e+02
577             	3.25368481e+02
578             	3.25367912e+02
579             	3.25359948e+02
580             	3.25347491e+02
581             	3.25317148e+02
582             	3.25299010e+02
583             	3.25277589e+02
584             	3.25292871e+02
585             	3.25314256e+02
586             	3.25332410e+02
587             	3.25339275e+02
588             	3.25337290e+02
589             	3.25331939e+02
590             	3.25315421e+02
591             	3.25298975e+02
592             	3.25274457e+02
593             	3.25224425e+02
594             	3.25225580e+02
595             	3.25252686e+02
596             	3.25286964e+02
597             	3.25312815e+02
598             	3.25322886e+02
599             	3.25330887e+02
600             	3.25329659e+02
601             	3.25307698e+02
602             	3.25293653e+02
603             	3.25283987e+02
604             	3.25287596e+02
605             	3.25291795e+02
606             	3.25301543e+02
607             	3.25320539e+02
608             	3.25343437e+02
609             	3.25342395e+02
610             	3.25360270e+02
611             	3.25374352e+02
612             	3.25392031e+02
613             	3.25385205e+02
614             	3.25391495e+02
615             	3.25397583e+02
616             	3.25391426e+02
617             	3.25382616e+02
618             	3.25373587e+02
619             	3.25372312e+02
620             	3.25373422e+02
621             	3.25361624e+02
