# Region        : cellZone component_1
# Cells         : 83
# Volume        : 1.34827459e-01
# Time          	volAverage(T)
1               	3.00791175e+02
2               	3.01566595e+02
3               	3.02248713e+02
4               	3.02873930e+02
5               	3.03471847e+02
6               	3.04052293e+02
7               	3.04615422e+02
8               	3.05165830e+02
9               	3.05704923e+02
10              	3.06222479e+02
11              	3.06704863e+02
12              	3.07146402e+02
13              	3.07559782e+02
14              	3.07962714e+02
15              	3.08376046e+02
16              	3.08803737e+02
17              	3.09240414e+02
18              	3.09666916e+02
19              	3.10083373e+02
20              	3.10500743e+02
21              	3.10925318e+02
22              	3.11304153e+02
23              	3.11655836e+02
24              	3.12011941e+02
25              	3.12363783e+02
26              	3.12716374e+02
27              	3.13070653e+02
28              	3.13428721e+02
29              	3.13723530e+02
30              	3.13989583e+02
31              	3.14248996e+02
32              	3.14500989e+02
33              	3.14732099e+02
34              	3.14979658e+02
35              	3.15222869e+02
36              	3.15439846e+02
37              	3.15709907e+02
38              	3.15972319e+02
39              	3.16227221e+02
40              	3.16480831e+02
41              	3.16713505e+02
42              	3.16940100e+02
43              	3.17185364e+02
44              	3.17404816e+02
45              	3.17627081e+02
46              	3.17824501e+02
47              	3.18004728e+02
48              	3.18159845e+02
49              	3.18298510e+02
50              	3.18395175e+02
51              	3.18440339e+02
52              	3.18493860e+02
53              	3.18570628e+02
54              	3.18651463e+02
55              	3.18732385e+02
56              	3.18808208e+02
57              	3.18890309e+02
58              	3.18967844e+02
59              	3.19049639e+02
60              	3.19135937e+02
61              	3.19227178e+02
62              	3.19314735e+02
63              	3.19397107e+02
64              	3.19474808e+02
65              	3.19545443e+02
66              	3.19615897e+02
67              	3.19686044e+02
68              	3.19749350e+02
69              	3.19809264e+02
70              	3.19864201e+02
71              	3.19913508e+02
72              	3.19961734e+02
73              	3.20012776e+02
74              	3.20065004e+02
75              	3.20113848e+02
76              	3.20169525e+02
77              	3.20229217e+02
78              	3.20290469e+02
79              	3.20350490e+02
80              	3.20405962e+02
81              	3.20457883e+02
82              	3.20507007e+02
83              	3.20552120e+02
84              	3.20597840e+02
85              	3.20636453e+02
86              	3.20679023e+02
87              	3.20716379e+02
88              	3.20746211e+02
89              	3.20771512e+02
90              	3.20792054e+02
91              	3.20816383e+02
92              	3.20848745e+02
93              	3.20888901e+02
94              	3.20940201e+02
95              	3.20990811e+02
96              	3.21039055e+02
97              	3.21086874e+02
98              	3.21134263e+02
99              	3.21176228e+02
100             	3.21214045e+02
101             	3.21305903e+02
102             	3.21418963e+02
103             	3.21545362e+02
104             	3.21660567e+02
105             	3.21756179e+02
106             	3.21859973e+02
107             	3.21965418e+02
108             	3.22066610e+02
109             	3.22177271e+02
110             	3.22300712e+02
111             	3.22411218e+02
112             	3.22546079e+02
113             	3.22669165e+02
114             	3.22784987e+02
115             	3.22891347e+02
116             	3.22995001e+02
117             	3.23093806e+02
118             	3.23193201e+02
119             	3.23291800e+02
120             	3.23386592e+02
121             	3.23480243e+02
122             	3.23571543e+02
123             	3.23661421e+02
124             	3.23747394e+02
125             	3.23830632e+02
126             	3.23909082e+02
127             	3.23983492e+02
128             	3.24055173e+02
129             	3.24125096e+02
130             	3.24197226e+02
131             	3.24273094e+02
132             	3.24352816e+02
133             	3.24435689e+02
134             	3.24517133e+02
135             	3.24595421e+02
136             	3.24671493e+02
137             	3.24743053e+02
138             	3.24809602e+02
139             	3.24867939e+02
140             	3.24926800e+02
141             	3.24981947e+02
142             	3.25038965e+02
143             	3.25099048e+02
144             	3.25157718e+02
145             	3.25215417e+02
146             	3.25273291e+02
147             	3.25329643e+02
148             	3.25385191e+02
149             	3.25436765e+02
150             	3.25484364e+02
151             	3.25530090e+02
152             	3.25573694e+02
153             	3.25615015e+02
154             	3.25655183e+02
155             	3.25696515e+02
156             	3.25734586e+02
157             	3.25772729e+02
158             	3.25810408e+02
159             	3.25847373e+02
160             	3.25882982e+02
161             	3.25916559e+02
162             	3.25947050e+02
163             	3.25976103e+02
164             	3.26004452e+02
165             	3.26031807e+02
166             	3.26058282e+02
167             	3.26085257e+02
168             	3.26112729e+02
169             	3.26140387e+02
170             	3.26167238e+02
171             	3.26193040e+02
172             	3.26217515e+02
173             	3.26242064e+02
174             	3.26267796e+02
175             	3.26295696e+02
176             	3.26320825e+02
177             	3.26345764e+02
178             	3.26370132e+02
179             	3.26394016e+02
180             	3.26416848e+02
181             	3.26438621e+02
182             	3.26455682e+02
183             	3.26469253e+02
184             	3.26482166e+02
185             	3.26495046e+02
186             	3.26507826e+02
187             	3.26519980e+02
188             	3.26532639e+02
189             	3.26548974e+02
190             	3.26568015e+02
191             	3.26587091e+02
192             	3.26606286e+02
193             	3.26625579e+02
194             	3.26643823e+02
195             	3.26661540e+02
196             	3.26679555e+02
197             	3.26696408e+02
198             	3.26709445e+02
199             	3.26721268e+02
200             	3.26732691e+02
201             	3.26743266e+02
202             	3.26753636e+02
203             	3.26764289e+02
204             	3.26775537e+02
205             	3.26786632e+02
206             	3.26797640e+02
207             	3.26807271e+02
208             	3.26813103e+02
209             	3.26817316e+02
210             	3.26821469e+02
211             	3.26826693e+02
212             	3.26839185e+02
213             	3.26856887e+02
214             	3.26875049e+02
215             	3.26893283e+02
216             	3.26908643e+02
217             	3.26922815e+02
218             	3.26933156e+02
219             	3.26943100e+02
220             	3.26948482e+02
221             	3.26951990e+02
222             	3.26954964e+02
223             	3.26957542e+02
224             	3.26962214e+02
225             	3.26970675e+02
226             	3.26979749e+02
227             	3.26989582e+02
228             	3.27000240e+02
229             	3.27011542e+02
230             	3.27022669e+02
231             	3.27032455e+02
232             	3.27039735e+02
233             	3.27044059e+02
234             	3.27049133e+02
235             	3.27057745e+02
236             	3.27067569e+02
237             	3.27076090e+02
238             	3.27084795e+02
239             	3.27093737e+02
240             	3.27102211e+02
241             	3.27107559e+02
242             	3.27108529e+02
243             	3.27111589e+02
244             	3.27114973e+02
245             	3.27117455e+02
246             	3.27119206e+02
247             	3.27120967e+02
248             	3.27126243e+02
249             	3.27133813e+02
250             	3.27143692e+02
251             	3.27152531e+02
252             	3.27161370e+02
253             	3.27170292e+02
254             	3.27178920e+02
255             	3.27187118e+02
256             	3.27189242e+02
257             	3.27186988e+02
258             	3.27187135e+02
259             	3.27187042e+02
260             	3.27186185e+02
261             	3.27185022e+02
262             	3.27187990e+02
263             	3.27193411e+02
264             	3.27200982e+02
265             	3.27208645e+02
266             	3.27216278e+02
267             	3.27223780e+02
268             	3.27230805e+02
269             	3.27236554e+02
270             	3.27236225e+02
271             	3.27236524e+02
272             	3.27236478e+02
273             	3.27235031e+02
274             	3.27233025e+02
275             	3.27230888e+02
276             	3.27227561e+02
277             	3.27226451e+02
278             	3.27231730e+02
279             	3.27236950e+02
280             	3.27245107e+02
281             	3.27254655e+02
282             	3.27264335e+02
283             	3.27273514e+02
284             	3.27278732e+02
285             	3.27277863e+02
286             	3.27277973e+02
287             	3.27276840e+02
288             	3.27274510e+02
289             	3.27272132e+02
290             	3.27269536e+02
291             	3.27264554e+02
292             	3.27259641e+02
293             	3.27261794e+02
294             	3.27265599e+02
295             	3.27272608e+02
296             	3.27281326e+02
297             	3.27290939e+02
298             	3.27300870e+02
299             	3.27310467e+02
300             	3.27319386e+02
301             	3.27324198e+02
302             	3.27323717e+02
303             	3.27325829e+02
304             	3.27326837e+02
305             	3.27325323e+02
306             	3.27321952e+02
307             	3.27319949e+02
308             	3.27321283e+02
309             	3.27326705e+02
310             	3.27332300e+02
311             	3.27339158e+02
312             	3.27347088e+02
313             	3.27355164e+02
314             	3.27362803e+02
315             	3.27369267e+02
316             	3.27372943e+02
317             	3.27371249e+02
318             	3.27369351e+02
319             	3.27367061e+02
320             	3.27364224e+02
321             	3.27361069e+02
322             	3.27356365e+02
323             	3.27351865e+02
324             	3.27351658e+02
325             	3.27356807e+02
326             	3.27361391e+02
327             	3.27367432e+02
328             	3.27374543e+02
329             	3.27381003e+02
330             	3.27382983e+02
331             	3.27378806e+02
332             	3.27374987e+02
333             	3.27371281e+02
334             	3.27365768e+02
335             	3.27358559e+02
336             	3.27353672e+02
337             	3.27355040e+02
338             	3.27357140e+02
339             	3.27362507e+02
340             	3.27369592e+02
341             	3.27377037e+02
342             	3.27384486e+02
343             	3.27391531e+02
344             	3.27395869e+02
345             	3.27394806e+02
346             	3.27392280e+02
347             	3.27388348e+02
348             	3.27383428e+02
349             	3.27378791e+02
350             	3.27374327e+02
351             	3.27367951e+02
352             	3.27362461e+02
353             	3.27364160e+02
354             	3.27370613e+02
355             	3.27379180e+02
356             	3.27388527e+02
357             	3.27396972e+02
358             	3.27404851e+02
359             	3.27412897e+02
360             	3.27420006e+02
361             	3.27421921e+02
362             	3.27419499e+02
363             	3.27415228e+02
364             	3.27412021e+02
365             	3.27408212e+02
366             	3.27403334e+02
367             	3.27394343e+02
368             	3.27383054e+02
369             	3.27377467e+02
370             	3.27372422e+02
371             	3.27368171e+02
372             	3.27367852e+02
373             	3.27373853e+02
374             	3.27383867e+02
375             	3.27394904e+02
376             	3.27404942e+02
377             	3.27413183e+02
378             	3.27415778e+02
379             	3.27418380e+02
380             	3.27420661e+02
381             	3.27420921e+02
382             	3.27418957e+02
383             	3.27413730e+02
384             	3.27405054e+02
385             	3.27397531e+02
386             	3.27396461e+02
387             	3.27393876e+02
388             	3.27391454e+02
389             	3.27393048e+02
390             	3.27400111e+02
391             	3.27410317e+02
392             	3.27420720e+02
393             	3.27430271e+02
394             	3.27438573e+02
395             	3.27445033e+02
396             	3.27449488e+02
397             	3.27449450e+02
398             	3.27446095e+02
399             	3.27444382e+02
400             	3.27444181e+02
401             	3.27447032e+02
402             	3.27448191e+02
403             	3.27449123e+02
404             	3.27451941e+02
405             	3.27456450e+02
406             	3.27461559e+02
407             	3.27466646e+02
408             	3.27471293e+02
409             	3.27474344e+02
410             	3.27476095e+02
411             	3.27473334e+02
412             	3.27471193e+02
413             	3.27470069e+02
414             	3.27469965e+02
415             	3.27469793e+02
416             	3.27470073e+02
417             	3.27470920e+02
418             	3.27472097e+02
419             	3.27473641e+02
420             	3.27474725e+02
421             	3.27475420e+02
422             	3.27475640e+02
423             	3.27475554e+02
424             	3.27472129e+02
425             	3.27467247e+02
426             	3.27463455e+02
427             	3.27460454e+02
428             	3.27457429e+02
429             	3.27454361e+02
430             	3.27451435e+02
431             	3.27448953e+02
432             	3.27445434e+02
433             	3.27442863e+02
434             	3.27442170e+02
435             	3.27443571e+02
436             	3.27447401e+02
437             	3.27450214e+02
438             	3.27452642e+02
439             	3.27455437e+02
440             	3.27457622e+02
441             	3.27458595e+02
442             	3.27457018e+02
443             	3.27451929e+02
444             	3.27448433e+02
445             	3.27445706e+02
446             	3.27442936e+02
447             	3.27440274e+02
448             	3.27437800e+02
449             	3.27435940e+02
450             	3.27437084e+02
451             	3.27441152e+02
452             	3.27444100e+02
453             	3.27447463e+02
454             	3.27451309e+02
455             	3.27454767e+02
456             	3.27455273e+02
457             	3.27449679e+02
458             	3.27446847e+02
459             	3.27444078e+02
460             	3.27440231e+02
461             	3.27435798e+02
462             	3.27432396e+02
463             	3.27432714e+02
464             	3.27436994e+02
465             	3.27443264e+02
466             	3.27448671e+02
467             	3.27454250e+02
468             	3.27459524e+02
469             	3.27464336e+02
470             	3.27468253e+02
471             	3.27465305e+02
472             	3.27462243e+02
473             	3.27458442e+02
474             	3.27453096e+02
475             	3.27446995e+02
476             	3.27440293e+02
477             	3.27434678e+02
478             	3.27434838e+02
479             	3.27439370e+02
480             	3.27442579e+02
481             	3.27447323e+02
482             	3.27452517e+02
483             	3.27457674e+02
484             	3.27463346e+02
485             	3.27467819e+02
486             	3.27466475e+02
487             	3.27465547e+02
488             	3.27463848e+02
489             	3.27459739e+02
490             	3.27453410e+02
491             	3.27444579e+02
492             	3.27442239e+02
493             	3.27443367e+02
494             	3.27447265e+02
495             	3.27452990e+02
496             	3.27460202e+02
497             	3.27467971e+02
498             	3.27475995e+02
499             	3.27483567e+02
500             	3.27485597e+02
501             	3.27482386e+02
502             	3.27481498e+02
503             	3.27478071e+02
504             	3.27471052e+02
505             	3.27460597e+02
506             	3.27449796e+02
507             	3.27448574e+02
508             	3.27447671e+02
509             	3.27452082e+02
510             	3.27460641e+02
511             	3.27470858e+02
512             	3.27482295e+02
513             	3.27485711e+02
514             	3.27485061e+02
515             	3.27487986e+02
516             	3.27487726e+02
517             	3.27484663e+02
518             	3.27477127e+02
519             	3.27466674e+02
520             	3.27459634e+02
521             	3.27461167e+02
522             	3.27463964e+02
523             	3.27472569e+02
524             	3.27484484e+02
525             	3.27498910e+02
526             	3.27512089e+02
527             	3.27524131e+02
528             	3.27534959e+02
529             	3.27537768e+02
530             	3.27533092e+02
531             	3.27532813e+02
532             	3.27530040e+02
533             	3.27522850e+02
534             	3.27514413e+02
535             	3.27512572e+02
536             	3.27517816e+02
537             	3.27523929e+02
538             	3.27528765e+02
539             	3.27538031e+02
540             	3.27548298e+02
541             	3.27559531e+02
542             	3.27571129e+02
543             	3.27581356e+02
544             	3.27588243e+02
545             	3.27587459e+02
546             	3.27586740e+02
547             	3.27583876e+02
548             	3.27578339e+02
549             	3.27570818e+02
550             	3.27562876e+02
551             	3.27561578e+02
552             	3.27565941e+02
553             	3.27572704e+02
554             	3.27580137e+02
555             	3.27587891e+02
556             	3.27595408e+02
557             	3.27602436e+02
558             	3.27601442e+02
559             	3.27594950e+02
560             	3.27593139e+02
561             	3.27586247e+02
562             	3.27573905e+02
563             	3.27558092e+02
564             	3.27547465e+02
565             	3.27544955e+02
566             	3.27548668e+02
567             	3.27554715e+02
568             	3.27563772e+02
569             	3.27571518e+02
570             	3.27574432e+02
571             	3.27572957e+02
572             	3.27574202e+02
573             	3.27572792e+02
574             	3.27570237e+02
575             	3.27565305e+02
576             	3.27558732e+02
577             	3.27554503e+02
578             	3.27552146e+02
579             	3.27554688e+02
580             	3.27557715e+02
581             	3.27564542e+02
582             	3.27573435e+02
583             	3.27582592e+02
584             	3.27590983e+02
585             	3.27598766e+02
586             	3.27603407e+02
587             	3.27601348e+02
588             	3.27601764e+02
589             	3.27601054e+02
590             	3.27596399e+02
591             	3.27587019e+02
592             	3.27574732e+02
593             	3.27562853e+02
594             	3.27556994e+02
595             	3.27557978e+02
596             	3.27565020e+02
597             	3.27575055e+02
598             	3.27587511e+02
599             	3.27599479e+02
600             	3.27610680e+02
601             	3.27619739e+02
602             	3.27626576e+02
603             	3.27629144e+02
604             	3.27626385e+02
605             	3.27618622e+02
606             	3.27611739e+02
607             	3.27603084e+02
608             	3.27592827e+02
609             	3.27587661e+02
610             	3.27587897e+02
611             	3.27592774e+02
612             	3.27600340e+02
613             	3.27607997e+02
614             	3.27615939e+02
615             	3.27623248e+02
616             	3.27628985e+02
617             	3.27627440e+02
618             	3.27620403e+02
619             	3.27617797e+02
620             	3.27612562e+02
621             	3.27602666e+02
