# Region        : cellZone fluid
# Cells         : 8170
# Volume        : 1.58231018e+01
# Time          	volAverage(T)
1               	2.99999919e+02
2               	2.99999948e+02
3               	3.00000523e+02
4               	3.00001468e+02
5               	3.00001985e+02
6               	3.00002703e+02
7               	3.00003553e+02
8               	3.00004797e+02
9               	3.00005773e+02
10              	3.00007291e+02
11              	3.00009407e+02
12              	3.00011108e+02
13              	3.00013389e+02
14              	3.00014842e+02
15              	3.00016542e+02
16              	3.00018575e+02
17              	3.00020077e+02
18              	3.00022862e+02
19              	3.00025661e+02
20              	3.00028275e+02
21              	3.00031049e+02
22              	3.00032288e+02
23              	3.00033565e+02
24              	3.00034790e+02
25              	3.00037548e+02
26              	3.00039715e+02
27              	3.00041877e+02
28              	3.00043639e+02
29              	3.00045066e+02
30              	3.00047396e+02
31              	3.00050309e+02
32              	3.00053632e+02
33              	3.00054898e+02
34              	3.00059771e+02
35              	3.00063101e+02
36              	3.00066204e+02
37              	3.00068816e+02
38              	3.00070567e+02
39              	3.00072793e+02
40              	3.00075172e+02
41              	3.00077522e+02
42              	3.00079220e+02
43              	3.00082196e+02
44              	3.00085445e+02
45              	3.00087489e+02
46              	3.00090131e+02
47              	3.00092219e+02
48              	3.00094558e+02
49              	3.00095795e+02
50              	3.00099631e+02
51              	3.00102225e+02
52              	3.00103535e+02
53              	3.00105104e+02
54              	3.00106836e+02
55              	3.00109977e+02
56              	3.00111977e+02
57              	3.00113704e+02
58              	3.00117246e+02
59              	3.00119332e+02
60              	3.00121518e+02
61              	3.00124293e+02
62              	3.00127248e+02
63              	3.00129208e+02
64              	3.00130887e+02
65              	3.00132667e+02
66              	3.00135039e+02
67              	3.00136909e+02
68              	3.00139723e+02
69              	3.00142240e+02
70              	3.00144840e+02
71              	3.00147978e+02
72              	3.00151323e+02
73              	3.00153908e+02
74              	3.00155505e+02
75              	3.00157460e+02
76              	3.00161213e+02
77              	3.00162313e+02
78              	3.00164573e+02
79              	3.00167241e+02
80              	3.00168506e+02
81              	3.00169373e+02
82              	3.00172700e+02
83              	3.00174112e+02
84              	3.00174587e+02
85              	3.00175056e+02
86              	3.00175667e+02
87              	3.00177464e+02
88              	3.00180330e+02
89              	3.00181493e+02
90              	3.00181957e+02
91              	3.00183998e+02
92              	3.00185151e+02
93              	3.00186132e+02
94              	3.00188147e+02
95              	3.00192688e+02
96              	3.00193876e+02
97              	3.00195469e+02
98              	3.00200418e+02
99              	3.00205236e+02
100             	3.00210086e+02
101             	3.00213031e+02
102             	3.00213437e+02
103             	3.00215302e+02
104             	3.00216587e+02
105             	3.00220316e+02
106             	3.00219900e+02
107             	3.00221912e+02
108             	3.00223848e+02
109             	3.00224967e+02
110             	3.00224250e+02
111             	3.00226833e+02
112             	3.00230250e+02
113             	3.00231642e+02
114             	3.00235432e+02
115             	3.00239216e+02
116             	3.00240336e+02
117             	3.00241683e+02
118             	3.00243064e+02
119             	3.00244745e+02
120             	3.00246242e+02
121             	3.00248746e+02
122             	3.00250613e+02
123             	3.00251888e+02
124             	3.00254781e+02
125             	3.00256196e+02
126             	3.00259915e+02
127             	3.00262285e+02
128             	3.00264603e+02
129             	3.00264869e+02
130             	3.00268881e+02
131             	3.00273742e+02
132             	3.00274127e+02
133             	3.00275317e+02
134             	3.00275179e+02
135             	3.00275988e+02
136             	3.00277665e+02
137             	3.00279307e+02
138             	3.00279568e+02
139             	3.00278684e+02
140             	3.00279375e+02
141             	3.00281854e+02
142             	3.00285370e+02
143             	3.00284300e+02
144             	3.00285342e+02
145             	3.00287311e+02
146             	3.00287138e+02
147             	3.00287893e+02
148             	3.00289649e+02
149             	3.00292775e+02
150             	3.00293235e+02
151             	3.00295586e+02
152             	3.00298904e+02
153             	3.00301792e+02
154             	3.00305054e+02
155             	3.00306495e+02
156             	3.00306250e+02
157             	3.00308523e+02
158             	3.00307748e+02
159             	3.00311621e+02
160             	3.00310852e+02
161             	3.00310626e+02
162             	3.00311414e+02
163             	3.00311996e+02
164             	3.00310601e+02
165             	3.00309259e+02
166             	3.00311289e+02
167             	3.00312699e+02
168             	3.00312114e+02
169             	3.00311908e+02
170             	3.00312556e+02
171             	3.00315431e+02
172             	3.00314772e+02
173             	3.00314695e+02
174             	3.00316776e+02
175             	3.00316441e+02
176             	3.00316447e+02
177             	3.00318822e+02
178             	3.00320543e+02
179             	3.00320300e+02
180             	3.00320479e+02
181             	3.00322600e+02
182             	3.00324391e+02
183             	3.00325750e+02
184             	3.00325029e+02
185             	3.00325708e+02
186             	3.00328839e+02
187             	3.00327166e+02
188             	3.00327211e+02
189             	3.00327341e+02
190             	3.00326475e+02
191             	3.00326698e+02
192             	3.00326103e+02
193             	3.00327599e+02
194             	3.00328529e+02
195             	3.00329091e+02
196             	3.00329338e+02
197             	3.00329189e+02
198             	3.00329711e+02
199             	3.00330567e+02
200             	3.00331129e+02
201             	3.00330856e+02
202             	3.00330769e+02
203             	3.00330521e+02
204             	3.00330559e+02
205             	3.00330902e+02
206             	3.00331220e+02
207             	3.00332129e+02
208             	3.00333055e+02
209             	3.00333460e+02
210             	3.00333986e+02
211             	3.00334023e+02
212             	3.00334869e+02
213             	3.00335533e+02
214             	3.00336511e+02
215             	3.00337539e+02
216             	3.00338991e+02
217             	3.00339657e+02
218             	3.00340166e+02
219             	3.00340415e+02
220             	3.00340208e+02
221             	3.00340716e+02
222             	3.00340809e+02
223             	3.00341025e+02
224             	3.00341331e+02
225             	3.00342481e+02
226             	3.00342330e+02
227             	3.00343102e+02
228             	3.00343163e+02
229             	3.00343095e+02
230             	3.00343570e+02
231             	3.00343493e+02
232             	3.00342713e+02
233             	3.00341837e+02
234             	3.00341356e+02
235             	3.00340946e+02
236             	3.00340800e+02
237             	3.00340961e+02
238             	3.00341355e+02
239             	3.00342410e+02
240             	3.00343342e+02
241             	3.00344645e+02
242             	3.00345177e+02
243             	3.00346027e+02
244             	3.00346259e+02
245             	3.00346266e+02
246             	3.00346350e+02
247             	3.00346171e+02
248             	3.00345825e+02
249             	3.00347023e+02
250             	3.00347753e+02
251             	3.00348595e+02
252             	3.00348938e+02
253             	3.00349524e+02
254             	3.00349211e+02
255             	3.00349451e+02
256             	3.00349179e+02
257             	3.00349013e+02
258             	3.00348869e+02
259             	3.00349002e+02
260             	3.00348935e+02
261             	3.00349638e+02
262             	3.00350026e+02
263             	3.00350353e+02
264             	3.00350821e+02
265             	3.00351867e+02
266             	3.00353520e+02
267             	3.00355465e+02
268             	3.00354039e+02
269             	3.00354232e+02
270             	3.00354582e+02
271             	3.00354127e+02
272             	3.00353832e+02
273             	3.00353478e+02
274             	3.00356048e+02
275             	3.00357796e+02
276             	3.00358239e+02
277             	3.00359100e+02
278             	3.00361570e+02
279             	3.00364295e+02
280             	3.00367606e+02
281             	3.00368070e+02
282             	3.00367891e+02
283             	3.00366965e+02
284             	3.00367364e+02
285             	3.00366702e+02
286             	3.00365914e+02
287             	3.00364965e+02
288             	3.00365399e+02
289             	3.00367769e+02
290             	3.00367721e+02
291             	3.00368298e+02
292             	3.00369151e+02
293             	3.00370202e+02
294             	3.00371043e+02
295             	3.00372206e+02
296             	3.00372955e+02
297             	3.00373997e+02
298             	3.00374198e+02
299             	3.00374919e+02
300             	3.00375281e+02
301             	3.00374310e+02
302             	3.00373109e+02
303             	3.00372818e+02
304             	3.00372750e+02
305             	3.00374812e+02
306             	3.00375448e+02
307             	3.00376263e+02
308             	3.00376688e+02
309             	3.00377648e+02
310             	3.00378615e+02
311             	3.00379792e+02
312             	3.00380050e+02
313             	3.00379919e+02
314             	3.00379292e+02
315             	3.00378760e+02
316             	3.00378895e+02
317             	3.00379910e+02
318             	3.00380628e+02
319             	3.00382531e+02
320             	3.00384104e+02
321             	3.00386688e+02
322             	3.00384796e+02
323             	3.00386673e+02
324             	3.00386765e+02
325             	3.00386803e+02
326             	3.00386734e+02
327             	3.00386458e+02
328             	3.00387184e+02
329             	3.00388885e+02
330             	3.00390704e+02
331             	3.00391364e+02
332             	3.00392375e+02
333             	3.00393921e+02
334             	3.00396193e+02
335             	3.00397574e+02
336             	3.00399235e+02
337             	3.00399696e+02
338             	3.00399466e+02
339             	3.00399084e+02
340             	3.00399879e+02
341             	3.00399679e+02
342             	3.00400013e+02
343             	3.00400211e+02
344             	3.00401804e+02
345             	3.00404046e+02
346             	3.00404139e+02
347             	3.00404254e+02
348             	3.00404634e+02
349             	3.00405448e+02
350             	3.00406507e+02
351             	3.00407146e+02
352             	3.00408434e+02
353             	3.00409422e+02
354             	3.00408419e+02
355             	3.00409358e+02
356             	3.00410192e+02
357             	3.00410846e+02
358             	3.00411237e+02
359             	3.00411204e+02
360             	3.00410627e+02
361             	3.00410417e+02
362             	3.00410905e+02
363             	3.00411550e+02
364             	3.00412394e+02
365             	3.00414199e+02
366             	3.00415016e+02
367             	3.00417802e+02
368             	3.00419239e+02
369             	3.00420812e+02
370             	3.00420624e+02
371             	3.00420921e+02
372             	3.00420057e+02
373             	3.00419694e+02
374             	3.00419659e+02
375             	3.00419434e+02
376             	3.00420075e+02
377             	3.00419714e+02
378             	3.00420168e+02
379             	3.00420661e+02
380             	3.00420318e+02
381             	3.00420228e+02
382             	3.00420332e+02
383             	3.00420768e+02
384             	3.00421484e+02
385             	3.00422202e+02
386             	3.00423010e+02
387             	3.00423157e+02
388             	3.00423056e+02
389             	3.00422802e+02
390             	3.00422394e+02
391             	3.00421929e+02
392             	3.00422202e+02
393             	3.00422606e+02
394             	3.00423100e+02
395             	3.00423878e+02
396             	3.00425396e+02
397             	3.00427438e+02
398             	3.00428640e+02
399             	3.00430243e+02
400             	3.00430925e+02
401             	3.00431296e+02
402             	3.00431053e+02
403             	3.00430912e+02
404             	3.00430999e+02
405             	3.00431087e+02
406             	3.00431051e+02
407             	3.00431098e+02
408             	3.00431654e+02
409             	3.00431801e+02
410             	3.00431682e+02
411             	3.00432911e+02
412             	3.00433036e+02
413             	3.00433180e+02
414             	3.00433493e+02
415             	3.00433907e+02
416             	3.00434180e+02
417             	3.00434498e+02
418             	3.00434784e+02
419             	3.00434962e+02
420             	3.00435118e+02
421             	3.00435419e+02
422             	3.00435594e+02
423             	3.00435789e+02
424             	3.00435939e+02
425             	3.00435935e+02
426             	3.00435966e+02
427             	3.00435831e+02
428             	3.00435323e+02
429             	3.00435779e+02
430             	3.00436244e+02
431             	3.00436679e+02
432             	3.00437031e+02
433             	3.00437563e+02
434             	3.00437604e+02
435             	3.00437681e+02
436             	3.00437890e+02
437             	3.00438094e+02
438             	3.00438144e+02
439             	3.00438177e+02
440             	3.00438184e+02
441             	3.00438170e+02
442             	3.00438789e+02
443             	3.00438714e+02
444             	3.00438995e+02
445             	3.00439395e+02
446             	3.00439785e+02
447             	3.00440408e+02
448             	3.00440971e+02
449             	3.00441339e+02
450             	3.00441757e+02
451             	3.00442195e+02
452             	3.00442449e+02
453             	3.00442821e+02
454             	3.00443270e+02
455             	3.00443559e+02
456             	3.00443696e+02
457             	3.00444160e+02
458             	3.00444532e+02
459             	3.00444819e+02
460             	3.00444835e+02
461             	3.00445105e+02
462             	3.00445136e+02
463             	3.00445076e+02
464             	3.00444871e+02
465             	3.00444566e+02
466             	3.00444616e+02
467             	3.00444396e+02
468             	3.00444765e+02
469             	3.00445089e+02
470             	3.00445506e+02
471             	3.00445787e+02
472             	3.00446054e+02
473             	3.00446293e+02
474             	3.00446410e+02
475             	3.00446431e+02
476             	3.00446377e+02
477             	3.00446344e+02
478             	3.00446372e+02
479             	3.00446470e+02
480             	3.00446726e+02
481             	3.00446489e+02
482             	3.00447009e+02
483             	3.00446996e+02
484             	3.00447088e+02
485             	3.00446700e+02
486             	3.00446938e+02
487             	3.00446895e+02
488             	3.00446693e+02
489             	3.00446205e+02
490             	3.00445691e+02
491             	3.00445449e+02
492             	3.00445492e+02
493             	3.00445684e+02
494             	3.00445565e+02
495             	3.00445857e+02
496             	3.00445848e+02
497             	3.00446080e+02
498             	3.00446309e+02
499             	3.00446478e+02
500             	3.00446527e+02
501             	3.00446510e+02
502             	3.00446823e+02
503             	3.00447033e+02
504             	3.00447310e+02
505             	3.00447784e+02
506             	3.00448482e+02
507             	3.00448837e+02
508             	3.00449147e+02
509             	3.00449434e+02
510             	3.00449660e+02
511             	3.00449702e+02
512             	3.00449857e+02
513             	3.00450086e+02
514             	3.00450454e+02
515             	3.00450634e+02
516             	3.00451015e+02
517             	3.00451445e+02
518             	3.00451803e+02
519             	3.00451781e+02
520             	3.00452280e+02
521             	3.00452403e+02
522             	3.00452313e+02
523             	3.00452001e+02
524             	3.00451561e+02
525             	3.00451594e+02
526             	3.00451657e+02
527             	3.00451612e+02
528             	3.00451676e+02
529             	3.00451744e+02
530             	3.00451945e+02
531             	3.00451740e+02
532             	3.00451441e+02
533             	3.00451122e+02
534             	3.00450794e+02
535             	3.00450678e+02
536             	3.00450771e+02
537             	3.00450419e+02
538             	3.00450256e+02
539             	3.00450205e+02
540             	3.00450343e+02
541             	3.00450503e+02
542             	3.00450575e+02
543             	3.00450660e+02
544             	3.00450682e+02
545             	3.00450716e+02
546             	3.00450748e+02
547             	3.00450818e+02
548             	3.00450388e+02
549             	3.00450784e+02
550             	3.00451010e+02
551             	3.00451239e+02
552             	3.00451431e+02
553             	3.00451636e+02
554             	3.00451765e+02
555             	3.00451812e+02
556             	3.00452729e+02
557             	3.00452661e+02
558             	3.00452732e+02
559             	3.00452972e+02
560             	3.00453315e+02
561             	3.00453574e+02
562             	3.00454121e+02
563             	3.00454618e+02
564             	3.00455145e+02
565             	3.00455562e+02
566             	3.00455117e+02
567             	3.00454576e+02
568             	3.00454726e+02
569             	3.00454538e+02
570             	3.00453950e+02
571             	3.00453794e+02
572             	3.00453922e+02
573             	3.00454532e+02
574             	3.00454219e+02
575             	3.00454111e+02
576             	3.00454458e+02
577             	3.00455216e+02
578             	3.00455331e+02
579             	3.00455547e+02
580             	3.00455070e+02
581             	3.00454594e+02
582             	3.00453693e+02
583             	3.00453716e+02
584             	3.00452947e+02
585             	3.00452301e+02
586             	3.00451693e+02
587             	3.00451734e+02
588             	3.00451666e+02
589             	3.00452312e+02
590             	3.00453138e+02
591             	3.00452755e+02
592             	3.00452709e+02
593             	3.00452811e+02
594             	3.00452994e+02
595             	3.00453389e+02
596             	3.00453770e+02
597             	3.00454279e+02
598             	3.00454460e+02
599             	3.00454599e+02
600             	3.00455495e+02
601             	3.00455943e+02
602             	3.00455845e+02
603             	3.00456043e+02
604             	3.00456031e+02
605             	3.00455826e+02
606             	3.00455600e+02
607             	3.00455400e+02
608             	3.00455463e+02
609             	3.00455545e+02
610             	3.00455456e+02
611             	3.00455341e+02
612             	3.00455350e+02
613             	3.00456043e+02
614             	3.00455833e+02
615             	3.00455624e+02
616             	3.00455527e+02
617             	3.00455436e+02
618             	3.00455390e+02
619             	3.00455260e+02
620             	3.00455184e+02
621             	3.00454434e+02
