# Region        : cellZone pcb
# Cells         : 655
# Volume        : 1.23200966e+00
# Time          	volAverage(T)
1               	3.00005254e+02
2               	3.00015294e+02
3               	3.00029353e+02
4               	3.00046947e+02
5               	3.00067457e+02
6               	3.00090809e+02
7               	3.00117052e+02
8               	3.00146117e+02
9               	3.00177810e+02
10              	3.00212041e+02
11              	3.00248964e+02
12              	3.00288020e+02
13              	3.00329378e+02
14              	3.00373005e+02
15              	3.00417627e+02
16              	3.00464121e+02
17              	3.00512514e+02
18              	3.00561353e+02
19              	3.00610911e+02
20              	3.00662637e+02
21              	3.00716628e+02
22              	3.00772570e+02
23              	3.00830594e+02
24              	3.00889526e+02
25              	3.00950108e+02
26              	3.01010550e+02
27              	3.01072689e+02
28              	3.01136339e+02
29              	3.01200572e+02
30              	3.01264249e+02
31              	3.01327966e+02
32              	3.01391801e+02
33              	3.01455993e+02
34              	3.01520368e+02
35              	3.01584083e+02
36              	3.01648657e+02
37              	3.01712673e+02
38              	3.01776233e+02
39              	3.01841049e+02
40              	3.01906624e+02
41              	3.01972116e+02
42              	3.02037380e+02
43              	3.02103243e+02
44              	3.02170191e+02
45              	3.02238161e+02
46              	3.02306197e+02
47              	3.02373590e+02
48              	3.02440036e+02
49              	3.02506891e+02
50              	3.02572360e+02
51              	3.02637681e+02
52              	3.02704400e+02
53              	3.02770310e+02
54              	3.02837337e+02
55              	3.02905744e+02
56              	3.02971812e+02
57              	3.03035661e+02
58              	3.03100293e+02
59              	3.03165909e+02
60              	3.03230206e+02
61              	3.03293669e+02
62              	3.03356853e+02
63              	3.03419662e+02
64              	3.03482089e+02
65              	3.03543492e+02
66              	3.03606188e+02
67              	3.03669348e+02
68              	3.03733027e+02
69              	3.03796116e+02
70              	3.03859273e+02
71              	3.03921168e+02
72              	3.03982110e+02
73              	3.04041537e+02
74              	3.04100530e+02
75              	3.04160846e+02
76              	3.04221739e+02
77              	3.04280455e+02
78              	3.04338799e+02
79              	3.04397486e+02
80              	3.04456232e+02
81              	3.04514082e+02
82              	3.04571805e+02
83              	3.04630321e+02
84              	3.04687109e+02
85              	3.04743997e+02
86              	3.04800893e+02
87              	3.04858507e+02
88              	3.04915725e+02
89              	3.04970416e+02
90              	3.05022937e+02
91              	3.05075860e+02
92              	3.05129512e+02
93              	3.05183881e+02
94              	3.05237741e+02
95              	3.05291604e+02
96              	3.05345130e+02
97              	3.05398230e+02
98              	3.05450049e+02
99              	3.05499706e+02
100             	3.05550816e+02
101             	3.05601965e+02
102             	3.05652285e+02
103             	3.05703267e+02
104             	3.05754687e+02
105             	3.05806474e+02
106             	3.05857705e+02
107             	3.05907072e+02
108             	3.05955180e+02
109             	3.06003858e+02
110             	3.06052944e+02
111             	3.06100995e+02
112             	3.06148598e+02
113             	3.06196753e+02
114             	3.06244615e+02
115             	3.06291057e+02
116             	3.06336646e+02
117             	3.06381885e+02
118             	3.06427122e+02
119             	3.06472540e+02
120             	3.06518248e+02
121             	3.06563029e+02
122             	3.06607527e+02
123             	3.06651491e+02
124             	3.06695215e+02
125             	3.06738357e+02
126             	3.06781368e+02
127             	3.06823702e+02
128             	3.06865869e+02
129             	3.06906585e+02
130             	3.06947335e+02
131             	3.06988184e+02
132             	3.07029233e+02
133             	3.07070219e+02
134             	3.07111176e+02
135             	3.07152284e+02
136             	3.07193183e+02
137             	3.07233402e+02
138             	3.07272632e+02
139             	3.07310987e+02
140             	3.07348904e+02
141             	3.07386420e+02
142             	3.07423661e+02
143             	3.07460874e+02
144             	3.07498110e+02
145             	3.07535491e+02
146             	3.07572317e+02
147             	3.07609170e+02
148             	3.07646133e+02
149             	3.07682848e+02
150             	3.07718912e+02
151             	3.07754575e+02
152             	3.07789773e+02
153             	3.07824494e+02
154             	3.07858806e+02
155             	3.07892836e+02
156             	3.07926645e+02
157             	3.07960254e+02
158             	3.07993652e+02
159             	3.08026825e+02
160             	3.08059737e+02
161             	3.08092404e+02
162             	3.08124789e+02
163             	3.08156838e+02
164             	3.08188935e+02
165             	3.08220541e+02
166             	3.08251685e+02
167             	3.08282569e+02
168             	3.08313209e+02
169             	3.08343601e+02
170             	3.08373731e+02
171             	3.08403610e+02
172             	3.08433375e+02
173             	3.08462835e+02
174             	3.08491915e+02
175             	3.08520672e+02
176             	3.08549495e+02
177             	3.08578118e+02
178             	3.08606553e+02
179             	3.08634736e+02
180             	3.08662629e+02
181             	3.08690204e+02
182             	3.08717695e+02
183             	3.08744931e+02
184             	3.08771921e+02
185             	3.08798780e+02
186             	3.08825288e+02
187             	3.08851568e+02
188             	3.08877574e+02
189             	3.08903289e+02
190             	3.08928832e+02
191             	3.08954195e+02
192             	3.08979380e+02
193             	3.09004416e+02
194             	3.09029251e+02
195             	3.09053907e+02
196             	3.09078485e+02
197             	3.09102847e+02
198             	3.09127145e+02
199             	3.09151165e+02
200             	3.09174945e+02
201             	3.09198670e+02
202             	3.09222150e+02
203             	3.09245404e+02
204             	3.09268369e+02
205             	3.09291081e+02
206             	3.09313516e+02
207             	3.09335680e+02
208             	3.09357980e+02
209             	3.09379941e+02
210             	3.09401566e+02
211             	3.09422993e+02
212             	3.09444302e+02
213             	3.09465481e+02
214             	3.09486442e+02
215             	3.09507159e+02
216             	3.09527745e+02
217             	3.09548117e+02
218             	3.09568308e+02
219             	3.09588263e+02
220             	3.09608015e+02
221             	3.09627734e+02
222             	3.09647266e+02
223             	3.09666607e+02
224             	3.09686006e+02
225             	3.09705265e+02
226             	3.09724405e+02
227             	3.09743423e+02
228             	3.09762331e+02
229             	3.09781061e+02
230             	3.09799526e+02
231             	3.09817691e+02
232             	3.09835628e+02
233             	3.09853427e+02
234             	3.09871134e+02
235             	3.09888695e+02
236             	3.09906065e+02
237             	3.09923247e+02
238             	3.09940333e+02
239             	3.09957346e+02
240             	3.09974293e+02
241             	3.09991140e+02
242             	3.10007693e+02
243             	3.10024137e+02
244             	3.10040574e+02
245             	3.10056984e+02
246             	3.10073204e+02
247             	3.10089214e+02
248             	3.10105106e+02
249             	3.10120842e+02
250             	3.10136448e+02
251             	3.10151947e+02
252             	3.10167317e+02
253             	3.10182647e+02
254             	3.10197839e+02
255             	3.10212773e+02
256             	3.10227444e+02
257             	3.10241919e+02
258             	3.10256248e+02
259             	3.10270455e+02
260             	3.10284558e+02
261             	3.10298577e+02
262             	3.10312550e+02
263             	3.10326420e+02
264             	3.10340168e+02
265             	3.10353792e+02
266             	3.10367280e+02
267             	3.10380544e+02
268             	3.10393518e+02
269             	3.10406447e+02
270             	3.10419389e+02
271             	3.10432288e+02
272             	3.10445093e+02
273             	3.10457835e+02
274             	3.10470444e+02
275             	3.10483023e+02
276             	3.10495698e+02
277             	3.10507981e+02
278             	3.10520108e+02
279             	3.10532135e+02
280             	3.10544074e+02
281             	3.10555938e+02
282             	3.10567729e+02
283             	3.10579484e+02
284             	3.10591222e+02
285             	3.10602847e+02
286             	3.10614437e+02
287             	3.10625992e+02
288             	3.10637342e+02
289             	3.10648574e+02
290             	3.10659595e+02
291             	3.10670534e+02
292             	3.10681470e+02
293             	3.10692284e+02
294             	3.10703014e+02
295             	3.10713644e+02
296             	3.10724198e+02
297             	3.10734675e+02
298             	3.10745048e+02
299             	3.10755301e+02
300             	3.10765402e+02
301             	3.10775393e+02
302             	3.10785249e+02
303             	3.10794985e+02
304             	3.10804689e+02
305             	3.10814329e+02
306             	3.10823921e+02
307             	3.10833444e+02
308             	3.10842862e+02
309             	3.10852177e+02
310             	3.10861371e+02
311             	3.10870440e+02
312             	3.10879401e+02
313             	3.10888307e+02
314             	3.10897143e+02
315             	3.10905897e+02
316             	3.10914575e+02
317             	3.10923222e+02
318             	3.10931828e+02
319             	3.10940383e+02
320             	3.10948897e+02
321             	3.10957318e+02
322             	3.10965739e+02
323             	3.10974121e+02
324             	3.10982451e+02
325             	3.10990727e+02
326             	3.10998955e+02
327             	3.11007094e+02
328             	3.11015159e+02
329             	3.11023091e+02
330             	3.11030948e+02
331             	3.11038628e+02
332             	3.11046206e+02
333             	3.11053761e+02
334             	3.11061259e+02
335             	3.11068736e+02
336             	3.11076099e+02
337             	3.11083409e+02
338             	3.11090696e+02
339             	3.11097963e+02
340             	3.11105199e+02
341             	3.11112390e+02
342             	3.11119539e+02
343             	3.11126624e+02
344             	3.11133617e+02
345             	3.11140513e+02
346             	3.11147309e+02
347             	3.11154012e+02
348             	3.11160629e+02
349             	3.11167158e+02
350             	3.11173612e+02
351             	3.11179995e+02
352             	3.11186311e+02
353             	3.11192565e+02
354             	3.11198768e+02
355             	3.11204910e+02
356             	3.11210995e+02
357             	3.11217026e+02
358             	3.11223007e+02
359             	3.11228945e+02
360             	3.11234848e+02
361             	3.11240727e+02
362             	3.11246592e+02
363             	3.11252434e+02
364             	3.11258278e+02
365             	3.11264084e+02
366             	3.11269885e+02
367             	3.11275656e+02
368             	3.11281370e+02
369             	3.11287032e+02
370             	3.11292613e+02
371             	3.11298063e+02
372             	3.11303507e+02
373             	3.11308855e+02
374             	3.11314144e+02
375             	3.11319357e+02
376             	3.11324531e+02
377             	3.11329633e+02
378             	3.11334719e+02
379             	3.11339820e+02
380             	3.11344820e+02
381             	3.11349733e+02
382             	3.11354615e+02
383             	3.11359479e+02
384             	3.11364328e+02
385             	3.11369159e+02
386             	3.11373972e+02
387             	3.11378774e+02
388             	3.11383552e+02
389             	3.11388301e+02
390             	3.11393009e+02
391             	3.11397667e+02
392             	3.11402222e+02
393             	3.11406573e+02
394             	3.11410771e+02
395             	3.11415014e+02
396             	3.11419292e+02
397             	3.11423542e+02
398             	3.11427775e+02
399             	3.11431956e+02
400             	3.11436169e+02
401             	3.11440396e+02
402             	3.11444507e+02
403             	3.11448479e+02
404             	3.11452372e+02
405             	3.11456186e+02
406             	3.11459978e+02
407             	3.11463774e+02
408             	3.11467574e+02
409             	3.11471372e+02
410             	3.11475237e+02
411             	3.11479093e+02
412             	3.11482964e+02
413             	3.11486863e+02
414             	3.11490755e+02
415             	3.11494646e+02
416             	3.11498500e+02
417             	3.11502282e+02
418             	3.11506004e+02
419             	3.11509679e+02
420             	3.11513290e+02
421             	3.11516764e+02
422             	3.11520125e+02
423             	3.11523476e+02
424             	3.11526835e+02
425             	3.11530202e+02
426             	3.11533507e+02
427             	3.11536854e+02
428             	3.11540234e+02
429             	3.11543636e+02
430             	3.11547024e+02
431             	3.11550356e+02
432             	3.11553573e+02
433             	3.11556620e+02
434             	3.11559548e+02
435             	3.11562408e+02
436             	3.11565266e+02
437             	3.11568178e+02
438             	3.11571047e+02
439             	3.11573890e+02
440             	3.11576779e+02
441             	3.11579707e+02
442             	3.11582678e+02
443             	3.11585660e+02
444             	3.11588604e+02
445             	3.11591466e+02
446             	3.11594227e+02
447             	3.11596935e+02
448             	3.11599596e+02
449             	3.11602219e+02
450             	3.11604843e+02
451             	3.11607476e+02
452             	3.11610102e+02
453             	3.11612720e+02
454             	3.11615317e+02
455             	3.11617899e+02
456             	3.11620487e+02
457             	3.11623094e+02
458             	3.11625658e+02
459             	3.11628217e+02
460             	3.11630783e+02
461             	3.11633350e+02
462             	3.11635901e+02
463             	3.11638438e+02
464             	3.11640958e+02
465             	3.11643453e+02
466             	3.11645908e+02
467             	3.11648270e+02
468             	3.11650591e+02
469             	3.11652899e+02
470             	3.11655174e+02
471             	3.11657419e+02
472             	3.11659654e+02
473             	3.11661882e+02
474             	3.11664081e+02
475             	3.11666268e+02
476             	3.11668459e+02
477             	3.11670649e+02
478             	3.11672819e+02
479             	3.11674968e+02
480             	3.11677099e+02
481             	3.11679206e+02
482             	3.11681283e+02
483             	3.11683327e+02
484             	3.11685340e+02
485             	3.11687305e+02
486             	3.11689226e+02
487             	3.11691110e+02
488             	3.11692960e+02
489             	3.11694782e+02
490             	3.11696576e+02
491             	3.11698341e+02
492             	3.11700083e+02
493             	3.11701802e+02
494             	3.11703514e+02
495             	3.11705251e+02
496             	3.11706998e+02
497             	3.11708741e+02
498             	3.11710481e+02
499             	3.11712244e+02
500             	3.11714027e+02
501             	3.11715797e+02
502             	3.11717558e+02
503             	3.11719300e+02
504             	3.11721060e+02
505             	3.11722829e+02
506             	3.11724613e+02
507             	3.11726386e+02
508             	3.11728113e+02
509             	3.11729782e+02
510             	3.11731411e+02
511             	3.11733021e+02
512             	3.11734606e+02
513             	3.11736162e+02
514             	3.11737699e+02
515             	3.11739219e+02
516             	3.11740739e+02
517             	3.11742264e+02
518             	3.11743788e+02
519             	3.11745299e+02
520             	3.11746792e+02
521             	3.11748279e+02
522             	3.11749752e+02
523             	3.11751212e+02
524             	3.11752628e+02
525             	3.11753973e+02
526             	3.11755239e+02
527             	3.11756492e+02
528             	3.11757733e+02
529             	3.11758953e+02
530             	3.11760187e+02
531             	3.11761434e+02
532             	3.11762657e+02
533             	3.11763882e+02
534             	3.11765123e+02
535             	3.11766367e+02
536             	3.11767611e+02
537             	3.11768869e+02
538             	3.11770138e+02
539             	3.11771399e+02
540             	3.11772637e+02
541             	3.11773857e+02
542             	3.11775033e+02
543             	3.11776199e+02
544             	3.11777345e+02
545             	3.11778517e+02
546             	3.11779693e+02
547             	3.11780862e+02
548             	3.11782002e+02
549             	3.11783208e+02
550             	3.11784373e+02
551             	3.11785516e+02
552             	3.11786762e+02
553             	3.11788080e+02
554             	3.11789402e+02
555             	3.11790705e+02
556             	3.11791963e+02
557             	3.11793149e+02
558             	3.11794242e+02
559             	3.11795250e+02
560             	3.11796193e+02
561             	3.11797098e+02
562             	3.11797978e+02
563             	3.11798834e+02
564             	3.11799679e+02
565             	3.11800521e+02
566             	3.11801398e+02
567             	3.11802340e+02
568             	3.11803296e+02
569             	3.11804252e+02
570             	3.11805229e+02
571             	3.11806214e+02
572             	3.11807192e+02
573             	3.11808145e+02
574             	3.11809056e+02
575             	3.11809902e+02
576             	3.11810702e+02
577             	3.11811450e+02
578             	3.11812203e+02
579             	3.11812964e+02
580             	3.11813704e+02
581             	3.11814436e+02
582             	3.11815162e+02
583             	3.11815884e+02
584             	3.11816610e+02
585             	3.11817345e+02
586             	3.11818096e+02
587             	3.11818886e+02
588             	3.11819768e+02
589             	3.11820670e+02
590             	3.11821583e+02
591             	3.11822544e+02
592             	3.11823535e+02
593             	3.11824511e+02
594             	3.11825447e+02
595             	3.11826345e+02
596             	3.11827214e+02
597             	3.11828047e+02
598             	3.11828817e+02
599             	3.11829552e+02
600             	3.11830269e+02
601             	3.11830970e+02
602             	3.11831661e+02
603             	3.11832344e+02
604             	3.11833033e+02
605             	3.11833753e+02
606             	3.11834515e+02
607             	3.11835252e+02
608             	3.11835972e+02
609             	3.11836695e+02
610             	3.11837404e+02
611             	3.11838063e+02
612             	3.11838671e+02
613             	3.11839231e+02
614             	3.11839737e+02
615             	3.11840195e+02
616             	3.11840642e+02
617             	3.11841095e+02
618             	3.11841555e+02
619             	3.11842026e+02
620             	3.11842512e+02
621             	3.11843017e+02
