# Region        : cellZone component_2
# Cells         : 12
# Volume        : 1.61632671e-02
# Time          	volAverage(T)
1               	3.06950098e+02
2               	3.13703765e+02
3               	3.18627125e+02
4               	3.22491823e+02
5               	3.25900764e+02
6               	3.28942365e+02
7               	3.31835620e+02
8               	3.34475336e+02
9               	3.37053856e+02
10              	3.39475713e+02
11              	3.41587007e+02
12              	3.43761851e+02
13              	3.45818792e+02
14              	3.47836128e+02
15              	3.49763256e+02
16              	3.51279594e+02
17              	3.52997885e+02
18              	3.54849887e+02
19              	3.56735821e+02
20              	3.58493245e+02
21              	3.60084406e+02
22              	3.61491056e+02
23              	3.62626009e+02
24              	3.63413432e+02
25              	3.64171811e+02
26              	3.64632339e+02
27              	3.64916473e+02
28              	3.65119550e+02
29              	3.65015211e+02
30              	3.64884132e+02
31              	3.64658695e+02
32              	3.64433735e+02
33              	3.64190349e+02
34              	3.63627447e+02
35              	3.62698387e+02
36              	3.61955879e+02
37              	3.61386594e+02
38              	3.60781501e+02
39              	3.60450594e+02
40              	3.60290684e+02
41              	3.60310507e+02
42              	3.60433360e+02
43              	3.60576572e+02
44              	3.60646500e+02
45              	3.60341734e+02
46              	3.60068672e+02
47              	3.59880241e+02
48              	3.59764392e+02
49              	3.59550098e+02
50              	3.59291959e+02
51              	3.59016947e+02
52              	3.58808979e+02
53              	3.58848372e+02
54              	3.58987237e+02
55              	3.59228439e+02
56              	3.59525567e+02
57              	3.59708005e+02
58              	3.60118393e+02
59              	3.60492453e+02
60              	3.60721424e+02
61              	3.61008914e+02
62              	3.60951832e+02
63              	3.60681137e+02
64              	3.60299108e+02
65              	3.60058272e+02
66              	3.59913915e+02
67              	3.59849373e+02
68              	3.59580612e+02
69              	3.59421355e+02
70              	3.59323540e+02
71              	3.59287405e+02
72              	3.59403719e+02
73              	3.59742318e+02
74              	3.60142257e+02
75              	3.60231853e+02
76              	3.60298564e+02
77              	3.60143357e+02
78              	3.59791198e+02
79              	3.59349915e+02
80              	3.58899053e+02
81              	3.58668992e+02
82              	3.58544495e+02
83              	3.58827158e+02
84              	3.59169264e+02
85              	3.59489825e+02
86              	3.59695540e+02
87              	3.60049511e+02
88              	3.60498949e+02
89              	3.60898374e+02
90              	3.61281862e+02
91              	3.61587068e+02
92              	3.61495584e+02
93              	3.61340530e+02
94              	3.60962244e+02
95              	3.60896611e+02
96              	3.60796177e+02
97              	3.60940818e+02
98              	3.60915366e+02
99              	3.60986971e+02
100             	3.61172911e+02
101             	3.61531994e+02
102             	3.62001724e+02
103             	3.62560421e+02
104             	3.62984256e+02
105             	3.63122901e+02
106             	3.63276064e+02
107             	3.63002297e+02
108             	3.62646283e+02
109             	3.62234883e+02
110             	3.62105796e+02
111             	3.61815302e+02
112             	3.61605691e+02
113             	3.61539890e+02
114             	3.61533596e+02
115             	3.61701946e+02
116             	3.61901257e+02
117             	3.62163298e+02
118             	3.62395755e+02
119             	3.62534657e+02
120             	3.62630555e+02
121             	3.62394469e+02
122             	3.62179163e+02
123             	3.61795555e+02
124             	3.61576915e+02
125             	3.61348649e+02
126             	3.61168996e+02
127             	3.61174689e+02
128             	3.61288664e+02
129             	3.61464957e+02
130             	3.61790361e+02
131             	3.62201510e+02
132             	3.62681446e+02
133             	3.63115883e+02
134             	3.63457062e+02
135             	3.63753463e+02
136             	3.63826441e+02
137             	3.63893740e+02
138             	3.63859428e+02
139             	3.63949203e+02
140             	3.63870906e+02
141             	3.64057223e+02
142             	3.64348388e+02
143             	3.64675366e+02
144             	3.65091491e+02
145             	3.65585114e+02
146             	3.66158713e+02
147             	3.66780867e+02
148             	3.67438631e+02
149             	3.68065806e+02
150             	3.68308990e+02
151             	3.68601724e+02
152             	3.68918683e+02
153             	3.69241826e+02
154             	3.69463819e+02
155             	3.69635023e+02
156             	3.69728543e+02
157             	3.69692442e+02
158             	3.69701453e+02
159             	3.69808100e+02
160             	3.70017607e+02
161             	3.70363885e+02
162             	3.70584682e+02
163             	3.70947066e+02
164             	3.71285440e+02
165             	3.71659917e+02
166             	3.71948216e+02
167             	3.71913673e+02
168             	3.72005054e+02
169             	3.72197287e+02
170             	3.72264227e+02
171             	3.72120764e+02
172             	3.71760733e+02
173             	3.71257665e+02
174             	3.71018052e+02
175             	3.70981807e+02
176             	3.71098945e+02
177             	3.71369043e+02
178             	3.71535838e+02
179             	3.71766451e+02
180             	3.72063078e+02
181             	3.72027741e+02
182             	3.72114342e+02
183             	3.72294281e+02
184             	3.72421273e+02
185             	3.72455095e+02
186             	3.72126699e+02
187             	3.71886556e+02
188             	3.71870499e+02
189             	3.71917196e+02
190             	3.72040131e+02
191             	3.72245527e+02
192             	3.72514507e+02
193             	3.72769678e+02
194             	3.73010163e+02
195             	3.73218643e+02
196             	3.73441681e+02
197             	3.73633284e+02
198             	3.73838013e+02
199             	3.73967939e+02
200             	3.74015833e+02
201             	3.74039825e+02
202             	3.73984237e+02
203             	3.73930083e+02
204             	3.73986497e+02
205             	3.73948151e+02
206             	3.74028889e+02
207             	3.74239138e+02
208             	3.74360508e+02
209             	3.74508479e+02
210             	3.74728937e+02
211             	3.74836496e+02
212             	3.74906377e+02
213             	3.74974607e+02
214             	3.75028533e+02
215             	3.75053730e+02
216             	3.74985711e+02
217             	3.74983397e+02
218             	3.75127101e+02
219             	3.75097539e+02
220             	3.75168324e+02
221             	3.75383734e+02
222             	3.75626980e+02
223             	3.75778119e+02
224             	3.75818293e+02
225             	3.75835480e+02
226             	3.75863741e+02
227             	3.75906962e+02
228             	3.75947205e+02
229             	3.75970904e+02
230             	3.75970713e+02
231             	3.75968618e+02
232             	3.75962262e+02
233             	3.75940063e+02
234             	3.75937674e+02
235             	3.75972530e+02
236             	3.76037717e+02
237             	3.76115399e+02
238             	3.76182620e+02
239             	3.76236665e+02
240             	3.76273632e+02
241             	3.76310665e+02
242             	3.76356527e+02
243             	3.76409069e+02
244             	3.76462897e+02
245             	3.76520982e+02
246             	3.76578131e+02
247             	3.76630259e+02
248             	3.76680708e+02
249             	3.76719673e+02
250             	3.76726878e+02
251             	3.76719442e+02
252             	3.76709405e+02
253             	3.76699844e+02
254             	3.76687370e+02
255             	3.76652471e+02
256             	3.76607079e+02
257             	3.76565545e+02
258             	3.76526797e+02
259             	3.76514391e+02
260             	3.76528942e+02
261             	3.76564703e+02
262             	3.76597518e+02
263             	3.76626380e+02
264             	3.76658648e+02
265             	3.76686393e+02
266             	3.76703564e+02
267             	3.76721762e+02
268             	3.76745941e+02
269             	3.76774957e+02
270             	3.76786115e+02
271             	3.76790999e+02
272             	3.76788250e+02
273             	3.76783807e+02
274             	3.76776972e+02
275             	3.76766853e+02
276             	3.76752149e+02
277             	3.76739060e+02
278             	3.76723073e+02
279             	3.76731153e+02
280             	3.76745551e+02
281             	3.76759471e+02
282             	3.76770086e+02
283             	3.76780888e+02
284             	3.76794724e+02
285             	3.76811887e+02
286             	3.76833850e+02
287             	3.76856454e+02
288             	3.76864425e+02
289             	3.76854687e+02
290             	3.76843832e+02
291             	3.76836074e+02
292             	3.76823589e+02
293             	3.76803327e+02
294             	3.76788180e+02
295             	3.76786425e+02
296             	3.76798196e+02
297             	3.76813610e+02
298             	3.76829207e+02
299             	3.76847156e+02
300             	3.76867711e+02
301             	3.76893335e+02
302             	3.76920074e+02
303             	3.76936986e+02
304             	3.76935701e+02
305             	3.76927259e+02
306             	3.76916919e+02
307             	3.76902394e+02
308             	3.76883354e+02
309             	3.76859508e+02
310             	3.76835839e+02
311             	3.76826614e+02
312             	3.76822378e+02
313             	3.76825610e+02
314             	3.76833527e+02
315             	3.76844193e+02
316             	3.76855156e+02
317             	3.76869432e+02
318             	3.76881332e+02
319             	3.76890322e+02
320             	3.76900608e+02
321             	3.76915514e+02
322             	3.76932934e+02
323             	3.76953197e+02
324             	3.76967647e+02
325             	3.76972319e+02
326             	3.76973994e+02
327             	3.76974690e+02
328             	3.76972038e+02
329             	3.76962707e+02
330             	3.76951428e+02
331             	3.76943341e+02
332             	3.76937946e+02
333             	3.76940361e+02
334             	3.76952899e+02
335             	3.76965839e+02
336             	3.76977281e+02
337             	3.76988811e+02
338             	3.77001236e+02
339             	3.77007679e+02
340             	3.76999835e+02
341             	3.76989789e+02
342             	3.76979727e+02
343             	3.76970087e+02
344             	3.76959519e+02
345             	3.76948184e+02
346             	3.76934009e+02
347             	3.76923960e+02
348             	3.76925112e+02
349             	3.76932925e+02
350             	3.76940600e+02
351             	3.76950266e+02
352             	3.76962185e+02
353             	3.76976338e+02
354             	3.76990413e+02
355             	3.77000502e+02
356             	3.76999910e+02
357             	3.76994126e+02
358             	3.76988617e+02
359             	3.76982551e+02
360             	3.76973413e+02
361             	3.76963534e+02
362             	3.76953306e+02
363             	3.76944855e+02
364             	3.76947485e+02
365             	3.76953181e+02
366             	3.76957212e+02
367             	3.76962700e+02
368             	3.76969246e+02
369             	3.76977801e+02
370             	3.76987034e+02
371             	3.76995827e+02
372             	3.77004246e+02
373             	3.77008180e+02
374             	3.77008299e+02
375             	3.77003201e+02
376             	3.76997149e+02
377             	3.76992018e+02
378             	3.76987126e+02
379             	3.76979379e+02
380             	3.76968485e+02
381             	3.76962392e+02
382             	3.76958159e+02
383             	3.76956177e+02
384             	3.76954413e+02
385             	3.76953567e+02
386             	3.76955097e+02
387             	3.76958679e+02
388             	3.76964452e+02
389             	3.76970628e+02
390             	3.76977363e+02
391             	3.76982189e+02
392             	3.76986796e+02
393             	3.76989539e+02
394             	3.76989768e+02
395             	3.76987833e+02
396             	3.76985862e+02
397             	3.76984144e+02
398             	3.76981986e+02
399             	3.76979127e+02
400             	3.76975208e+02
401             	3.76972050e+02
402             	3.76969801e+02
403             	3.76968523e+02
404             	3.76966862e+02
405             	3.76968394e+02
406             	3.76970664e+02
407             	3.76973263e+02
408             	3.76975613e+02
409             	3.76978153e+02
410             	3.76980766e+02
411             	3.76983675e+02
412             	3.76987140e+02
413             	3.76991721e+02
414             	3.76993964e+02
415             	3.76995470e+02
416             	3.76995748e+02
417             	3.76995949e+02
418             	3.76996312e+02
419             	3.76996327e+02
420             	3.76995488e+02
421             	3.76993190e+02
422             	3.76990548e+02
423             	3.76988001e+02
424             	3.76984886e+02
425             	3.76984282e+02
426             	3.76984511e+02
427             	3.76984794e+02
428             	3.76985733e+02
429             	3.76988044e+02
430             	3.76990565e+02
431             	3.76993708e+02
432             	3.76997268e+02
433             	3.77001506e+02
434             	3.77005844e+02
435             	3.77009749e+02
436             	3.77011506e+02
437             	3.77013097e+02
438             	3.77013015e+02
439             	3.77012418e+02
440             	3.77011718e+02
441             	3.77010694e+02
442             	3.77009253e+02
443             	3.77007321e+02
444             	3.77004947e+02
445             	3.77002107e+02
446             	3.76999316e+02
447             	3.76997010e+02
448             	3.76994900e+02
449             	3.76992993e+02
450             	3.76991334e+02
451             	3.76989722e+02
452             	3.76988225e+02
453             	3.76987465e+02
454             	3.76987168e+02
455             	3.76987062e+02
456             	3.76986981e+02
457             	3.76987061e+02
458             	3.76987452e+02
459             	3.76988145e+02
460             	3.76989137e+02
461             	3.76990461e+02
462             	3.76992037e+02
463             	3.76993907e+02
464             	3.76995834e+02
465             	3.76998037e+02
466             	3.77000198e+02
467             	3.77002251e+02
468             	3.77004550e+02
469             	3.77006461e+02
470             	3.77008013e+02
471             	3.77009183e+02
472             	3.77008848e+02
473             	3.77007240e+02
474             	3.77005397e+02
475             	3.77003605e+02
476             	3.77001539e+02
477             	3.76998902e+02
478             	3.76995973e+02
479             	3.76992710e+02
480             	3.76989575e+02
481             	3.76987818e+02
482             	3.76986507e+02
483             	3.76986226e+02
484             	3.76986279e+02
485             	3.76987131e+02
486             	3.76988447e+02
487             	3.76990236e+02
488             	3.76992287e+02
489             	3.76994899e+02
490             	3.76997472e+02
491             	3.77000082e+02
492             	3.77003100e+02
493             	3.77002784e+02
494             	3.77001243e+02
495             	3.76999758e+02
496             	3.76998211e+02
497             	3.76995955e+02
498             	3.76992964e+02
499             	3.76991406e+02
500             	3.76990293e+02
501             	3.76989921e+02
502             	3.76989723e+02
503             	3.76989829e+02
504             	3.76990415e+02
505             	3.76991857e+02
506             	3.76993618e+02
507             	3.76995980e+02
508             	3.76998543e+02
509             	3.77001021e+02
510             	3.77003267e+02
511             	3.77005047e+02
512             	3.77004377e+02
513             	3.77002849e+02
514             	3.77001675e+02
515             	3.77000965e+02
516             	3.77000407e+02
517             	3.76999321e+02
518             	3.76997197e+02
519             	3.76995409e+02
520             	3.76994698e+02
521             	3.76994052e+02
522             	3.76993327e+02
523             	3.76992033e+02
524             	3.76990198e+02
525             	3.76989707e+02
526             	3.76990089e+02
527             	3.76990708e+02
528             	3.76991478e+02
529             	3.76993548e+02
530             	3.76996344e+02
531             	3.76999847e+02
532             	3.77003702e+02
533             	3.77006582e+02
534             	3.77009040e+02
535             	3.77011662e+02
536             	3.77011879e+02
537             	3.77011176e+02
538             	3.77010512e+02
539             	3.77009975e+02
540             	3.77008924e+02
541             	3.77007188e+02
542             	3.77005122e+02
543             	3.77003113e+02
544             	3.77001204e+02
545             	3.76999322e+02
546             	3.76997681e+02
547             	3.76995892e+02
548             	3.76993977e+02
549             	3.76994586e+02
550             	3.76995671e+02
551             	3.76996428e+02
552             	3.76997121e+02
553             	3.76997881e+02
554             	3.76998788e+02
555             	3.76999513e+02
556             	3.77000365e+02
557             	3.77001538e+02
558             	3.77002959e+02
559             	3.77004248e+02
560             	3.77003799e+02
561             	3.77002680e+02
562             	3.77001716e+02
563             	3.77000807e+02
564             	3.76999732e+02
565             	3.76998161e+02
566             	3.76996350e+02
567             	3.76993840e+02
568             	3.76991388e+02
569             	3.76988912e+02
570             	3.76986757e+02
571             	3.76984753e+02
572             	3.76982122e+02
573             	3.76982962e+02
574             	3.76984800e+02
575             	3.76986300e+02
576             	3.76987303e+02
577             	3.76988634e+02
578             	3.76990571e+02
579             	3.76993404e+02
580             	3.76996897e+02
581             	3.77000539e+02
582             	3.77004065e+02
583             	3.77007385e+02
584             	3.77009833e+02
585             	3.77011723e+02
586             	3.77013160e+02
587             	3.77014020e+02
588             	3.77014288e+02
589             	3.77014151e+02
590             	3.77013722e+02
591             	3.77013138e+02
592             	3.77012601e+02
593             	3.77011994e+02
594             	3.77011417e+02
595             	3.77011029e+02
596             	3.77010417e+02
597             	3.77009855e+02
598             	3.77009478e+02
599             	3.77009028e+02
600             	3.77008747e+02
601             	3.77008257e+02
602             	3.77007854e+02
603             	3.77006110e+02
604             	3.77004464e+02
605             	3.77002060e+02
606             	3.76999548e+02
607             	3.76997120e+02
608             	3.76995011e+02
609             	3.76993157e+02
610             	3.76991614e+02
611             	3.76990420e+02
612             	3.76989552e+02
613             	3.76988823e+02
614             	3.76988354e+02
615             	3.76988157e+02
616             	3.76987998e+02
617             	3.76991507e+02
618             	3.76995989e+02
619             	3.77000071e+02
620             	3.77003883e+02
621             	3.77008369e+02
