# Region        : cellZone component_0
# Cells         : 123
# Volume        : 2.24955623e-01
# Time          	volAverage(T)
1               	3.00351805e+02
2               	3.00700081e+02
3               	3.01033223e+02
4               	3.01357992e+02
5               	3.01678368e+02
6               	3.01996192e+02
7               	3.02312596e+02
8               	3.02628524e+02
9               	3.02944421e+02
10              	3.03259298e+02
11              	3.03571818e+02
12              	3.03882599e+02
13              	3.04190474e+02
14              	3.04496687e+02
15              	3.04800659e+02
16              	3.05103756e+02
17              	3.05405909e+02
18              	3.05706713e+02
19              	3.06004625e+02
20              	3.06301850e+02
21              	3.06596538e+02
22              	3.06888928e+02
23              	3.07179431e+02
24              	3.07467775e+02
25              	3.07754669e+02
26              	3.08038867e+02
27              	3.08318433e+02
28              	3.08591615e+02
29              	3.08859928e+02
30              	3.09123625e+02
31              	3.09382008e+02
32              	3.09639478e+02
33              	3.09895770e+02
34              	3.10147380e+02
35              	3.10394433e+02
36              	3.10637422e+02
37              	3.10885539e+02
38              	3.11130135e+02
39              	3.11367317e+02
40              	3.11596409e+02
41              	3.11819467e+02
42              	3.12034992e+02
43              	3.12250324e+02
44              	3.12461720e+02
45              	3.12669617e+02
46              	3.12876658e+02
47              	3.13083302e+02
48              	3.13288937e+02
49              	3.13492503e+02
50              	3.13692521e+02
51              	3.13886596e+02
52              	3.14077622e+02
53              	3.14267001e+02
54              	3.14452824e+02
55              	3.14632101e+02
56              	3.14806960e+02
57              	3.14977431e+02
58              	3.15148236e+02
59              	3.15316662e+02
60              	3.15482565e+02
61              	3.15646640e+02
62              	3.15809810e+02
63              	3.15971111e+02
64              	3.16130032e+02
65              	3.16287585e+02
66              	3.16441632e+02
67              	3.16592157e+02
68              	3.16737876e+02
69              	3.16879776e+02
70              	3.17019655e+02
71              	3.17155221e+02
72              	3.17285362e+02
73              	3.17416293e+02
74              	3.17547215e+02
75              	3.17677295e+02
76              	3.17805557e+02
77              	3.17932493e+02
78              	3.18058627e+02
79              	3.18181088e+02
80              	3.18298780e+02
81              	3.18408666e+02
82              	3.18518325e+02
83              	3.18625165e+02
84              	3.18731176e+02
85              	3.18836057e+02
86              	3.18941591e+02
87              	3.19047481e+02
88              	3.19151134e+02
89              	3.19255366e+02
90              	3.19359003e+02
91              	3.19459630e+02
92              	3.19554832e+02
93              	3.19648484e+02
94              	3.19738874e+02
95              	3.19826610e+02
96              	3.19910656e+02
97              	3.19995210e+02
98              	3.20080911e+02
99              	3.20167150e+02
100             	3.20253485e+02
101             	3.20341565e+02
102             	3.20429932e+02
103             	3.20514112e+02
104             	3.20594745e+02
105             	3.20671024e+02
106             	3.20745452e+02
107             	3.20817432e+02
108             	3.20887520e+02
109             	3.20956237e+02
110             	3.21023649e+02
111             	3.21093360e+02
112             	3.21164732e+02
113             	3.21235239e+02
114             	3.21307056e+02
115             	3.21379337e+02
116             	3.21449807e+02
117             	3.21516708e+02
118             	3.21579942e+02
119             	3.21639581e+02
120             	3.21698843e+02
121             	3.21756304e+02
122             	3.21814464e+02
123             	3.21872225e+02
124             	3.21932322e+02
125             	3.21991280e+02
126             	3.22051831e+02
127             	3.22112118e+02
128             	3.22171803e+02
129             	3.22230784e+02
130             	3.22287720e+02
131             	3.22342303e+02
132             	3.22395640e+02
133             	3.22447538e+02
134             	3.22495662e+02
135             	3.22542862e+02
136             	3.22589775e+02
137             	3.22636805e+02
138             	3.22684040e+02
139             	3.22731533e+02
140             	3.22779118e+02
141             	3.22826990e+02
142             	3.22874009e+02
143             	3.22921163e+02
144             	3.22967946e+02
145             	3.23013321e+02
146             	3.23058370e+02
147             	3.23102370e+02
148             	3.23144767e+02
149             	3.23185784e+02
150             	3.23225721e+02
151             	3.23264940e+02
152             	3.23303708e+02
153             	3.23341916e+02
154             	3.23379892e+02
155             	3.23417763e+02
156             	3.23455172e+02
157             	3.23492200e+02
158             	3.23529013e+02
159             	3.23565515e+02
160             	3.23601290e+02
161             	3.23636716e+02
162             	3.23671655e+02
163             	3.23706082e+02
164             	3.23739979e+02
165             	3.23773474e+02
166             	3.23806256e+02
167             	3.23838362e+02
168             	3.23869423e+02
169             	3.23900083e+02
170             	3.23930415e+02
171             	3.23960291e+02
172             	3.23989702e+02
173             	3.24018729e+02
174             	3.24047539e+02
175             	3.24076276e+02
176             	3.24104883e+02
177             	3.24133268e+02
178             	3.24161417e+02
179             	3.24189415e+02
180             	3.24217149e+02
181             	3.24244576e+02
182             	3.24271657e+02
183             	3.24298383e+02
184             	3.24324080e+02
185             	3.24349674e+02
186             	3.24374815e+02
187             	3.24399279e+02
188             	3.24423102e+02
189             	3.24446384e+02
190             	3.24469364e+02
191             	3.24492385e+02
192             	3.24514989e+02
193             	3.24537720e+02
194             	3.24560563e+02
195             	3.24583444e+02
196             	3.24606069e+02
197             	3.24627860e+02
198             	3.24649585e+02
199             	3.24670829e+02
200             	3.24691400e+02
201             	3.24711385e+02
202             	3.24730818e+02
203             	3.24750254e+02
204             	3.24769225e+02
205             	3.24788083e+02
206             	3.24807117e+02
207             	3.24826379e+02
208             	3.24845848e+02
209             	3.24864956e+02
210             	3.24883684e+02
211             	3.24902406e+02
212             	3.24920668e+02
213             	3.24938245e+02
214             	3.24955210e+02
215             	3.24971609e+02
216             	3.24987790e+02
217             	3.25003651e+02
218             	3.25019579e+02
219             	3.25035602e+02
220             	3.25051835e+02
221             	3.25068143e+02
222             	3.25084270e+02
223             	3.25100561e+02
224             	3.25116517e+02
225             	3.25132094e+02
226             	3.25147197e+02
227             	3.25161827e+02
228             	3.25176004e+02
229             	3.25189826e+02
230             	3.25203639e+02
231             	3.25217099e+02
232             	3.25230542e+02
233             	3.25244052e+02
234             	3.25257644e+02
235             	3.25271242e+02
236             	3.25284821e+02
237             	3.25298393e+02
238             	3.25311840e+02
239             	3.25324820e+02
240             	3.25337541e+02
241             	3.25350068e+02
242             	3.25362248e+02
243             	3.25374104e+02
244             	3.25385712e+02
245             	3.25397146e+02
246             	3.25408467e+02
247             	3.25419681e+02
248             	3.25431076e+02
249             	3.25442415e+02
250             	3.25453823e+02
251             	3.25465238e+02
252             	3.25476675e+02
253             	3.25487969e+02
254             	3.25499117e+02
255             	3.25509972e+02
256             	3.25520616e+02
257             	3.25530990e+02
258             	3.25541064e+02
259             	3.25550821e+02
260             	3.25560386e+02
261             	3.25569784e+02
262             	3.25579224e+02
263             	3.25588642e+02
264             	3.25598062e+02
265             	3.25607494e+02
266             	3.25617042e+02
267             	3.25626583e+02
268             	3.25636059e+02
269             	3.25645429e+02
270             	3.25654492e+02
271             	3.25663521e+02
272             	3.25672375e+02
273             	3.25681030e+02
274             	3.25689535e+02
275             	3.25697927e+02
276             	3.25706203e+02
277             	3.25714381e+02
278             	3.25722509e+02
279             	3.25730592e+02
280             	3.25738565e+02
281             	3.25746475e+02
282             	3.25754316e+02
283             	3.25762085e+02
284             	3.25769736e+02
285             	3.25777313e+02
286             	3.25784833e+02
287             	3.25792297e+02
288             	3.25799707e+02
289             	3.25807070e+02
290             	3.25814385e+02
291             	3.25821635e+02
292             	3.25828822e+02
293             	3.25835925e+02
294             	3.25842905e+02
295             	3.25849784e+02
296             	3.25856588e+02
297             	3.25863262e+02
298             	3.25869713e+02
299             	3.25876073e+02
300             	3.25882306e+02
301             	3.25888481e+02
302             	3.25894594e+02
303             	3.25900728e+02
304             	3.25906830e+02
305             	3.25912997e+02
306             	3.25919206e+02
307             	3.25925402e+02
308             	3.25931555e+02
309             	3.25937651e+02
310             	3.25943682e+02
311             	3.25949505e+02
312             	3.25955325e+02
313             	3.25961051e+02
314             	3.25966664e+02
315             	3.25972159e+02
316             	3.25977559e+02
317             	3.25982903e+02
318             	3.25988209e+02
319             	3.25993510e+02
320             	3.25998785e+02
321             	3.26004037e+02
322             	3.26009271e+02
323             	3.26014477e+02
324             	3.26019659e+02
325             	3.26024820e+02
326             	3.26029948e+02
327             	3.26035028e+02
328             	3.26040060e+02
329             	3.26045039e+02
330             	3.26049960e+02
331             	3.26054829e+02
332             	3.26059642e+02
333             	3.26064401e+02
334             	3.26069063e+02
335             	3.26073683e+02
336             	3.26078238e+02
337             	3.26082725e+02
338             	3.26087148e+02
339             	3.26091507e+02
340             	3.26095823e+02
341             	3.26100120e+02
342             	3.26104367e+02
343             	3.26108589e+02
344             	3.26112790e+02
345             	3.26116972e+02
346             	3.26121129e+02
347             	3.26125256e+02
348             	3.26129352e+02
349             	3.26133413e+02
350             	3.26137432e+02
351             	3.26141431e+02
352             	3.26145373e+02
353             	3.26149291e+02
354             	3.26153173e+02
355             	3.26157011e+02
356             	3.26160808e+02
357             	3.26164564e+02
358             	3.26168270e+02
359             	3.26171944e+02
360             	3.26175579e+02
361             	3.26179174e+02
362             	3.26182733e+02
363             	3.26186259e+02
364             	3.26189758e+02
365             	3.26193233e+02
366             	3.26196681e+02
367             	3.26200105e+02
368             	3.26203509e+02
369             	3.26206905e+02
370             	3.26210282e+02
371             	3.26213637e+02
372             	3.26216965e+02
373             	3.26220265e+02
374             	3.26223534e+02
375             	3.26226772e+02
376             	3.26229980e+02
377             	3.26233156e+02
378             	3.26236302e+02
379             	3.26239387e+02
380             	3.26242452e+02
381             	3.26245484e+02
382             	3.26248482e+02
383             	3.26251450e+02
384             	3.26254392e+02
385             	3.26257310e+02
386             	3.26260207e+02
387             	3.26263092e+02
388             	3.26265964e+02
389             	3.26268817e+02
390             	3.26271648e+02
391             	3.26274452e+02
392             	3.26277217e+02
393             	3.26279954e+02
394             	3.26282678e+02
395             	3.26285376e+02
396             	3.26288051e+02
397             	3.26290708e+02
398             	3.26293349e+02
399             	3.26295973e+02
400             	3.26298579e+02
401             	3.26301167e+02
402             	3.26303739e+02
403             	3.26306295e+02
404             	3.26308832e+02
405             	3.26311354e+02
406             	3.26313862e+02
407             	3.26316355e+02
408             	3.26318832e+02
409             	3.26321296e+02
410             	3.26323748e+02
411             	3.26326186e+02
412             	3.26328614e+02
413             	3.26331030e+02
414             	3.26333435e+02
415             	3.26335829e+02
416             	3.26338209e+02
417             	3.26340574e+02
418             	3.26342922e+02
419             	3.26345235e+02
420             	3.26347536e+02
421             	3.26349813e+02
422             	3.26352062e+02
423             	3.26354285e+02
424             	3.26356487e+02
425             	3.26358669e+02
426             	3.26360835e+02
427             	3.26362988e+02
428             	3.26365132e+02
429             	3.26367268e+02
430             	3.26369395e+02
431             	3.26371510e+02
432             	3.26373610e+02
433             	3.26375695e+02
434             	3.26377765e+02
435             	3.26379818e+02
436             	3.26381856e+02
437             	3.26383877e+02
438             	3.26385881e+02
439             	3.26387867e+02
440             	3.26389816e+02
441             	3.26391753e+02
442             	3.26393665e+02
443             	3.26395550e+02
444             	3.26397419e+02
445             	3.26399272e+02
446             	3.26401116e+02
447             	3.26402956e+02
448             	3.26404791e+02
449             	3.26406619e+02
450             	3.26408438e+02
451             	3.26410248e+02
452             	3.26412046e+02
453             	3.26413828e+02
454             	3.26415608e+02
455             	3.26417383e+02
456             	3.26419151e+02
457             	3.26420912e+02
458             	3.26422665e+02
459             	3.26424400e+02
460             	3.26426123e+02
461             	3.26427816e+02
462             	3.26429493e+02
463             	3.26431159e+02
464             	3.26432806e+02
465             	3.26434429e+02
466             	3.26436036e+02
467             	3.26437628e+02
468             	3.26439211e+02
469             	3.26440798e+02
470             	3.26442382e+02
471             	3.26443971e+02
472             	3.26445561e+02
473             	3.26447154e+02
474             	3.26448742e+02
475             	3.26450301e+02
476             	3.26451855e+02
477             	3.26453389e+02
478             	3.26454887e+02
479             	3.26456368e+02
480             	3.26457819e+02
481             	3.26459258e+02
482             	3.26460697e+02
483             	3.26462137e+02
484             	3.26463577e+02
485             	3.26465029e+02
486             	3.26466484e+02
487             	3.26467944e+02
488             	3.26469407e+02
489             	3.26470860e+02
490             	3.26472302e+02
491             	3.26473713e+02
492             	3.26475110e+02
493             	3.26476482e+02
494             	3.26477825e+02
495             	3.26479148e+02
496             	3.26480455e+02
497             	3.26481757e+02
498             	3.26483057e+02
499             	3.26484360e+02
500             	3.26485663e+02
501             	3.26486970e+02
502             	3.26488276e+02
503             	3.26489576e+02
504             	3.26490864e+02
505             	3.26492149e+02
506             	3.26493429e+02
507             	3.26494701e+02
508             	3.26495972e+02
509             	3.26497240e+02
510             	3.26498499e+02
511             	3.26499758e+02
512             	3.26501012e+02
513             	3.26502258e+02
514             	3.26503491e+02
515             	3.26504712e+02
516             	3.26505926e+02
517             	3.26507124e+02
518             	3.26508299e+02
519             	3.26509464e+02
520             	3.26510615e+02
521             	3.26511769e+02
522             	3.26512913e+02
523             	3.26514055e+02
524             	3.26515198e+02
525             	3.26516337e+02
526             	3.26517478e+02
527             	3.26518614e+02
528             	3.26519743e+02
529             	3.26520866e+02
530             	3.26521983e+02
531             	3.26523090e+02
532             	3.26524190e+02
533             	3.26525284e+02
534             	3.26526371e+02
535             	3.26527448e+02
536             	3.26528520e+02
537             	3.26529587e+02
538             	3.26530649e+02
539             	3.26531707e+02
540             	3.26532758e+02
541             	3.26533804e+02
542             	3.26534847e+02
543             	3.26535881e+02
544             	3.26536906e+02
545             	3.26537930e+02
546             	3.26538947e+02
547             	3.26539953e+02
548             	3.26540952e+02
549             	3.26541950e+02
550             	3.26542942e+02
551             	3.26543930e+02
552             	3.26544914e+02
553             	3.26545893e+02
554             	3.26546867e+02
555             	3.26547836e+02
556             	3.26548801e+02
557             	3.26549759e+02
558             	3.26550714e+02
559             	3.26551667e+02
560             	3.26552615e+02
561             	3.26553558e+02
562             	3.26554498e+02
563             	3.26555434e+02
564             	3.26556365e+02
565             	3.26557291e+02
566             	3.26558203e+02
567             	3.26559112e+02
568             	3.26560012e+02
569             	3.26560904e+02
570             	3.26561790e+02
571             	3.26562678e+02
572             	3.26563559e+02
573             	3.26564439e+02
574             	3.26565319e+02
575             	3.26566200e+02
576             	3.26567079e+02
577             	3.26567953e+02
578             	3.26568819e+02
579             	3.26569676e+02
580             	3.26570528e+02
581             	3.26571372e+02
582             	3.26572209e+02
583             	3.26573042e+02
584             	3.26573873e+02
585             	3.26574703e+02
586             	3.26575531e+02
587             	3.26576358e+02
588             	3.26577185e+02
589             	3.26578011e+02
590             	3.26578832e+02
591             	3.26579647e+02
592             	3.26580455e+02
593             	3.26581253e+02
594             	3.26582042e+02
595             	3.26582826e+02
596             	3.26583607e+02
597             	3.26584383e+02
598             	3.26585156e+02
599             	3.26585928e+02
600             	3.26586699e+02
601             	3.26587470e+02
602             	3.26588237e+02
603             	3.26589001e+02
604             	3.26589763e+02
605             	3.26590521e+02
606             	3.26591274e+02
607             	3.26592023e+02
608             	3.26592766e+02
609             	3.26593506e+02
610             	3.26594241e+02
611             	3.26594972e+02
612             	3.26595700e+02
613             	3.26596426e+02
614             	3.26597148e+02
615             	3.26597869e+02
616             	3.26598586e+02
617             	3.26599301e+02
618             	3.26600012e+02
619             	3.26600720e+02
620             	3.26601423e+02
621             	3.26602123e+02
