# Region        : cellZone fluid
# Cells         : 8995
# Volume        : 1.76508774e+01
# Time          	volAverage(T)
1               	3.00000045e+02
2               	3.00000085e+02
3               	3.00000392e+02
4               	3.00000875e+02
5               	3.00001223e+02
6               	3.00001632e+02
7               	3.00002090e+02
8               	3.00002848e+02
9               	3.00003471e+02
10              	3.00004398e+02
11              	3.00005322e+02
12              	3.00006379e+02
13              	3.00007488e+02
14              	3.00008933e+02
15              	3.00009789e+02
16              	3.00012021e+02
17              	3.00012974e+02
18              	3.00013991e+02
19              	3.00015202e+02
20              	3.00016532e+02
21              	3.00018123e+02
22              	3.00019831e+02
23              	3.00021339e+02
24              	3.00022785e+02
25              	3.00024648e+02
26              	3.00026286e+02
27              	3.00027860e+02
28              	3.00029561e+02
29              	3.00031117e+02
30              	3.00033116e+02
31              	3.00034895e+02
32              	3.00036401e+02
33              	3.00038119e+02
34              	3.00040052e+02
35              	3.00042748e+02
36              	3.00044556e+02
37              	3.00046410e+02
38              	3.00048486e+02
39              	3.00050707e+02
40              	3.00053000e+02
41              	3.00055226e+02
42              	3.00057262e+02
43              	3.00059768e+02
44              	3.00061661e+02
45              	3.00063544e+02
46              	3.00066353e+02
47              	3.00069045e+02
48              	3.00071596e+02
49              	3.00073812e+02
50              	3.00075688e+02
51              	3.00078241e+02
52              	3.00079643e+02
53              	3.00081614e+02
54              	3.00082943e+02
55              	3.00084245e+02
56              	3.00086381e+02
57              	3.00088651e+02
58              	3.00090975e+02
59              	3.00093193e+02
60              	3.00095475e+02
61              	3.00098198e+02
62              	3.00100758e+02
63              	3.00102861e+02
64              	3.00105438e+02
65              	3.00107518e+02
66              	3.00109804e+02
67              	3.00112163e+02
68              	3.00114584e+02
69              	3.00116663e+02
70              	3.00119003e+02
71              	3.00120899e+02
72              	3.00122623e+02
73              	3.00124348e+02
74              	3.00126172e+02
75              	3.00128081e+02
76              	3.00130123e+02
77              	3.00131835e+02
78              	3.00134331e+02
79              	3.00136935e+02
80              	3.00138963e+02
81              	3.00141077e+02
82              	3.00142995e+02
83              	3.00144760e+02
84              	3.00146577e+02
85              	3.00148605e+02
86              	3.00151030e+02
87              	3.00153200e+02
88              	3.00155305e+02
89              	3.00157706e+02
90              	3.00160254e+02
91              	3.00163024e+02
92              	3.00164736e+02
93              	3.00166440e+02
94              	3.00168307e+02
95              	3.00170332e+02
96              	3.00172138e+02
97              	3.00173943e+02
98              	3.00175887e+02
99              	3.00178034e+02
100             	3.00179858e+02
101             	3.00181791e+02
102             	3.00183738e+02
103             	3.00185833e+02
104             	3.00187605e+02
105             	3.00189297e+02
106             	3.00191058e+02
107             	3.00192730e+02
108             	3.00194757e+02
109             	3.00196436e+02
110             	3.00198132e+02
111             	3.00200029e+02
112             	3.00201972e+02
113             	3.00203604e+02
114             	3.00205301e+02
115             	3.00207255e+02
116             	3.00209124e+02
117             	3.00210783e+02
118             	3.00212359e+02
119             	3.00213963e+02
120             	3.00215471e+02
121             	3.00216896e+02
122             	3.00218171e+02
123             	3.00219266e+02
124             	3.00220570e+02
125             	3.00221766e+02
126             	3.00222822e+02
127             	3.00223888e+02
128             	3.00224938e+02
129             	3.00225881e+02
130             	3.00226848e+02
131             	3.00227786e+02
132             	3.00228748e+02
133             	3.00229649e+02
134             	3.00230475e+02
135             	3.00231364e+02
136             	3.00232200e+02
137             	3.00233239e+02
138             	3.00234263e+02
139             	3.00235366e+02
140             	3.00236442e+02
141             	3.00237348e+02
142             	3.00238294e+02
143             	3.00239336e+02
144             	3.00240342e+02
145             	3.00241140e+02
146             	3.00241862e+02
147             	3.00242921e+02
148             	3.00243719e+02
149             	3.00244398e+02
150             	3.00244961e+02
151             	3.00245647e+02
152             	3.00246325e+02
153             	3.00247094e+02
154             	3.00247612e+02
155             	3.00248120e+02
156             	3.00248736e+02
157             	3.00249155e+02
158             	3.00249601e+02
159             	3.00250004e+02
160             	3.00250441e+02
161             	3.00250871e+02
162             	3.00251261e+02
163             	3.00251608e+02
164             	3.00251979e+02
165             	3.00252452e+02
166             	3.00252833e+02
167             	3.00253231e+02
168             	3.00253654e+02
169             	3.00254011e+02
170             	3.00254328e+02
171             	3.00254656e+02
172             	3.00254975e+02
173             	3.00255293e+02
174             	3.00255697e+02
175             	3.00256003e+02
176             	3.00256461e+02
177             	3.00256748e+02
178             	3.00257148e+02
179             	3.00257458e+02
180             	3.00257846e+02
181             	3.00258185e+02
182             	3.00258538e+02
183             	3.00258871e+02
184             	3.00259253e+02
185             	3.00259562e+02
186             	3.00259922e+02
187             	3.00260296e+02
188             	3.00260716e+02
189             	3.00261083e+02
190             	3.00261471e+02
191             	3.00261827e+02
192             	3.00262216e+02
193             	3.00262601e+02
194             	3.00263020e+02
195             	3.00263419e+02
196             	3.00263851e+02
197             	3.00264269e+02
198             	3.00264722e+02
199             	3.00265111e+02
200             	3.00265508e+02
201             	3.00265966e+02
202             	3.00266404e+02
203             	3.00266818e+02
204             	3.00267216e+02
205             	3.00267606e+02
206             	3.00268004e+02
207             	3.00268399e+02
208             	3.00268744e+02
209             	3.00269184e+02
210             	3.00269456e+02
211             	3.00269800e+02
212             	3.00270110e+02
213             	3.00270494e+02
214             	3.00270852e+02
215             	3.00271263e+02
216             	3.00271565e+02
217             	3.00271934e+02
218             	3.00272258e+02
219             	3.00272612e+02
220             	3.00272909e+02
221             	3.00273213e+02
222             	3.00273564e+02
223             	3.00273909e+02
224             	3.00274176e+02
225             	3.00274478e+02
226             	3.00274762e+02
227             	3.00275037e+02
228             	3.00275277e+02
229             	3.00275507e+02
230             	3.00275737e+02
231             	3.00275970e+02
232             	3.00276216e+02
233             	3.00276490e+02
234             	3.00276684e+02
235             	3.00276935e+02
236             	3.00277183e+02
237             	3.00277434e+02
238             	3.00277699e+02
239             	3.00277982e+02
240             	3.00278250e+02
241             	3.00278456e+02
242             	3.00278774e+02
243             	3.00279023e+02
244             	3.00279317e+02
245             	3.00279562e+02
246             	3.00279825e+02
247             	3.00280056e+02
248             	3.00280301e+02
249             	3.00280525e+02
250             	3.00280776e+02
251             	3.00280980e+02
252             	3.00281205e+02
253             	3.00281411e+02
254             	3.00281638e+02
255             	3.00281846e+02
256             	3.00282069e+02
257             	3.00282250e+02
258             	3.00282462e+02
259             	3.00282662e+02
260             	3.00282876e+02
261             	3.00283072e+02
262             	3.00283280e+02
263             	3.00283473e+02
264             	3.00283681e+02
265             	3.00283874e+02
266             	3.00284057e+02
267             	3.00284283e+02
268             	3.00284476e+02
269             	3.00284677e+02
270             	3.00284876e+02
271             	3.00285081e+02
272             	3.00285280e+02
273             	3.00285483e+02
274             	3.00285671e+02
275             	3.00285857e+02
276             	3.00286035e+02
277             	3.00286212e+02
278             	3.00286379e+02
279             	3.00286548e+02
280             	3.00286715e+02
281             	3.00286902e+02
282             	3.00287059e+02
283             	3.00287215e+02
284             	3.00287388e+02
285             	3.00287539e+02
286             	3.00287712e+02
287             	3.00287876e+02
288             	3.00288026e+02
289             	3.00288164e+02
290             	3.00288344e+02
291             	3.00288451e+02
292             	3.00288628e+02
293             	3.00288769e+02
294             	3.00288919e+02
295             	3.00289041e+02
296             	3.00289179e+02
297             	3.00289300e+02
298             	3.00289483e+02
299             	3.00289565e+02
300             	3.00289693e+02
301             	3.00289801e+02
302             	3.00289941e+02
303             	3.00290065e+02
304             	3.00290216e+02
305             	3.00290351e+02
306             	3.00290505e+02
307             	3.00290624e+02
308             	3.00290780e+02
309             	3.00290897e+02
310             	3.00291022e+02
311             	3.00291159e+02
312             	3.00291293e+02
313             	3.00291410e+02
314             	3.00291538e+02
315             	3.00291644e+02
316             	3.00291745e+02
317             	3.00291845e+02
318             	3.00291963e+02
319             	3.00292071e+02
320             	3.00292185e+02
321             	3.00292294e+02
322             	3.00292407e+02
323             	3.00292507e+02
324             	3.00292609e+02
325             	3.00292707e+02
326             	3.00292810e+02
327             	3.00292898e+02
328             	3.00292996e+02
329             	3.00293090e+02
330             	3.00293194e+02
331             	3.00293292e+02
332             	3.00293393e+02
333             	3.00293491e+02
334             	3.00293599e+02
335             	3.00293702e+02
336             	3.00293814e+02
337             	3.00293921e+02
338             	3.00294027e+02
339             	3.00294123e+02
340             	3.00294233e+02
341             	3.00294325e+02
342             	3.00294431e+02
343             	3.00294524e+02
344             	3.00294621e+02
345             	3.00294713e+02
346             	3.00294802e+02
347             	3.00294887e+02
348             	3.00294989e+02
349             	3.00295063e+02
350             	3.00295147e+02
351             	3.00295219e+02
352             	3.00295303e+02
353             	3.00295376e+02
354             	3.00295459e+02
355             	3.00295536e+02
356             	3.00295621e+02
357             	3.00295693e+02
358             	3.00295775e+02
359             	3.00295849e+02
360             	3.00295929e+02
361             	3.00296001e+02
362             	3.00296080e+02
363             	3.00296156e+02
364             	3.00296236e+02
365             	3.00296307e+02
366             	3.00296383e+02
367             	3.00296454e+02
368             	3.00296532e+02
369             	3.00296604e+02
370             	3.00296680e+02
371             	3.00296754e+02
372             	3.00296830e+02
373             	3.00296903e+02
374             	3.00296979e+02
375             	3.00297052e+02
376             	3.00297126e+02
377             	3.00297197e+02
378             	3.00297270e+02
379             	3.00297338e+02
380             	3.00297405e+02
381             	3.00297471e+02
382             	3.00297538e+02
383             	3.00297601e+02
384             	3.00297666e+02
385             	3.00297727e+02
386             	3.00297790e+02
387             	3.00297852e+02
388             	3.00297915e+02
389             	3.00297973e+02
390             	3.00298032e+02
391             	3.00298090e+02
392             	3.00298145e+02
393             	3.00298205e+02
394             	3.00298264e+02
395             	3.00298323e+02
396             	3.00298380e+02
397             	3.00298438e+02
398             	3.00298496e+02
399             	3.00298556e+02
400             	3.00298614e+02
401             	3.00298673e+02
402             	3.00298730e+02
403             	3.00298790e+02
404             	3.00298848e+02
405             	3.00298906e+02
406             	3.00298963e+02
407             	3.00299019e+02
408             	3.00299075e+02
409             	3.00299131e+02
410             	3.00299187e+02
411             	3.00299243e+02
412             	3.00299298e+02
413             	3.00299353e+02
414             	3.00299406e+02
415             	3.00299459e+02
416             	3.00299510e+02
417             	3.00299560e+02
418             	3.00299612e+02
419             	3.00299662e+02
420             	3.00299711e+02
421             	3.00299760e+02
422             	3.00299808e+02
423             	3.00299856e+02
424             	3.00299904e+02
425             	3.00299950e+02
426             	3.00299996e+02
427             	3.00300041e+02
428             	3.00300085e+02
429             	3.00300128e+02
430             	3.00300172e+02
431             	3.00300215e+02
432             	3.00300260e+02
433             	3.00300303e+02
434             	3.00300348e+02
435             	3.00300390e+02
436             	3.00300433e+02
437             	3.00300476e+02
438             	3.00300518e+02
439             	3.00300561e+02
440             	3.00300603e+02
441             	3.00300645e+02
442             	3.00300687e+02
443             	3.00300729e+02
444             	3.00300772e+02
445             	3.00300816e+02
446             	3.00300855e+02
447             	3.00300897e+02
448             	3.00300938e+02
449             	3.00300980e+02
450             	3.00301021e+02
451             	3.00301062e+02
452             	3.00301103e+02
453             	3.00301142e+02
454             	3.00301182e+02
455             	3.00301221e+02
456             	3.00301260e+02
457             	3.00301299e+02
458             	3.00301336e+02
459             	3.00301374e+02
460             	3.00301410e+02
461             	3.00301447e+02
462             	3.00301481e+02
463             	3.00301517e+02
464             	3.00301553e+02
465             	3.00301589e+02
466             	3.00301624e+02
467             	3.00301658e+02
468             	3.00301693e+02
469             	3.00301728e+02
470             	3.00301762e+02
471             	3.00301795e+02
472             	3.00301829e+02
473             	3.00301862e+02
474             	3.00301895e+02
475             	3.00301927e+02
476             	3.00301960e+02
477             	3.00301992e+02
478             	3.00302024e+02
479             	3.00302055e+02
480             	3.00302087e+02
481             	3.00302117e+02
482             	3.00302148e+02
483             	3.00302179e+02
484             	3.00302209e+02
485             	3.00302239e+02
486             	3.00302269e+02
487             	3.00302299e+02
488             	3.00302328e+02
489             	3.00302358e+02
490             	3.00302387e+02
491             	3.00302417e+02
492             	3.00302447e+02
493             	3.00302476e+02
494             	3.00302505e+02
495             	3.00302534e+02
496             	3.00302563e+02
497             	3.00302592e+02
498             	3.00302621e+02
499             	3.00302649e+02
500             	3.00302676e+02
501             	3.00302704e+02
502             	3.00302732e+02
503             	3.00302760e+02
504             	3.00302787e+02
505             	3.00302813e+02
506             	3.00302839e+02
507             	3.00302865e+02
508             	3.00302891e+02
509             	3.00302916e+02
510             	3.00302942e+02
511             	3.00302966e+02
512             	3.00302991e+02
513             	3.00303015e+02
514             	3.00303040e+02
515             	3.00303063e+02
516             	3.00303087e+02
517             	3.00303111e+02
518             	3.00303134e+02
519             	3.00303157e+02
520             	3.00303181e+02
521             	3.00303204e+02
522             	3.00303226e+02
523             	3.00303250e+02
524             	3.00303273e+02
525             	3.00303297e+02
526             	3.00303320e+02
527             	3.00303343e+02
528             	3.00303365e+02
529             	3.00303388e+02
530             	3.00303410e+02
531             	3.00303432e+02
532             	3.00303455e+02
533             	3.00303477e+02
534             	3.00303499e+02
535             	3.00303521e+02
536             	3.00303543e+02
537             	3.00303565e+02
538             	3.00303586e+02
539             	3.00303608e+02
540             	3.00303629e+02
541             	3.00303650e+02
542             	3.00303671e+02
543             	3.00303692e+02
544             	3.00303712e+02
545             	3.00303732e+02
546             	3.00303752e+02
547             	3.00303771e+02
548             	3.00303791e+02
549             	3.00303810e+02
550             	3.00303830e+02
551             	3.00303849e+02
552             	3.00303868e+02
553             	3.00303887e+02
554             	3.00303906e+02
555             	3.00303925e+02
556             	3.00303943e+02
557             	3.00303961e+02
558             	3.00303979e+02
559             	3.00303998e+02
560             	3.00304016e+02
561             	3.00304033e+02
562             	3.00304051e+02
563             	3.00304069e+02
564             	3.00304086e+02
565             	3.00304103e+02
566             	3.00304120e+02
567             	3.00304137e+02
568             	3.00304154e+02
569             	3.00304171e+02
570             	3.00304188e+02
571             	3.00304205e+02
572             	3.00304221e+02
573             	3.00304238e+02
574             	3.00304255e+02
575             	3.00304271e+02
576             	3.00304287e+02
577             	3.00304304e+02
578             	3.00304320e+02
579             	3.00304336e+02
580             	3.00304352e+02
581             	3.00304368e+02
582             	3.00304384e+02
583             	3.00304400e+02
584             	3.00304416e+02
585             	3.00304432e+02
586             	3.00304447e+02
587             	3.00304463e+02
588             	3.00304479e+02
589             	3.00304494e+02
590             	3.00304510e+02
591             	3.00304525e+02
592             	3.00304540e+02
593             	3.00304555e+02
594             	3.00304570e+02
595             	3.00304585e+02
596             	3.00304600e+02
597             	3.00304615e+02
598             	3.00304629e+02
599             	3.00304644e+02
600             	3.00304658e+02
601             	3.00304673e+02
602             	3.00304687e+02
603             	3.00304701e+02
604             	3.00304714e+02
605             	3.00304728e+02
606             	3.00304742e+02
607             	3.00304755e+02
608             	3.00304768e+02
609             	3.00304782e+02
610             	3.00304795e+02
611             	3.00304808e+02
612             	3.00304821e+02
613             	3.00304834e+02
614             	3.00304847e+02
615             	3.00304860e+02
616             	3.00304872e+02
617             	3.00304885e+02
618             	3.00304898e+02
619             	3.00304910e+02
620             	3.00304922e+02
621             	3.00304935e+02
