# Region        : cellZone component_0
# Cells         : 1104
# Volume        : 2.29149402e+00
# Time          	volAverage(T)
1               	3.00024069e+02
2               	3.00048015e+02
3               	3.00070864e+02
4               	3.00092895e+02
5               	3.00114415e+02
6               	3.00135547e+02
7               	3.00156343e+02
8               	3.00176833e+02
9               	3.00197103e+02
10              	3.00217148e+02
11              	3.00236981e+02
12              	3.00256633e+02
13              	3.00276120e+02
14              	3.00295495e+02
15              	3.00314766e+02
16              	3.00333953e+02
17              	3.00353084e+02
18              	3.00372150e+02
19              	3.00390924e+02
20              	3.00409816e+02
21              	3.00428527e+02
22              	3.00446916e+02
23              	3.00465172e+02
24              	3.00483108e+02
25              	3.00500628e+02
26              	3.00517953e+02
27              	3.00534796e+02
28              	3.00551497e+02
29              	3.00567703e+02
30              	3.00584022e+02
31              	3.00599812e+02
32              	3.00615232e+02
33              	3.00630519e+02
34              	3.00645717e+02
35              	3.00660609e+02
36              	3.00675353e+02
37              	3.00690012e+02
38              	3.00704675e+02
39              	3.00719708e+02
40              	3.00734501e+02
41              	3.00749163e+02
42              	3.00763751e+02
43              	3.00778108e+02
44              	3.00792308e+02
45              	3.00806445e+02
46              	3.00820266e+02
47              	3.00833841e+02
48              	3.00846959e+02
49              	3.00860270e+02
50              	3.00872881e+02
51              	3.00885436e+02
52              	3.00897916e+02
53              	3.00910362e+02
54              	3.00922726e+02
55              	3.00935156e+02
56              	3.00947656e+02
57              	3.00959963e+02
58              	3.00972030e+02
59              	3.00984312e+02
60              	3.00996045e+02
61              	3.01007746e+02
62              	3.01019182e+02
63              	3.01030295e+02
64              	3.01041025e+02
65              	3.01051572e+02
66              	3.01062388e+02
67              	3.01072948e+02
68              	3.01083627e+02
69              	3.01094557e+02
70              	3.01105568e+02
71              	3.01116320e+02
72              	3.01127211e+02
73              	3.01137885e+02
74              	3.01147920e+02
75              	3.01157418e+02
76              	3.01166906e+02
77              	3.01175476e+02
78              	3.01184017e+02
79              	3.01192366e+02
80              	3.01200796e+02
81              	3.01209313e+02
82              	3.01218096e+02
83              	3.01227721e+02
84              	3.01237132e+02
85              	3.01246413e+02
86              	3.01254999e+02
87              	3.01263736e+02
88              	3.01271737e+02
89              	3.01279685e+02
90              	3.01287352e+02
91              	3.01294617e+02
92              	3.01301946e+02
93              	3.01309236e+02
94              	3.01316540e+02
95              	3.01323900e+02
96              	3.01331778e+02
97              	3.01340089e+02
98              	3.01348115e+02
99              	3.01355330e+02
100             	3.01361949e+02
101             	3.01368089e+02
102             	3.01374475e+02
103             	3.01381669e+02
104             	3.01388721e+02
105             	3.01395230e+02
106             	3.01401544e+02
107             	3.01407943e+02
108             	3.01414610e+02
109             	3.01421323e+02
110             	3.01427984e+02
111             	3.01434584e+02
112             	3.01440828e+02
113             	3.01447179e+02
114             	3.01454103e+02
115             	3.01461060e+02
116             	3.01468228e+02
117             	3.01475478e+02
118             	3.01482792e+02
119             	3.01489904e+02
120             	3.01496616e+02
121             	3.01502880e+02
122             	3.01508916e+02
123             	3.01514930e+02
124             	3.01520712e+02
125             	3.01526249e+02
126             	3.01531922e+02
127             	3.01537572e+02
128             	3.01543260e+02
129             	3.01549426e+02
130             	3.01555555e+02
131             	3.01561820e+02
132             	3.01568215e+02
133             	3.01574861e+02
134             	3.01581496e+02
135             	3.01587950e+02
136             	3.01594027e+02
137             	3.01600202e+02
138             	3.01606084e+02
139             	3.01611834e+02
140             	3.01617523e+02
141             	3.01623168e+02
142             	3.01628829e+02
143             	3.01634505e+02
144             	3.01640146e+02
145             	3.01645674e+02
146             	3.01651150e+02
147             	3.01656698e+02
148             	3.01662197e+02
149             	3.01667758e+02
150             	3.01673391e+02
151             	3.01679114e+02
152             	3.01684928e+02
153             	3.01690773e+02
154             	3.01696620e+02
155             	3.01702558e+02
156             	3.01708450e+02
157             	3.01714347e+02
158             	3.01720251e+02
159             	3.01725809e+02
160             	3.01731133e+02
161             	3.01736255e+02
162             	3.01741203e+02
163             	3.01746140e+02
164             	3.01750943e+02
165             	3.01755624e+02
166             	3.01760334e+02
167             	3.01764975e+02
168             	3.01769639e+02
169             	3.01774343e+02
170             	3.01779128e+02
171             	3.01783957e+02
172             	3.01788839e+02
173             	3.01793760e+02
174             	3.01798612e+02
175             	3.01803447e+02
176             	3.01808221e+02
177             	3.01813114e+02
178             	3.01817666e+02
179             	3.01822079e+02
180             	3.01826274e+02
181             	3.01830319e+02
182             	3.01834252e+02
183             	3.01838367e+02
184             	3.01842437e+02
185             	3.01846489e+02
186             	3.01850668e+02
187             	3.01854811e+02
188             	3.01859030e+02
189             	3.01863364e+02
190             	3.01867868e+02
191             	3.01872176e+02
192             	3.01876479e+02
193             	3.01880971e+02
194             	3.01885403e+02
195             	3.01889588e+02
196             	3.01893665e+02
197             	3.01897694e+02
198             	3.01901686e+02
199             	3.01905628e+02
200             	3.01909533e+02
201             	3.01913366e+02
202             	3.01917136e+02
203             	3.01920842e+02
204             	3.01924481e+02
205             	3.01928086e+02
206             	3.01931764e+02
207             	3.01935339e+02
208             	3.01938995e+02
209             	3.01942703e+02
210             	3.01946352e+02
211             	3.01950067e+02
212             	3.01953704e+02
213             	3.01957372e+02
214             	3.01961109e+02
215             	3.01964935e+02
216             	3.01968701e+02
217             	3.01972356e+02
218             	3.01975992e+02
219             	3.01979605e+02
220             	3.01983056e+02
221             	3.01986518e+02
222             	3.01989902e+02
223             	3.01993106e+02
224             	3.01996347e+02
225             	3.01999568e+02
226             	3.02002769e+02
227             	3.02005892e+02
228             	3.02009026e+02
229             	3.02012259e+02
230             	3.02015490e+02
231             	3.02018745e+02
232             	3.02021965e+02
233             	3.02025199e+02
234             	3.02028471e+02
235             	3.02031716e+02
236             	3.02034860e+02
237             	3.02038132e+02
238             	3.02041283e+02
239             	3.02044385e+02
240             	3.02047487e+02
241             	3.02050620e+02
242             	3.02053777e+02
243             	3.02056923e+02
244             	3.02060055e+02
245             	3.02063154e+02
246             	3.02066240e+02
247             	3.02069394e+02
248             	3.02072442e+02
249             	3.02075357e+02
250             	3.02078328e+02
251             	3.02081227e+02
252             	3.02084080e+02
253             	3.02086813e+02
254             	3.02089584e+02
255             	3.02092310e+02
256             	3.02094993e+02
257             	3.02097652e+02
258             	3.02100295e+02
259             	3.02102836e+02
260             	3.02105389e+02
261             	3.02107887e+02
262             	3.02110270e+02
263             	3.02112786e+02
264             	3.02115360e+02
265             	3.02117960e+02
266             	3.02120622e+02
267             	3.02123280e+02
268             	3.02125928e+02
269             	3.02128601e+02
270             	3.02131294e+02
271             	3.02133859e+02
272             	3.02136363e+02
273             	3.02138729e+02
274             	3.02141130e+02
275             	3.02143413e+02
276             	3.02145639e+02
277             	3.02147994e+02
278             	3.02150342e+02
279             	3.02152639e+02
280             	3.02154935e+02
281             	3.02157202e+02
282             	3.02159435e+02
283             	3.02161629e+02
284             	3.02163778e+02
285             	3.02165891e+02
286             	3.02167939e+02
287             	3.02169971e+02
288             	3.02172083e+02
289             	3.02174231e+02
290             	3.02176410e+02
291             	3.02178616e+02
292             	3.02180858e+02
293             	3.02183074e+02
294             	3.02185287e+02
295             	3.02187485e+02
296             	3.02189643e+02
297             	3.02191770e+02
298             	3.02193847e+02
299             	3.02195804e+02
300             	3.02197709e+02
301             	3.02199567e+02
302             	3.02201385e+02
303             	3.02203165e+02
304             	3.02204917e+02
305             	3.02206654e+02
306             	3.02208321e+02
307             	3.02210055e+02
308             	3.02211821e+02
309             	3.02213601e+02
310             	3.02215361e+02
311             	3.02217026e+02
312             	3.02218758e+02
313             	3.02220548e+02
314             	3.02222333e+02
315             	3.02224122e+02
316             	3.02225944e+02
317             	3.02227808e+02
318             	3.02229638e+02
319             	3.02231344e+02
320             	3.02233016e+02
321             	3.02234658e+02
322             	3.02236301e+02
323             	3.02237956e+02
324             	3.02239588e+02
325             	3.02241204e+02
326             	3.02242791e+02
327             	3.02244347e+02
328             	3.02245882e+02
329             	3.02247394e+02
330             	3.02248832e+02
331             	3.02250263e+02
332             	3.02251625e+02
333             	3.02253074e+02
334             	3.02254608e+02
335             	3.02256221e+02
336             	3.02257862e+02
337             	3.02259507e+02
338             	3.02261194e+02
339             	3.02262918e+02
340             	3.02264647e+02
341             	3.02266192e+02
342             	3.02267686e+02
343             	3.02269117e+02
344             	3.02270488e+02
345             	3.02271823e+02
346             	3.02273116e+02
347             	3.02274343e+02
348             	3.02275507e+02
349             	3.02276586e+02
350             	3.02277725e+02
351             	3.02278910e+02
352             	3.02280112e+02
353             	3.02281228e+02
354             	3.02282520e+02
355             	3.02283838e+02
356             	3.02285168e+02
357             	3.02286504e+02
358             	3.02287834e+02
359             	3.02289120e+02
360             	3.02290446e+02
361             	3.02291833e+02
362             	3.02293060e+02
363             	3.02294165e+02
364             	3.02295217e+02
365             	3.02296203e+02
366             	3.02297137e+02
367             	3.02298030e+02
368             	3.02298935e+02
369             	3.02299858e+02
370             	3.02300785e+02
371             	3.02301671e+02
372             	3.02302596e+02
373             	3.02303593e+02
374             	3.02304566e+02
375             	3.02305555e+02
376             	3.02306598e+02
377             	3.02307665e+02
378             	3.02308740e+02
379             	3.02309834e+02
380             	3.02311015e+02
381             	3.02312217e+02
382             	3.02313467e+02
383             	3.02314681e+02
384             	3.02315859e+02
385             	3.02317019e+02
386             	3.02318045e+02
387             	3.02318957e+02
388             	3.02319810e+02
389             	3.02320633e+02
390             	3.02321411e+02
391             	3.02322166e+02
392             	3.02322919e+02
393             	3.02323657e+02
394             	3.02324396e+02
395             	3.02325186e+02
396             	3.02325970e+02
397             	3.02326865e+02
398             	3.02327808e+02
399             	3.02328686e+02
400             	3.02329570e+02
401             	3.02330519e+02
402             	3.02331519e+02
403             	3.02332575e+02
404             	3.02333677e+02
405             	3.02334794e+02
406             	3.02335837e+02
407             	3.02336956e+02
408             	3.02338068e+02
409             	3.02339189e+02
410             	3.02340196e+02
411             	3.02341112e+02
412             	3.02341975e+02
413             	3.02342767e+02
414             	3.02343504e+02
415             	3.02344199e+02
416             	3.02344855e+02
417             	3.02345525e+02
418             	3.02346130e+02
419             	3.02346799e+02
420             	3.02347494e+02
421             	3.02348211e+02
422             	3.02348914e+02
423             	3.02349652e+02
424             	3.02350412e+02
425             	3.02351227e+02
426             	3.02352103e+02
427             	3.02353024e+02
428             	3.02353948e+02
429             	3.02354905e+02
430             	3.02355913e+02
431             	3.02356934e+02
432             	3.02357932e+02
433             	3.02358923e+02
434             	3.02359888e+02
435             	3.02360873e+02
436             	3.02361839e+02
437             	3.02362775e+02
438             	3.02363685e+02
439             	3.02364547e+02
440             	3.02365386e+02
441             	3.02366184e+02
442             	3.02366956e+02
443             	3.02367715e+02
444             	3.02368344e+02
445             	3.02369040e+02
446             	3.02369781e+02
447             	3.02370545e+02
448             	3.02371219e+02
449             	3.02371873e+02
450             	3.02372539e+02
451             	3.02373212e+02
452             	3.02373882e+02
453             	3.02374555e+02
454             	3.02375230e+02
455             	3.02375910e+02
456             	3.02376603e+02
457             	3.02377314e+02
458             	3.02378046e+02
459             	3.02378777e+02
460             	3.02379506e+02
461             	3.02380233e+02
462             	3.02380959e+02
463             	3.02381646e+02
464             	3.02382326e+02
465             	3.02383003e+02
466             	3.02383683e+02
467             	3.02384371e+02
468             	3.02385057e+02
469             	3.02385747e+02
470             	3.02386438e+02
471             	3.02387129e+02
472             	3.02387819e+02
473             	3.02388508e+02
474             	3.02389198e+02
475             	3.02389895e+02
476             	3.02390592e+02
477             	3.02391185e+02
478             	3.02391783e+02
479             	3.02392376e+02
480             	3.02392932e+02
481             	3.02393458e+02
482             	3.02393980e+02
483             	3.02394511e+02
484             	3.02395039e+02
485             	3.02395555e+02
486             	3.02396046e+02
487             	3.02396538e+02
488             	3.02397056e+02
489             	3.02397551e+02
490             	3.02398054e+02
491             	3.02398549e+02
492             	3.02398979e+02
493             	3.02399484e+02
494             	3.02400029e+02
495             	3.02400608e+02
496             	3.02401174e+02
497             	3.02401746e+02
498             	3.02402346e+02
499             	3.02402907e+02
500             	3.02403434e+02
501             	3.02403953e+02
502             	3.02404457e+02
503             	3.02404936e+02
504             	3.02405411e+02
505             	3.02405892e+02
506             	3.02406356e+02
507             	3.02406834e+02
508             	3.02407317e+02
509             	3.02407758e+02
510             	3.02408243e+02
511             	3.02408731e+02
512             	3.02409262e+02
513             	3.02409789e+02
514             	3.02410294e+02
515             	3.02410818e+02
516             	3.02411340e+02
517             	3.02411869e+02
518             	3.02412360e+02
519             	3.02412808e+02
520             	3.02413243e+02
521             	3.02413633e+02
522             	3.02414025e+02
523             	3.02414409e+02
524             	3.02414784e+02
525             	3.02415168e+02
526             	3.02415574e+02
527             	3.02415997e+02
528             	3.02416411e+02
529             	3.02416846e+02
530             	3.02417287e+02
531             	3.02417717e+02
532             	3.02418151e+02
533             	3.02418540e+02
534             	3.02418849e+02
535             	3.02419087e+02
536             	3.02419442e+02
537             	3.02419839e+02
538             	3.02420228e+02
539             	3.02420631e+02
540             	3.02421074e+02
541             	3.02421558e+02
542             	3.02421978e+02
543             	3.02422399e+02
544             	3.02422809e+02
545             	3.02423213e+02
546             	3.02423601e+02
547             	3.02423992e+02
548             	3.02424359e+02
549             	3.02424758e+02
550             	3.02425141e+02
551             	3.02425543e+02
552             	3.02425987e+02
553             	3.02426420e+02
554             	3.02426844e+02
555             	3.02427255e+02
556             	3.02427650e+02
557             	3.02428028e+02
558             	3.02428374e+02
559             	3.02428726e+02
560             	3.02429082e+02
561             	3.02429431e+02
562             	3.02429759e+02
563             	3.02430052e+02
564             	3.02430366e+02
565             	3.02430703e+02
566             	3.02431030e+02
567             	3.02431366e+02
568             	3.02431687e+02
569             	3.02432016e+02
570             	3.02432334e+02
571             	3.02432622e+02
572             	3.02432899e+02
573             	3.02433197e+02
574             	3.02433490e+02
575             	3.02433778e+02
576             	3.02434067e+02
577             	3.02434373e+02
578             	3.02434698e+02
579             	3.02435009e+02
580             	3.02435309e+02
581             	3.02435622e+02
582             	3.02435968e+02
583             	3.02436320e+02
584             	3.02436626e+02
585             	3.02436935e+02
586             	3.02437248e+02
587             	3.02437549e+02
588             	3.02437831e+02
589             	3.02438094e+02
590             	3.02438336e+02
591             	3.02438594e+02
592             	3.02438851e+02
593             	3.02439104e+02
594             	3.02439386e+02
595             	3.02439679e+02
596             	3.02439938e+02
597             	3.02440178e+02
598             	3.02440354e+02
599             	3.02440549e+02
600             	3.02440755e+02
601             	3.02440968e+02
602             	3.02441145e+02
603             	3.02441297e+02
604             	3.02441495e+02
605             	3.02441696e+02
606             	3.02441898e+02
607             	3.02442151e+02
608             	3.02442291e+02
609             	3.02442505e+02
610             	3.02442757e+02
611             	3.02443022e+02
612             	3.02443290e+02
613             	3.02443572e+02
614             	3.02443872e+02
615             	3.02444148e+02
616             	3.02444386e+02
617             	3.02444626e+02
618             	3.02444883e+02
619             	3.02445119e+02
620             	3.02445347e+02
621             	3.02445561e+02
