# Region        : cellZone component_2
# Cells         : 201
# Volume        : 3.81853026e-01
# Time          	volAverage(T)
1               	3.00114655e+02
2               	3.00228230e+02
3               	3.00336609e+02
4               	3.00441351e+02
5               	3.00543748e+02
6               	3.00644296e+02
7               	3.00743240e+02
8               	3.00841145e+02
9               	3.00938351e+02
10              	3.01034828e+02
11              	3.01130618e+02
12              	3.01224996e+02
13              	3.01318696e+02
14              	3.01411466e+02
15              	3.01504900e+02
16              	3.01596308e+02
17              	3.01686795e+02
18              	3.01776476e+02
19              	3.01865500e+02
20              	3.01954124e+02
21              	3.02041681e+02
22              	3.02127336e+02
23              	3.02212248e+02
24              	3.02294942e+02
25              	3.02377376e+02
26              	3.02459328e+02
27              	3.02539098e+02
28              	3.02617315e+02
29              	3.02691857e+02
30              	3.02765126e+02
31              	3.02835867e+02
32              	3.02904724e+02
33              	3.02972606e+02
34              	3.03040342e+02
35              	3.03108214e+02
36              	3.03174531e+02
37              	3.03241050e+02
38              	3.03305949e+02
39              	3.03371012e+02
40              	3.03434678e+02
41              	3.03498196e+02
42              	3.03560517e+02
43              	3.03623395e+02
44              	3.03684165e+02
45              	3.03745285e+02
46              	3.03805449e+02
47              	3.03865324e+02
48              	3.03925070e+02
49              	3.03983316e+02
50              	3.04040846e+02
51              	3.04099281e+02
52              	3.04155303e+02
53              	3.04211062e+02
54              	3.04267056e+02
55              	3.04322321e+02
56              	3.04376907e+02
57              	3.04431033e+02
58              	3.04484917e+02
59              	3.04539859e+02
60              	3.04592179e+02
61              	3.04644746e+02
62              	3.04696451e+02
63              	3.04747752e+02
64              	3.04798913e+02
65              	3.04850216e+02
66              	3.04900899e+02
67              	3.04950988e+02
68              	3.05000209e+02
69              	3.05048604e+02
70              	3.05096263e+02
71              	3.05143487e+02
72              	3.05189300e+02
73              	3.05235479e+02
74              	3.05280615e+02
75              	3.05325673e+02
76              	3.05369908e+02
77              	3.05414578e+02
78              	3.05458950e+02
79              	3.05502192e+02
80              	3.05545336e+02
81              	3.05587687e+02
82              	3.05629749e+02
83              	3.05670957e+02
84              	3.05712025e+02
85              	3.05752354e+02
86              	3.05792146e+02
87              	3.05830961e+02
88              	3.05869346e+02
89              	3.05906794e+02
90              	3.05945040e+02
91              	3.05981379e+02
92              	3.06017244e+02
93              	3.06053018e+02
94              	3.06088150e+02
95              	3.06122980e+02
96              	3.06157493e+02
97              	3.06191814e+02
98              	3.06225914e+02
99              	3.06259786e+02
100             	3.06293325e+02
101             	3.06326455e+02
102             	3.06359527e+02
103             	3.06392327e+02
104             	3.06425144e+02
105             	3.06457820e+02
106             	3.06490419e+02
107             	3.06522902e+02
108             	3.06555220e+02
109             	3.06587327e+02
110             	3.06619160e+02
111             	3.06650743e+02
112             	3.06682051e+02
113             	3.06713100e+02
114             	3.06743902e+02
115             	3.06774417e+02
116             	3.06804478e+02
117             	3.06834348e+02
118             	3.06863810e+02
119             	3.06893230e+02
120             	3.06922108e+02
121             	3.06950700e+02
122             	3.06978794e+02
123             	3.07006399e+02
124             	3.07033276e+02
125             	3.07059884e+02
126             	3.07086199e+02
127             	3.07112093e+02
128             	3.07137505e+02
129             	3.07162318e+02
130             	3.07186946e+02
131             	3.07211375e+02
132             	3.07235582e+02
133             	3.07259427e+02
134             	3.07283020e+02
135             	3.07306281e+02
136             	3.07329309e+02
137             	3.07352126e+02
138             	3.07374820e+02
139             	3.07397176e+02
140             	3.07419382e+02
141             	3.07441620e+02
142             	3.07463696e+02
143             	3.07485633e+02
144             	3.07507443e+02
145             	3.07529141e+02
146             	3.07550715e+02
147             	3.07572198e+02
148             	3.07593618e+02
149             	3.07614991e+02
150             	3.07636235e+02
151             	3.07657317e+02
152             	3.07678227e+02
153             	3.07698970e+02
154             	3.07719597e+02
155             	3.07740143e+02
156             	3.07760546e+02
157             	3.07780780e+02
158             	3.07800824e+02
159             	3.07820618e+02
160             	3.07840183e+02
161             	3.07859535e+02
162             	3.07878656e+02
163             	3.07897509e+02
164             	3.07916048e+02
165             	3.07934261e+02
166             	3.07952283e+02
167             	3.07970066e+02
168             	3.07987562e+02
169             	3.08004871e+02
170             	3.08021987e+02
171             	3.08038848e+02
172             	3.08055530e+02
173             	3.08072040e+02
174             	3.08088348e+02
175             	3.08104425e+02
176             	3.08120220e+02
177             	3.08135712e+02
178             	3.08151157e+02
179             	3.08166471e+02
180             	3.08181453e+02
181             	3.08196440e+02
182             	3.08211521e+02
183             	3.08226510e+02
184             	3.08241627e+02
185             	3.08256694e+02
186             	3.08271510e+02
187             	3.08286408e+02
188             	3.08301280e+02
189             	3.08315919e+02
190             	3.08330438e+02
191             	3.08344746e+02
192             	3.08359003e+02
193             	3.08372873e+02
194             	3.08386528e+02
195             	3.08399795e+02
196             	3.08412861e+02
197             	3.08425780e+02
198             	3.08438522e+02
199             	3.08451151e+02
200             	3.08463687e+02
201             	3.08476140e+02
202             	3.08488509e+02
203             	3.08500804e+02
204             	3.08513055e+02
205             	3.08525259e+02
206             	3.08537472e+02
207             	3.08549654e+02
208             	3.08561809e+02
209             	3.08573928e+02
210             	3.08585949e+02
211             	3.08597889e+02
212             	3.08609724e+02
213             	3.08621426e+02
214             	3.08632970e+02
215             	3.08644340e+02
216             	3.08655522e+02
217             	3.08666506e+02
218             	3.08677313e+02
219             	3.08687966e+02
220             	3.08698449e+02
221             	3.08708759e+02
222             	3.08718919e+02
223             	3.08728890e+02
224             	3.08738637e+02
225             	3.08748316e+02
226             	3.08758855e+02
227             	3.08769822e+02
228             	3.08781502e+02
229             	3.08793682e+02
230             	3.08806185e+02
231             	3.08818933e+02
232             	3.08831853e+02
233             	3.08844968e+02
234             	3.08858323e+02
235             	3.08871900e+02
236             	3.08885700e+02
237             	3.08899722e+02
238             	3.08913922e+02
239             	3.08928280e+02
240             	3.08942626e+02
241             	3.08956786e+02
242             	3.08970656e+02
243             	3.08984152e+02
244             	3.08997185e+02
245             	3.09009712e+02
246             	3.09021743e+02
247             	3.09033275e+02
248             	3.09044268e+02
249             	3.09054862e+02
250             	3.09065067e+02
251             	3.09074761e+02
252             	3.09084160e+02
253             	3.09093660e+02
254             	3.09103264e+02
255             	3.09112910e+02
256             	3.09122814e+02
257             	3.09132962e+02
258             	3.09143378e+02
259             	3.09153969e+02
260             	3.09164990e+02
261             	3.09176272e+02
262             	3.09187836e+02
263             	3.09199837e+02
264             	3.09212196e+02
265             	3.09224573e+02
266             	3.09237108e+02
267             	3.09249883e+02
268             	3.09262752e+02
269             	3.09275641e+02
270             	3.09288497e+02
271             	3.09301301e+02
272             	3.09314050e+02
273             	3.09326753e+02
274             	3.09339385e+02
275             	3.09351965e+02
276             	3.09364438e+02
277             	3.09376929e+02
278             	3.09389260e+02
279             	3.09401632e+02
280             	3.09414077e+02
281             	3.09425997e+02
282             	3.09438153e+02
283             	3.09450345e+02
284             	3.09462526e+02
285             	3.09474644e+02
286             	3.09486538e+02
287             	3.09498168e+02
288             	3.09509668e+02
289             	3.09521070e+02
290             	3.09532276e+02
291             	3.09543491e+02
292             	3.09554546e+02
293             	3.09565474e+02
294             	3.09576526e+02
295             	3.09587567e+02
296             	3.09597929e+02
297             	3.09608399e+02
298             	3.09618864e+02
299             	3.09629204e+02
300             	3.09639476e+02
301             	3.09649636e+02
302             	3.09659757e+02
303             	3.09669489e+02
304             	3.09679143e+02
305             	3.09688793e+02
306             	3.09698358e+02
307             	3.09707960e+02
308             	3.09717585e+02
309             	3.09727236e+02
310             	3.09736807e+02
311             	3.09746275e+02
312             	3.09755650e+02
313             	3.09764992e+02
314             	3.09774257e+02
315             	3.09783264e+02
316             	3.09792239e+02
317             	3.09801152e+02
318             	3.09809763e+02
319             	3.09818211e+02
320             	3.09826370e+02
321             	3.09834641e+02
322             	3.09843105e+02
323             	3.09851671e+02
324             	3.09860260e+02
325             	3.09868971e+02
326             	3.09877428e+02
327             	3.09885857e+02
328             	3.09894431e+02
329             	3.09902523e+02
330             	3.09910397e+02
331             	3.09918323e+02
332             	3.09926333e+02
333             	3.09934208e+02
334             	3.09942120e+02
335             	3.09950194e+02
336             	3.09958299e+02
337             	3.09966357e+02
338             	3.09974533e+02
339             	3.09982904e+02
340             	3.09991568e+02
341             	3.10000552e+02
342             	3.10009729e+02
343             	3.10018441e+02
344             	3.10027009e+02
345             	3.10035307e+02
346             	3.10043668e+02
347             	3.10052033e+02
348             	3.10060196e+02
349             	3.10067482e+02
350             	3.10074824e+02
351             	3.10082019e+02
352             	3.10089125e+02
353             	3.10096135e+02
354             	3.10103080e+02
355             	3.10109974e+02
356             	3.10116874e+02
357             	3.10123888e+02
358             	3.10130899e+02
359             	3.10137943e+02
360             	3.10144953e+02
361             	3.10151822e+02
362             	3.10158459e+02
363             	3.10164851e+02
364             	3.10171095e+02
365             	3.10176900e+02
366             	3.10182377e+02
367             	3.10187590e+02
368             	3.10192851e+02
369             	3.10198068e+02
370             	3.10203334e+02
371             	3.10208761e+02
372             	3.10214342e+02
373             	3.10219908e+02
374             	3.10225592e+02
375             	3.10231327e+02
376             	3.10237081e+02
377             	3.10242924e+02
378             	3.10249013e+02
379             	3.10254553e+02
380             	3.10260065e+02
381             	3.10265566e+02
382             	3.10270950e+02
383             	3.10276038e+02
384             	3.10280955e+02
385             	3.10285556e+02
386             	3.10289905e+02
387             	3.10294510e+02
388             	3.10298943e+02
389             	3.10303405e+02
390             	3.10307959e+02
391             	3.10312585e+02
392             	3.10317248e+02
393             	3.10322004e+02
394             	3.10326652e+02
395             	3.10331466e+02
396             	3.10336303e+02
397             	3.10341255e+02
398             	3.10346538e+02
399             	3.10352039e+02
400             	3.10356940e+02
401             	3.10361540e+02
402             	3.10366301e+02
403             	3.10371060e+02
404             	3.10375809e+02
405             	3.10380560e+02
406             	3.10385060e+02
407             	3.10389527e+02
408             	3.10394153e+02
409             	3.10398679e+02
410             	3.10402780e+02
411             	3.10406970e+02
412             	3.10410931e+02
413             	3.10414869e+02
414             	3.10418750e+02
415             	3.10422422e+02
416             	3.10425997e+02
417             	3.10429537e+02
418             	3.10433173e+02
419             	3.10436752e+02
420             	3.10440333e+02
421             	3.10443943e+02
422             	3.10447586e+02
423             	3.10451268e+02
424             	3.10454963e+02
425             	3.10458641e+02
426             	3.10462261e+02
427             	3.10465851e+02
428             	3.10469390e+02
429             	3.10472827e+02
430             	3.10476200e+02
431             	3.10479565e+02
432             	3.10482941e+02
433             	3.10486365e+02
434             	3.10489793e+02
435             	3.10493169e+02
436             	3.10496767e+02
437             	3.10499596e+02
438             	3.10502683e+02
439             	3.10505813e+02
440             	3.10508737e+02
441             	3.10511752e+02
442             	3.10514709e+02
443             	3.10517386e+02
444             	3.10520304e+02
445             	3.10523347e+02
446             	3.10526426e+02
447             	3.10529570e+02
448             	3.10532675e+02
449             	3.10535082e+02
450             	3.10537784e+02
451             	3.10540383e+02
452             	3.10543006e+02
453             	3.10545648e+02
454             	3.10548270e+02
455             	3.10550710e+02
456             	3.10553287e+02
457             	3.10556020e+02
458             	3.10558801e+02
459             	3.10561567e+02
460             	3.10564499e+02
461             	3.10567439e+02
462             	3.10570169e+02
463             	3.10573359e+02
464             	3.10576731e+02
465             	3.10580212e+02
466             	3.10583209e+02
467             	3.10586101e+02
468             	3.10589121e+02
469             	3.10592169e+02
470             	3.10595222e+02
471             	3.10598247e+02
472             	3.10601121e+02
473             	3.10603692e+02
474             	3.10605998e+02
475             	3.10608274e+02
476             	3.10610499e+02
477             	3.10612630e+02
478             	3.10614561e+02
479             	3.10616353e+02
480             	3.10618312e+02
481             	3.10620435e+02
482             	3.10622653e+02
483             	3.10624982e+02
484             	3.10627576e+02
485             	3.10630001e+02
486             	3.10631648e+02
487             	3.10633598e+02
488             	3.10635707e+02
489             	3.10637974e+02
490             	3.10640101e+02
491             	3.10642512e+02
492             	3.10644203e+02
493             	3.10646135e+02
494             	3.10648231e+02
495             	3.10650146e+02
496             	3.10651892e+02
497             	3.10653299e+02
498             	3.10654672e+02
499             	3.10655655e+02
500             	3.10656742e+02
501             	3.10658303e+02
502             	3.10660113e+02
503             	3.10662241e+02
504             	3.10664553e+02
505             	3.10666255e+02
506             	3.10668619e+02
507             	3.10671385e+02
508             	3.10674331e+02
509             	3.10676990e+02
510             	3.10678776e+02
511             	3.10680186e+02
512             	3.10681501e+02
513             	3.10682651e+02
514             	3.10683534e+02
515             	3.10684316e+02
516             	3.10685152e+02
517             	3.10684681e+02
518             	3.10684961e+02
519             	3.10685581e+02
520             	3.10686366e+02
521             	3.10687286e+02
522             	3.10688673e+02
523             	3.10690609e+02
524             	3.10692645e+02
525             	3.10694800e+02
526             	3.10697295e+02
527             	3.10699187e+02
528             	3.10700814e+02
529             	3.10702231e+02
530             	3.10703231e+02
531             	3.10703685e+02
532             	3.10703675e+02
533             	3.10703630e+02
534             	3.10703658e+02
535             	3.10703776e+02
536             	3.10703912e+02
537             	3.10704280e+02
538             	3.10704967e+02
539             	3.10706222e+02
540             	3.10708128e+02
541             	3.10709486e+02
542             	3.10711568e+02
543             	3.10713957e+02
544             	3.10716398e+02
545             	3.10719231e+02
546             	3.10721953e+02
547             	3.10724598e+02
548             	3.10726623e+02
549             	3.10728780e+02
550             	3.10730991e+02
551             	3.10732848e+02
552             	3.10734672e+02
553             	3.10736385e+02
554             	3.10737852e+02
555             	3.10739009e+02
556             	3.10740344e+02
557             	3.10741905e+02
558             	3.10743213e+02
559             	3.10744541e+02
560             	3.10745915e+02
561             	3.10747323e+02
562             	3.10748682e+02
563             	3.10749704e+02
564             	3.10750479e+02
565             	3.10751122e+02
566             	3.10751680e+02
567             	3.10752181e+02
568             	3.10752639e+02
569             	3.10753075e+02
570             	3.10753545e+02
571             	3.10753989e+02
572             	3.10754523e+02
573             	3.10755117e+02
574             	3.10755728e+02
575             	3.10756333e+02
576             	3.10756975e+02
577             	3.10757607e+02
578             	3.10758300e+02
579             	3.10759362e+02
580             	3.10759969e+02
581             	3.10760554e+02
582             	3.10761281e+02
583             	3.10761999e+02
584             	3.10762590e+02
585             	3.10762989e+02
586             	3.10763488e+02
587             	3.10763956e+02
588             	3.10764348e+02
589             	3.10764664e+02
590             	3.10764871e+02
591             	3.10764965e+02
592             	3.10764974e+02
593             	3.10764913e+02
594             	3.10764833e+02
595             	3.10764788e+02
596             	3.10764381e+02
597             	3.10764325e+02
598             	3.10764603e+02
599             	3.10765021e+02
600             	3.10765579e+02
601             	3.10766252e+02
602             	3.10767080e+02
603             	3.10767997e+02
604             	3.10768749e+02
605             	3.10769401e+02
606             	3.10769991e+02
607             	3.10770289e+02
608             	3.10770496e+02
609             	3.10770859e+02
610             	3.10771293e+02
611             	3.10771734e+02
612             	3.10771773e+02
613             	3.10771864e+02
614             	3.10771819e+02
615             	3.10771909e+02
616             	3.10772022e+02
617             	3.10772111e+02
618             	3.10772154e+02
619             	3.10772153e+02
620             	3.10772107e+02
621             	3.10772040e+02
