# Region        : cellZone component_2
# Cells         : 48
# Volume        : 7.74683858e-02
# Time          	volAverage(T)
1               	3.01766281e+02
2               	3.03510947e+02
3               	3.05108743e+02
4               	3.06617170e+02
5               	3.08072396e+02
6               	3.09477253e+02
7               	3.10844977e+02
8               	3.12183630e+02
9               	3.13494021e+02
10              	3.14783722e+02
11              	3.16049776e+02
12              	3.17218062e+02
13              	3.18311778e+02
14              	3.19378073e+02
15              	3.20451619e+02
16              	3.21529375e+02
17              	3.22583989e+02
18              	3.23601672e+02
19              	3.24581663e+02
20              	3.25579469e+02
21              	3.26545595e+02
22              	3.27500930e+02
23              	3.28429238e+02
24              	3.29351508e+02
25              	3.30259443e+02
26              	3.31135178e+02
27              	3.31985147e+02
28              	3.32762998e+02
29              	3.33517623e+02
30              	3.34254530e+02
31              	3.35015796e+02
32              	3.35744300e+02
33              	3.36408303e+02
34              	3.36950475e+02
35              	3.37449425e+02
36              	3.38010966e+02
37              	3.38566516e+02
38              	3.39118121e+02
39              	3.39671869e+02
40              	3.40262944e+02
41              	3.40863630e+02
42              	3.41438042e+02
43              	3.42007487e+02
44              	3.42543061e+02
45              	3.42994020e+02
46              	3.43482409e+02
47              	3.44002037e+02
48              	3.44401008e+02
49              	3.44748880e+02
50              	3.45058379e+02
51              	3.45370063e+02
52              	3.45726619e+02
53              	3.46160973e+02
54              	3.46550085e+02
55              	3.46906932e+02
56              	3.47240220e+02
57              	3.47550199e+02
58              	3.47812800e+02
59              	3.48101671e+02
60              	3.48372500e+02
61              	3.48627223e+02
62              	3.48843848e+02
63              	3.49070693e+02
64              	3.49306077e+02
65              	3.49478202e+02
66              	3.49629440e+02
67              	3.49803324e+02
68              	3.50028608e+02
69              	3.50252399e+02
70              	3.50461456e+02
71              	3.50661897e+02
72              	3.50819096e+02
73              	3.50966434e+02
74              	3.51108320e+02
75              	3.51253428e+02
76              	3.51365906e+02
77              	3.51497538e+02
78              	3.51648424e+02
79              	3.51813918e+02
80              	3.51967901e+02
81              	3.52117368e+02
82              	3.52266619e+02
83              	3.52412377e+02
84              	3.52546216e+02
85              	3.52667572e+02
86              	3.52789000e+02
87              	3.52904594e+02
88              	3.53005343e+02
89              	3.53106651e+02
90              	3.53214498e+02
91              	3.53300642e+02
92              	3.53397947e+02
93              	3.53484692e+02
94              	3.53593063e+02
95              	3.53713533e+02
96              	3.53845496e+02
97              	3.53982928e+02
98              	3.54120646e+02
99              	3.54260244e+02
100             	3.54406565e+02
101             	3.54552059e+02
102             	3.54706060e+02
103             	3.54870187e+02
104             	3.55040357e+02
105             	3.55206497e+02
106             	3.55378497e+02
107             	3.55557495e+02
108             	3.55728156e+02
109             	3.55893139e+02
110             	3.56063180e+02
111             	3.56242699e+02
112             	3.56406649e+02
113             	3.56565957e+02
114             	3.56726681e+02
115             	3.56887832e+02
116             	3.57037854e+02
117             	3.57155750e+02
118             	3.57288775e+02
119             	3.57420836e+02
120             	3.57548249e+02
121             	3.57666183e+02
122             	3.57777993e+02
123             	3.57892197e+02
124             	3.58013963e+02
125             	3.58125119e+02
126             	3.58233703e+02
127             	3.58343741e+02
128             	3.58466288e+02
129             	3.58569738e+02
130             	3.58665939e+02
131             	3.58760830e+02
132             	3.58856564e+02
133             	3.58954952e+02
134             	3.59052493e+02
135             	3.59118552e+02
136             	3.59197539e+02
137             	3.59298398e+02
138             	3.59408235e+02
139             	3.59511050e+02
140             	3.59613905e+02
141             	3.59719470e+02
142             	3.59833177e+02
143             	3.59912117e+02
144             	3.59998467e+02
145             	3.60094080e+02
146             	3.60187151e+02
147             	3.60274299e+02
148             	3.60358535e+02
149             	3.60440501e+02
150             	3.60514336e+02
151             	3.60579881e+02
152             	3.60651821e+02
153             	3.60723587e+02
154             	3.60793117e+02
155             	3.60839388e+02
156             	3.60901834e+02
157             	3.60969157e+02
158             	3.61032147e+02
159             	3.61092250e+02
160             	3.61148759e+02
161             	3.61201657e+02
162             	3.61247070e+02
163             	3.61293087e+02
164             	3.61338259e+02
165             	3.61381957e+02
166             	3.61436913e+02
167             	3.61494647e+02
168             	3.61547942e+02
169             	3.61601332e+02
170             	3.61655304e+02
171             	3.61712013e+02
172             	3.61766561e+02
173             	3.61808012e+02
174             	3.61842385e+02
175             	3.61896491e+02
176             	3.61957079e+02
177             	3.62014880e+02
178             	3.62066250e+02
179             	3.62121631e+02
180             	3.62175656e+02
181             	3.62227475e+02
182             	3.62280484e+02
183             	3.62337804e+02
184             	3.62392387e+02
185             	3.62433640e+02
186             	3.62473254e+02
187             	3.62513676e+02
188             	3.62555287e+02
189             	3.62589478e+02
190             	3.62630449e+02
191             	3.62666234e+02
192             	3.62696631e+02
193             	3.62741321e+02
194             	3.62785351e+02
195             	3.62822761e+02
196             	3.62857101e+02
197             	3.62891937e+02
198             	3.62924999e+02
199             	3.62956795e+02
200             	3.62988994e+02
201             	3.63021991e+02
202             	3.63052638e+02
203             	3.63081230e+02
204             	3.63109626e+02
205             	3.63139294e+02
206             	3.63168682e+02
207             	3.63198471e+02
208             	3.63228492e+02
209             	3.63254655e+02
210             	3.63276964e+02
211             	3.63307213e+02
212             	3.63336098e+02
213             	3.63364969e+02
214             	3.63395047e+02
215             	3.63423014e+02
216             	3.63449419e+02
217             	3.63475468e+02
218             	3.63504794e+02
219             	3.63527664e+02
220             	3.63550284e+02
221             	3.63574316e+02
222             	3.63596908e+02
223             	3.63620871e+02
224             	3.63644442e+02
225             	3.63666155e+02
226             	3.63685920e+02
227             	3.63704563e+02
228             	3.63721877e+02
229             	3.63738692e+02
230             	3.63754332e+02
231             	3.63769699e+02
232             	3.63784626e+02
233             	3.63799246e+02
234             	3.63812280e+02
235             	3.63827013e+02
236             	3.63844779e+02
237             	3.63861992e+02
238             	3.63877718e+02
239             	3.63892647e+02
240             	3.63907516e+02
241             	3.63922753e+02
242             	3.63937829e+02
243             	3.63953675e+02
244             	3.63965237e+02
245             	3.63976726e+02
246             	3.63989761e+02
247             	3.64004314e+02
248             	3.64018331e+02
249             	3.64036625e+02
250             	3.64054600e+02
251             	3.64070133e+02
252             	3.64082898e+02
253             	3.64093800e+02
254             	3.64104461e+02
255             	3.64117038e+02
256             	3.64126580e+02
257             	3.64135115e+02
258             	3.64140790e+02
259             	3.64148754e+02
260             	3.64159987e+02
261             	3.64171237e+02
262             	3.64182107e+02
263             	3.64193508e+02
264             	3.64204299e+02
265             	3.64214547e+02
266             	3.64224690e+02
267             	3.64236109e+02
268             	3.64247903e+02
269             	3.64259185e+02
270             	3.64269809e+02
271             	3.64280357e+02
272             	3.64290509e+02
273             	3.64299766e+02
274             	3.64308553e+02
275             	3.64317139e+02
276             	3.64324298e+02
277             	3.64331077e+02
278             	3.64337845e+02
279             	3.64344691e+02
280             	3.64351669e+02
281             	3.64358050e+02
282             	3.64363880e+02
283             	3.64370683e+02
284             	3.64377227e+02
285             	3.64383005e+02
286             	3.64388670e+02
287             	3.64395180e+02
288             	3.64399369e+02
289             	3.64404267e+02
290             	3.64408698e+02
291             	3.64413157e+02
292             	3.64418158e+02
293             	3.64422788e+02
294             	3.64427523e+02
295             	3.64431917e+02
296             	3.64438557e+02
297             	3.64445298e+02
298             	3.64451439e+02
299             	3.64456712e+02
300             	3.64461247e+02
301             	3.64465483e+02
302             	3.64468951e+02
303             	3.64473448e+02
304             	3.64478808e+02
305             	3.64484114e+02
306             	3.64489291e+02
307             	3.64494546e+02
308             	3.64500120e+02
309             	3.64504440e+02
310             	3.64508683e+02
311             	3.64511709e+02
312             	3.64514771e+02
313             	3.64518055e+02
314             	3.64521276e+02
315             	3.64524135e+02
316             	3.64526700e+02
317             	3.64529165e+02
318             	3.64531568e+02
319             	3.64535212e+02
320             	3.64539035e+02
321             	3.64542556e+02
322             	3.64545886e+02
323             	3.64549344e+02
324             	3.64552972e+02
325             	3.64556616e+02
326             	3.64560298e+02
327             	3.64563752e+02
328             	3.64567307e+02
329             	3.64570811e+02
330             	3.64574173e+02
331             	3.64577361e+02
332             	3.64580478e+02
333             	3.64583638e+02
334             	3.64586567e+02
335             	3.64589619e+02
336             	3.64592877e+02
337             	3.64596120e+02
338             	3.64599200e+02
339             	3.64602449e+02
340             	3.64605483e+02
341             	3.64608244e+02
342             	3.64610669e+02
343             	3.64612418e+02
344             	3.64614492e+02
345             	3.64616480e+02
346             	3.64618386e+02
347             	3.64620366e+02
348             	3.64622365e+02
349             	3.64624306e+02
350             	3.64626256e+02
351             	3.64628398e+02
352             	3.64630237e+02
353             	3.64631776e+02
354             	3.64633417e+02
355             	3.64635127e+02
356             	3.64636937e+02
357             	3.64638509e+02
358             	3.64640026e+02
359             	3.64641530e+02
360             	3.64642957e+02
361             	3.64644310e+02
362             	3.64645589e+02
363             	3.64646842e+02
364             	3.64648175e+02
365             	3.64649501e+02
366             	3.64650490e+02
367             	3.64651330e+02
368             	3.64652005e+02
369             	3.64653406e+02
370             	3.64654865e+02
371             	3.64656216e+02
372             	3.64657446e+02
373             	3.64658550e+02
374             	3.64660122e+02
375             	3.64661658e+02
376             	3.64662690e+02
377             	3.64663816e+02
378             	3.64665106e+02
379             	3.64666304e+02
380             	3.64667435e+02
381             	3.64668389e+02
382             	3.64669253e+02
383             	3.64670256e+02
384             	3.64670855e+02
385             	3.64671953e+02
386             	3.64673534e+02
387             	3.64674860e+02
388             	3.64675803e+02
389             	3.64676696e+02
390             	3.64677981e+02
391             	3.64679110e+02
392             	3.64679311e+02
393             	3.64679785e+02
394             	3.64680695e+02
395             	3.64681448e+02
396             	3.64682282e+02
397             	3.64683561e+02
398             	3.64684660e+02
399             	3.64685741e+02
400             	3.64686704e+02
401             	3.64687593e+02
402             	3.64688178e+02
403             	3.64688560e+02
404             	3.64689232e+02
405             	3.64690212e+02
406             	3.64691217e+02
407             	3.64692068e+02
408             	3.64693021e+02
409             	3.64694001e+02
410             	3.64694899e+02
411             	3.64695832e+02
412             	3.64696601e+02
413             	3.64697473e+02
414             	3.64698306e+02
415             	3.64699095e+02
416             	3.64699876e+02
417             	3.64700679e+02
418             	3.64701370e+02
419             	3.64702133e+02
420             	3.64702734e+02
421             	3.64703316e+02
422             	3.64703923e+02
423             	3.64704526e+02
424             	3.64705080e+02
425             	3.64705463e+02
426             	3.64705965e+02
427             	3.64706476e+02
428             	3.64707065e+02
429             	3.64707568e+02
430             	3.64707983e+02
431             	3.64708373e+02
432             	3.64708798e+02
433             	3.64709476e+02
434             	3.64709901e+02
435             	3.64710186e+02
436             	3.64710581e+02
437             	3.64711087e+02
438             	3.64711654e+02
439             	3.64712327e+02
440             	3.64712977e+02
441             	3.64713593e+02
442             	3.64714176e+02
443             	3.64714751e+02
444             	3.64715288e+02
445             	3.64715604e+02
446             	3.64716188e+02
447             	3.64716793e+02
448             	3.64717306e+02
449             	3.64717740e+02
450             	3.64718306e+02
451             	3.64718831e+02
452             	3.64719116e+02
453             	3.64719421e+02
454             	3.64719798e+02
455             	3.64720162e+02
456             	3.64720556e+02
457             	3.64720949e+02
458             	3.64721199e+02
459             	3.64721555e+02
460             	3.64721971e+02
461             	3.64722304e+02
462             	3.64722636e+02
463             	3.64722993e+02
464             	3.64723319e+02
465             	3.64723641e+02
466             	3.64724033e+02
467             	3.64724389e+02
468             	3.64724732e+02
469             	3.64725106e+02
470             	3.64725389e+02
471             	3.64725646e+02
472             	3.64725907e+02
473             	3.64726186e+02
474             	3.64726504e+02
475             	3.64726706e+02
476             	3.64726803e+02
477             	3.64727075e+02
478             	3.64727400e+02
479             	3.64727667e+02
480             	3.64727973e+02
481             	3.64728274e+02
482             	3.64728606e+02
483             	3.64728916e+02
484             	3.64729180e+02
485             	3.64729438e+02
486             	3.64729720e+02
487             	3.64730029e+02
488             	3.64730261e+02
489             	3.64730435e+02
490             	3.64730649e+02
491             	3.64730865e+02
492             	3.64731143e+02
493             	3.64731497e+02
494             	3.64731893e+02
495             	3.64732218e+02
496             	3.64732489e+02
497             	3.64732738e+02
498             	3.64733002e+02
499             	3.64733246e+02
500             	3.64733340e+02
501             	3.64733438e+02
502             	3.64733527e+02
503             	3.64733657e+02
504             	3.64733799e+02
505             	3.64733940e+02
506             	3.64734050e+02
507             	3.64734193e+02
508             	3.64734316e+02
509             	3.64734525e+02
510             	3.64734742e+02
511             	3.64734934e+02
512             	3.64735167e+02
513             	3.64735304e+02
514             	3.64735433e+02
515             	3.64735589e+02
516             	3.64735759e+02
517             	3.64735949e+02
518             	3.64736130e+02
519             	3.64736352e+02
520             	3.64736580e+02
521             	3.64736820e+02
522             	3.64737052e+02
523             	3.64737282e+02
524             	3.64737484e+02
525             	3.64737687e+02
526             	3.64737931e+02
527             	3.64738157e+02
528             	3.64738359e+02
529             	3.64738549e+02
530             	3.64738729e+02
531             	3.64738827e+02
532             	3.64738926e+02
533             	3.64739063e+02
534             	3.64739195e+02
535             	3.64739350e+02
536             	3.64739492e+02
537             	3.64739660e+02
538             	3.64739820e+02
539             	3.64739951e+02
540             	3.64740078e+02
541             	3.64740203e+02
542             	3.64740254e+02
543             	3.64740319e+02
544             	3.64740374e+02
545             	3.64740449e+02
546             	3.64740539e+02
547             	3.64740637e+02
548             	3.64740704e+02
549             	3.64740849e+02
550             	3.64740973e+02
551             	3.64741154e+02
552             	3.64741328e+02
553             	3.64741487e+02
554             	3.64741671e+02
555             	3.64741771e+02
556             	3.64741882e+02
557             	3.64741974e+02
558             	3.64742070e+02
559             	3.64742190e+02
560             	3.64742325e+02
561             	3.64742443e+02
562             	3.64742603e+02
563             	3.64742755e+02
564             	3.64742918e+02
565             	3.64743009e+02
566             	3.64743072e+02
567             	3.64743165e+02
568             	3.64743256e+02
569             	3.64743319e+02
570             	3.64743377e+02
571             	3.64743435e+02
572             	3.64743491e+02
573             	3.64743543e+02
574             	3.64743624e+02
575             	3.64743696e+02
576             	3.64743762e+02
577             	3.64743823e+02
578             	3.64743891e+02
579             	3.64743955e+02
580             	3.64744011e+02
581             	3.64744075e+02
582             	3.64744137e+02
583             	3.64744193e+02
584             	3.64744250e+02
585             	3.64744305e+02
586             	3.64744368e+02
587             	3.64744443e+02
588             	3.64744528e+02
589             	3.64744599e+02
590             	3.64744681e+02
591             	3.64744773e+02
592             	3.64744846e+02
593             	3.64744923e+02
594             	3.64744995e+02
595             	3.64745070e+02
596             	3.64745135e+02
597             	3.64745196e+02
598             	3.64745258e+02
599             	3.64745327e+02
600             	3.64745384e+02
601             	3.64745449e+02
602             	3.64745525e+02
603             	3.64745589e+02
604             	3.64745659e+02
605             	3.64745733e+02
606             	3.64745800e+02
607             	3.64745856e+02
608             	3.64745912e+02
609             	3.64745977e+02
610             	3.64746021e+02
611             	3.64746068e+02
612             	3.64746124e+02
613             	3.64746177e+02
614             	3.64746237e+02
615             	3.64746290e+02
616             	3.64746354e+02
617             	3.64746431e+02
618             	3.64746495e+02
619             	3.64746559e+02
620             	3.64746647e+02
621             	3.64746728e+02
