# Region        : cellZone component_3
# Cells         : 168
# Volume        : 3.35637586e-01
# Time          	volAverage(T)
1               	3.00633646e+02
2               	3.01261653e+02
3               	3.01858421e+02
4               	3.02431293e+02
5               	3.02987866e+02
6               	3.03532022e+02
7               	3.04065598e+02
8               	3.04590047e+02
9               	3.05109618e+02
10              	3.05624112e+02
11              	3.06129795e+02
12              	3.06628663e+02
13              	3.07115215e+02
14              	3.07594692e+02
15              	3.08058802e+02
16              	3.08529982e+02
17              	3.08988870e+02
18              	3.09435485e+02
19              	3.09863404e+02
20              	3.10281671e+02
21              	3.10692433e+02
22              	3.11089930e+02
23              	3.11487736e+02
24              	3.11874713e+02
25              	3.12270428e+02
26              	3.12670566e+02
27              	3.13065856e+02
28              	3.13456703e+02
29              	3.13814021e+02
30              	3.14144922e+02
31              	3.14464566e+02
32              	3.14803873e+02
33              	3.15137113e+02
34              	3.15448273e+02
35              	3.15744425e+02
36              	3.16028905e+02
37              	3.16304332e+02
38              	3.16576881e+02
39              	3.16841674e+02
40              	3.17108395e+02
41              	3.17374965e+02
42              	3.17622672e+02
43              	3.17859739e+02
44              	3.18079767e+02
45              	3.18269347e+02
46              	3.18443367e+02
47              	3.18649250e+02
48              	3.18841562e+02
49              	3.19012998e+02
50              	3.19162323e+02
51              	3.19296661e+02
52              	3.19439790e+02
53              	3.19601551e+02
54              	3.19783448e+02
55              	3.19975724e+02
56              	3.20162228e+02
57              	3.20288949e+02
58              	3.20423557e+02
59              	3.20558481e+02
60              	3.20686509e+02
61              	3.20817086e+02
62              	3.20956129e+02
63              	3.21097506e+02
64              	3.21235738e+02
65              	3.21372281e+02
66              	3.21505658e+02
67              	3.21643161e+02
68              	3.21776610e+02
69              	3.21916471e+02
70              	3.22067226e+02
71              	3.22236124e+02
72              	3.22372085e+02
73              	3.22470544e+02
74              	3.22535541e+02
75              	3.22562644e+02
76              	3.22602052e+02
77              	3.22676531e+02
78              	3.22742981e+02
79              	3.22799649e+02
80              	3.22854973e+02
81              	3.22907994e+02
82              	3.22957003e+02
83              	3.23006046e+02
84              	3.23063975e+02
85              	3.23127905e+02
86              	3.23197952e+02
87              	3.23278100e+02
88              	3.23372184e+02
89              	3.23479580e+02
90              	3.23591772e+02
91              	3.23706754e+02
92              	3.23814210e+02
93              	3.23927215e+02
94              	3.24045877e+02
95              	3.24163076e+02
96              	3.24279810e+02
97              	3.24389488e+02
98              	3.24496381e+02
99              	3.24595087e+02
100             	3.24686479e+02
101             	3.24771395e+02
102             	3.24856826e+02
103             	3.24942898e+02
104             	3.25032438e+02
105             	3.25126302e+02
106             	3.25229782e+02
107             	3.25340124e+02
108             	3.25460429e+02
109             	3.25579824e+02
110             	3.25693951e+02
111             	3.25803105e+02
112             	3.25908939e+02
113             	3.26004579e+02
114             	3.26085684e+02
115             	3.26154951e+02
116             	3.26216902e+02
117             	3.26271959e+02
118             	3.26324891e+02
119             	3.26382515e+02
120             	3.26458073e+02
121             	3.26551371e+02
122             	3.26654256e+02
123             	3.26736813e+02
124             	3.26826370e+02
125             	3.26905838e+02
126             	3.26973463e+02
127             	3.27032150e+02
128             	3.27079505e+02
129             	3.27120224e+02
130             	3.27155758e+02
131             	3.27191030e+02
132             	3.27232714e+02
133             	3.27281446e+02
134             	3.27333283e+02
135             	3.27396327e+02
136             	3.27471990e+02
137             	3.27559026e+02
138             	3.27629136e+02
139             	3.27707387e+02
140             	3.27781488e+02
141             	3.27841954e+02
142             	3.27890429e+02
143             	3.27928540e+02
144             	3.27955664e+02
145             	3.27978980e+02
146             	3.28011796e+02
147             	3.28058101e+02
148             	3.28116385e+02
149             	3.28190376e+02
150             	3.28269648e+02
151             	3.28327617e+02
152             	3.28379617e+02
153             	3.28436366e+02
154             	3.28493887e+02
155             	3.28538411e+02
156             	3.28571780e+02
157             	3.28592239e+02
158             	3.28611649e+02
159             	3.28644371e+02
160             	3.28700319e+02
161             	3.28772726e+02
162             	3.28773501e+02
163             	3.28708132e+02
164             	3.28579675e+02
165             	3.28459963e+02
166             	3.28414380e+02
167             	3.28367493e+02
168             	3.28308568e+02
169             	3.28249155e+02
170             	3.28191916e+02
171             	3.28157732e+02
172             	3.28151171e+02
173             	3.28179988e+02
174             	3.28199619e+02
175             	3.28178834e+02
176             	3.28121575e+02
177             	3.28021439e+02
178             	3.27951279e+02
179             	3.27902516e+02
180             	3.27844883e+02
181             	3.27783783e+02
182             	3.27724033e+02
183             	3.27665522e+02
184             	3.27616153e+02
185             	3.27592689e+02
186             	3.27586583e+02
187             	3.27517788e+02
188             	3.27393774e+02
189             	3.27227878e+02
190             	3.27075481e+02
191             	3.26996402e+02
192             	3.26967431e+02
193             	3.26939105e+02
194             	3.26911482e+02
195             	3.26886911e+02
196             	3.26869335e+02
197             	3.26862282e+02
198             	3.26878883e+02
199             	3.26910450e+02
200             	3.26958874e+02
201             	3.27002470e+02
202             	3.27016374e+02
203             	3.26988606e+02
204             	3.26965677e+02
205             	3.26975535e+02
206             	3.26996928e+02
207             	3.27001922e+02
208             	3.26993889e+02
209             	3.26971857e+02
210             	3.26960804e+02
211             	3.26963862e+02
212             	3.26997513e+02
213             	3.27057838e+02
214             	3.27075426e+02
215             	3.27037722e+02
216             	3.26956382e+02
217             	3.26869059e+02
218             	3.26802724e+02
219             	3.26783010e+02
220             	3.26763497e+02
221             	3.26726279e+02
222             	3.26687769e+02
223             	3.26650002e+02
224             	3.26636189e+02
225             	3.26646843e+02
226             	3.26689443e+02
227             	3.26747929e+02
228             	3.26792254e+02
229             	3.26789816e+02
230             	3.26766567e+02
231             	3.26762572e+02
232             	3.26782235e+02
233             	3.26803018e+02
234             	3.26811815e+02
235             	3.26813694e+02
236             	3.26813872e+02
237             	3.26824742e+02
238             	3.26848317e+02
239             	3.26896314e+02
240             	3.26970896e+02
241             	3.27022732e+02
242             	3.27037144e+02
243             	3.27031267e+02
244             	3.27037449e+02
245             	3.27063841e+02
246             	3.27090884e+02
247             	3.27106229e+02
248             	3.27110332e+02
249             	3.27113734e+02
250             	3.27117663e+02
251             	3.27117852e+02
252             	3.27132173e+02
253             	3.27160347e+02
254             	3.27201740e+02
255             	3.27256240e+02
256             	3.27327541e+02
257             	3.27403270e+02
258             	3.27480868e+02
259             	3.27555394e+02
260             	3.27625910e+02
261             	3.27692945e+02
262             	3.27756160e+02
263             	3.27812816e+02
264             	3.27861378e+02
265             	3.27908096e+02
266             	3.27955777e+02
267             	3.28006736e+02
268             	3.28061582e+02
269             	3.28120938e+02
270             	3.28182309e+02
271             	3.28251570e+02
272             	3.28329668e+02
273             	3.28412286e+02
274             	3.28492326e+02
275             	3.28565854e+02
276             	3.28635555e+02
277             	3.28695549e+02
278             	3.28744568e+02
279             	3.28785684e+02
280             	3.28822985e+02
281             	3.28858210e+02
282             	3.28893667e+02
283             	3.28929742e+02
284             	3.28967323e+02
285             	3.29003507e+02
286             	3.29043274e+02
287             	3.29089264e+02
288             	3.29140369e+02
289             	3.29198981e+02
290             	3.29263073e+02
291             	3.29330092e+02
292             	3.29398312e+02
293             	3.29467331e+02
294             	3.29537463e+02
295             	3.29608694e+02
296             	3.29675961e+02
297             	3.29740589e+02
298             	3.29800652e+02
299             	3.29856206e+02
300             	3.29907896e+02
301             	3.29955703e+02
302             	3.30000347e+02
303             	3.30043645e+02
304             	3.30086889e+02
305             	3.30134141e+02
306             	3.30189266e+02
307             	3.30252669e+02
308             	3.30325628e+02
309             	3.30408233e+02
310             	3.30494808e+02
311             	3.30582873e+02
312             	3.30671553e+02
313             	3.30759948e+02
314             	3.30846046e+02
315             	3.30929177e+02
316             	3.31009516e+02
317             	3.31085862e+02
318             	3.31158159e+02
319             	3.31227255e+02
320             	3.31293437e+02
321             	3.31357599e+02
322             	3.31419600e+02
323             	3.31479503e+02
324             	3.31536648e+02
325             	3.31591145e+02
326             	3.31643581e+02
327             	3.31696615e+02
328             	3.31748860e+02
329             	3.31800090e+02
330             	3.31850305e+02
331             	3.31903476e+02
332             	3.31955937e+02
333             	3.32004373e+02
334             	3.32054245e+02
335             	3.32100020e+02
336             	3.32140690e+02
337             	3.32175471e+02
338             	3.32204946e+02
339             	3.32231018e+02
340             	3.32254898e+02
341             	3.32278561e+02
342             	3.32303978e+02
343             	3.32333576e+02
344             	3.32370073e+02
345             	3.32413336e+02
346             	3.32463868e+02
347             	3.32516060e+02
348             	3.32569305e+02
349             	3.32623916e+02
350             	3.32678098e+02
351             	3.32730627e+02
352             	3.32781583e+02
353             	3.32831470e+02
354             	3.32880634e+02
355             	3.32930312e+02
356             	3.32974306e+02
357             	3.33017569e+02
358             	3.33061660e+02
359             	3.33104669e+02
360             	3.33146315e+02
361             	3.33186167e+02
362             	3.33224292e+02
363             	3.33263627e+02
364             	3.33303173e+02
365             	3.33342506e+02
366             	3.33382514e+02
367             	3.33422082e+02
368             	3.33460280e+02
369             	3.33500934e+02
370             	3.33542601e+02
371             	3.33584064e+02
372             	3.33622727e+02
373             	3.33656838e+02
374             	3.33690906e+02
375             	3.33722257e+02
376             	3.33751255e+02
377             	3.33777782e+02
378             	3.33802164e+02
379             	3.33825252e+02
380             	3.33847694e+02
381             	3.33870188e+02
382             	3.33892984e+02
383             	3.33916270e+02
384             	3.33939946e+02
385             	3.33964814e+02
386             	3.33991227e+02
387             	3.34018957e+02
388             	3.34047465e+02
389             	3.34075753e+02
390             	3.34104463e+02
391             	3.34131665e+02
392             	3.34159047e+02
393             	3.34185621e+02
394             	3.34211131e+02
395             	3.34235862e+02
396             	3.34259819e+02
397             	3.34284685e+02
398             	3.34310972e+02
399             	3.34337212e+02
400             	3.34364590e+02
401             	3.34393726e+02
402             	3.34423719e+02
403             	3.34456062e+02
404             	3.34488253e+02
405             	3.34518534e+02
406             	3.34547578e+02
407             	3.34575450e+02
408             	3.34601863e+02
409             	3.34628629e+02
410             	3.34653102e+02
411             	3.34675446e+02
412             	3.34696740e+02
413             	3.34716897e+02
414             	3.34735322e+02
415             	3.34753271e+02
416             	3.34770313e+02
417             	3.34787257e+02
418             	3.34803524e+02
419             	3.34819737e+02
420             	3.34835229e+02
421             	3.34851132e+02
422             	3.34867760e+02
423             	3.34883422e+02
424             	3.34899898e+02
425             	3.34917359e+02
426             	3.34935323e+02
427             	3.34953058e+02
428             	3.34971067e+02
429             	3.34989574e+02
430             	3.35008268e+02
431             	3.35027199e+02
432             	3.35046261e+02
433             	3.35066262e+02
434             	3.35085463e+02
435             	3.35104487e+02
436             	3.35123596e+02
437             	3.35142960e+02
438             	3.35162121e+02
439             	3.35181513e+02
440             	3.35198953e+02
441             	3.35215856e+02
442             	3.35231447e+02
443             	3.35246347e+02
444             	3.35261555e+02
445             	3.35276029e+02
446             	3.35290866e+02
447             	3.35306281e+02
448             	3.35322444e+02
449             	3.35339506e+02
450             	3.35356554e+02
451             	3.35375072e+02
452             	3.35392468e+02
453             	3.35411578e+02
454             	3.35430660e+02
455             	3.35450763e+02
456             	3.35471796e+02
457             	3.35490588e+02
458             	3.35509276e+02
459             	3.35527802e+02
460             	3.35545583e+02
461             	3.35562709e+02
462             	3.35580048e+02
463             	3.35596976e+02
464             	3.35613422e+02
465             	3.35629724e+02
466             	3.35645674e+02
467             	3.35661146e+02
468             	3.35675811e+02
469             	3.35689870e+02
470             	3.35703107e+02
471             	3.35715085e+02
472             	3.35727384e+02
473             	3.35739194e+02
474             	3.35750058e+02
475             	3.35761105e+02
476             	3.35772642e+02
477             	3.35784831e+02
478             	3.35797712e+02
479             	3.35811220e+02
480             	3.35824940e+02
481             	3.35840091e+02
482             	3.35853958e+02
483             	3.35868183e+02
484             	3.35882288e+02
485             	3.35896424e+02
486             	3.35909785e+02
487             	3.35922513e+02
488             	3.35934090e+02
489             	3.35945094e+02
490             	3.35957067e+02
491             	3.35968335e+02
492             	3.35979531e+02
493             	3.35991626e+02
494             	3.36003627e+02
495             	3.36015588e+02
496             	3.36027304e+02
497             	3.36039251e+02
498             	3.36050857e+02
499             	3.36060433e+02
500             	3.36069588e+02
501             	3.36078886e+02
502             	3.36088695e+02
503             	3.36098576e+02
504             	3.36109122e+02
505             	3.36120143e+02
506             	3.36131517e+02
507             	3.36143401e+02
508             	3.36155763e+02
509             	3.36168569e+02
510             	3.36181923e+02
511             	3.36195228e+02
512             	3.36208159e+02
513             	3.36220820e+02
514             	3.36233015e+02
515             	3.36244591e+02
516             	3.36254960e+02
517             	3.36263939e+02
518             	3.36272051e+02
519             	3.36280847e+02
520             	3.36288707e+02
521             	3.36296378e+02
522             	3.36304325e+02
523             	3.36311875e+02
524             	3.36318805e+02
525             	3.36326631e+02
526             	3.36334207e+02
527             	3.36341068e+02
528             	3.36347915e+02
529             	3.36354643e+02
530             	3.36361090e+02
531             	3.36367980e+02
532             	3.36374585e+02
533             	3.36381607e+02
534             	3.36389535e+02
535             	3.36397138e+02
536             	3.36404498e+02
537             	3.36412395e+02
538             	3.36421045e+02
539             	3.36429716e+02
540             	3.36438120e+02
541             	3.36446210e+02
542             	3.36453793e+02
543             	3.36460958e+02
544             	3.36467617e+02
545             	3.36473951e+02
546             	3.36480020e+02
547             	3.36485491e+02
548             	3.36490510e+02
549             	3.36495917e+02
550             	3.36501171e+02
551             	3.36506729e+02
552             	3.36512861e+02
553             	3.36518966e+02
554             	3.36524963e+02
555             	3.36530869e+02
556             	3.36536512e+02
557             	3.36541910e+02
558             	3.36547015e+02
559             	3.36551920e+02
560             	3.36556478e+02
561             	3.36560743e+02
562             	3.36564169e+02
563             	3.36566659e+02
564             	3.36568610e+02
565             	3.36570073e+02
566             	3.36571672e+02
567             	3.36573538e+02
568             	3.36574893e+02
569             	3.36576275e+02
570             	3.36577953e+02
571             	3.36579990e+02
572             	3.36581854e+02
573             	3.36584407e+02
574             	3.36587422e+02
575             	3.36590882e+02
576             	3.36594377e+02
577             	3.36598067e+02
578             	3.36602148e+02
579             	3.36605888e+02
580             	3.36609814e+02
581             	3.36613981e+02
582             	3.36618211e+02
583             	3.36622519e+02
584             	3.36626859e+02
585             	3.36631280e+02
586             	3.36635698e+02
587             	3.36640119e+02
588             	3.36644429e+02
589             	3.36648582e+02
590             	3.36652472e+02
591             	3.36655868e+02
592             	3.36658584e+02
593             	3.36660920e+02
594             	3.36662576e+02
595             	3.36664290e+02
596             	3.36665199e+02
597             	3.36665596e+02
598             	3.36665800e+02
599             	3.36666101e+02
600             	3.36666685e+02
601             	3.36667562e+02
602             	3.36668745e+02
603             	3.36670420e+02
604             	3.36672440e+02
605             	3.36674566e+02
606             	3.36676393e+02
607             	3.36678828e+02
608             	3.36681303e+02
609             	3.36683744e+02
610             	3.36686309e+02
611             	3.36688912e+02
612             	3.36691434e+02
613             	3.36693874e+02
614             	3.36696199e+02
615             	3.36698412e+02
616             	3.36700551e+02
617             	3.36702555e+02
618             	3.36704769e+02
619             	3.36706508e+02
620             	3.36707712e+02
621             	3.36708447e+02
