# Region        : cellZone component_4
# Cells         : 105
# Volume        : 1.87668117e-01
# Time          	volAverage(T)
1               	3.00538537e+02
2               	3.01067146e+02
3               	3.01567049e+02
4               	3.02051120e+02
5               	3.02525840e+02
6               	3.02991188e+02
7               	3.03448046e+02
8               	3.03900262e+02
9               	3.04348900e+02
10              	3.04793495e+02
11              	3.05225958e+02
12              	3.05664543e+02
13              	3.06091801e+02
14              	3.06529344e+02
15              	3.06954592e+02
16              	3.07367808e+02
17              	3.07779343e+02
18              	3.08181407e+02
19              	3.08572506e+02
20              	3.08963179e+02
21              	3.09355428e+02
22              	3.09738418e+02
23              	3.10112976e+02
24              	3.10475994e+02
25              	3.10825081e+02
26              	3.11170479e+02
27              	3.11502995e+02
28              	3.11847756e+02
29              	3.12177588e+02
30              	3.12506950e+02
31              	3.12843553e+02
32              	3.13160084e+02
33              	3.13463506e+02
34              	3.13757059e+02
35              	3.14056234e+02
36              	3.14352286e+02
37              	3.14643132e+02
38              	3.14932473e+02
39              	3.15213691e+02
40              	3.15500536e+02
41              	3.15774772e+02
42              	3.16057146e+02
43              	3.16333703e+02
44              	3.16611653e+02
45              	3.16889775e+02
46              	3.17156773e+02
47              	3.17414339e+02
48              	3.17665517e+02
49              	3.17918298e+02
50              	3.18175206e+02
51              	3.18425930e+02
52              	3.18672781e+02
53              	3.18921839e+02
54              	3.19168156e+02
55              	3.19405936e+02
56              	3.19634705e+02
57              	3.19865074e+02
58              	3.20095033e+02
59              	3.20329132e+02
60              	3.20573617e+02
61              	3.20821074e+02
62              	3.21061671e+02
63              	3.21291408e+02
64              	3.21517189e+02
65              	3.21741053e+02
66              	3.21959257e+02
67              	3.22181853e+02
68              	3.22403667e+02
69              	3.22623804e+02
70              	3.22835588e+02
71              	3.23042282e+02
72              	3.23243697e+02
73              	3.23448756e+02
74              	3.23654993e+02
75              	3.23860371e+02
76              	3.24069314e+02
77              	3.24283754e+02
78              	3.24494906e+02
79              	3.24698145e+02
80              	3.24892698e+02
81              	3.25091745e+02
82              	3.25284976e+02
83              	3.25472377e+02
84              	3.25651183e+02
85              	3.25819959e+02
86              	3.25980413e+02
87              	3.26139674e+02
88              	3.26304026e+02
89              	3.26472469e+02
90              	3.26645469e+02
91              	3.26819883e+02
92              	3.26998230e+02
93              	3.27179439e+02
94              	3.27354459e+02
95              	3.27526008e+02
96              	3.27688984e+02
97              	3.27842584e+02
98              	3.27989179e+02
99              	3.28127462e+02
100             	3.28262268e+02
101             	3.28398148e+02
102             	3.28534666e+02
103             	3.28668114e+02
104             	3.28806621e+02
105             	3.28948828e+02
106             	3.29096686e+02
107             	3.29240758e+02
108             	3.29388166e+02
109             	3.29528523e+02
110             	3.29659693e+02
111             	3.29780659e+02
112             	3.29892796e+02
113             	3.30005609e+02
114             	3.30113299e+02
115             	3.30221363e+02
116             	3.30326873e+02
117             	3.30430333e+02
118             	3.30541993e+02
119             	3.30656707e+02
120             	3.30774570e+02
121             	3.30896201e+02
122             	3.31010956e+02
123             	3.31112420e+02
124             	3.31204692e+02
125             	3.31286838e+02
126             	3.31366636e+02
127             	3.31444138e+02
128             	3.31521587e+02
129             	3.31597385e+02
130             	3.31677014e+02
131             	3.31764420e+02
132             	3.31857800e+02
133             	3.31954362e+02
134             	3.32059451e+02
135             	3.32157651e+02
136             	3.32242297e+02
137             	3.32315026e+02
138             	3.32383649e+02
139             	3.32449264e+02
140             	3.32513797e+02
141             	3.32572290e+02
142             	3.32628817e+02
143             	3.32681799e+02
144             	3.32740430e+02
145             	3.32800854e+02
146             	3.32872225e+02
147             	3.32945922e+02
148             	3.33021669e+02
149             	3.33098517e+02
150             	3.33172784e+02
151             	3.33242788e+02
152             	3.33310154e+02
153             	3.33373465e+02
154             	3.33430473e+02
155             	3.33484730e+02
156             	3.33534212e+02
157             	3.33585807e+02
158             	3.33639575e+02
159             	3.33699029e+02
160             	3.33760918e+02
161             	3.33830967e+02
162             	3.33901527e+02
163             	3.33976855e+02
164             	3.34056042e+02
165             	3.34135586e+02
166             	3.34215417e+02
167             	3.34293048e+02
168             	3.34369029e+02
169             	3.34442317e+02
170             	3.34513678e+02
171             	3.34582914e+02
172             	3.34649705e+02
173             	3.34719368e+02
174             	3.34790065e+02
175             	3.34863888e+02
176             	3.34940244e+02
177             	3.35017948e+02
178             	3.35095892e+02
179             	3.35170772e+02
180             	3.35249443e+02
181             	3.35329475e+02
182             	3.35407522e+02
183             	3.35481645e+02
184             	3.35553425e+02
185             	3.35622461e+02
186             	3.35690291e+02
187             	3.35756201e+02
188             	3.35822133e+02
189             	3.35887156e+02
190             	3.35951574e+02
191             	3.36014988e+02
192             	3.36080544e+02
193             	3.36146620e+02
194             	3.36213419e+02
195             	3.36281725e+02
196             	3.36349097e+02
197             	3.36416062e+02
198             	3.36483201e+02
199             	3.36549075e+02
200             	3.36612805e+02
201             	3.36674610e+02
202             	3.36733523e+02
203             	3.36791529e+02
204             	3.36848139e+02
205             	3.36904657e+02
206             	3.36963032e+02
207             	3.37021561e+02
208             	3.37081683e+02
209             	3.37143715e+02
210             	3.37207312e+02
211             	3.37272650e+02
212             	3.37336961e+02
213             	3.37398455e+02
214             	3.37460065e+02
215             	3.37522152e+02
216             	3.37581788e+02
217             	3.37639731e+02
218             	3.37695294e+02
219             	3.37749764e+02
220             	3.37802726e+02
221             	3.37854455e+02
222             	3.37905650e+02
223             	3.37955851e+02
224             	3.38006576e+02
225             	3.38057932e+02
226             	3.38110502e+02
227             	3.38162749e+02
228             	3.38214897e+02
229             	3.38267203e+02
230             	3.38319496e+02
231             	3.38367634e+02
232             	3.38419648e+02
233             	3.38469807e+02
234             	3.38519862e+02
235             	3.38568795e+02
236             	3.38617529e+02
237             	3.38665309e+02
238             	3.38712692e+02
239             	3.38759297e+02
240             	3.38805612e+02
241             	3.38851629e+02
242             	3.38897433e+02
243             	3.38943710e+02
244             	3.38990884e+02
245             	3.39037289e+02
246             	3.39083912e+02
247             	3.39130433e+02
248             	3.39176092e+02
249             	3.39220570e+02
250             	3.39264010e+02
251             	3.39307107e+02
252             	3.39348877e+02
253             	3.39389807e+02
254             	3.39430155e+02
255             	3.39470147e+02
256             	3.39510221e+02
257             	3.39550254e+02
258             	3.39590778e+02
259             	3.39631397e+02
260             	3.39672160e+02
261             	3.39712702e+02
262             	3.39752936e+02
263             	3.39792660e+02
264             	3.39831768e+02
265             	3.39870033e+02
266             	3.39907671e+02
267             	3.39943886e+02
268             	3.39979891e+02
269             	3.40014850e+02
270             	3.40049611e+02
271             	3.40083677e+02
272             	3.40117439e+02
273             	3.40150864e+02
274             	3.40184379e+02
275             	3.40217726e+02
276             	3.40250944e+02
277             	3.40284057e+02
278             	3.40317135e+02
279             	3.40350125e+02
280             	3.40382960e+02
281             	3.40415719e+02
282             	3.40448312e+02
283             	3.40480869e+02
284             	3.40513317e+02
285             	3.40545456e+02
286             	3.40577356e+02
287             	3.40608917e+02
288             	3.40640121e+02
289             	3.40670967e+02
290             	3.40701619e+02
291             	3.40731769e+02
292             	3.40761589e+02
293             	3.40790825e+02
294             	3.40819470e+02
295             	3.40847661e+02
296             	3.40875146e+02
297             	3.40902310e+02
298             	3.40929014e+02
299             	3.40955345e+02
300             	3.40981428e+02
301             	3.41007291e+02
302             	3.41032918e+02
303             	3.41058334e+02
304             	3.41083706e+02
305             	3.41108926e+02
306             	3.41134069e+02
307             	3.41159062e+02
308             	3.41183995e+02
309             	3.41208745e+02
310             	3.41233200e+02
311             	3.41257630e+02
312             	3.41281814e+02
313             	3.41305756e+02
314             	3.41329508e+02
315             	3.41352863e+02
316             	3.41375928e+02
317             	3.41398633e+02
318             	3.41421043e+02
319             	3.41443133e+02
320             	3.41464987e+02
321             	3.41486567e+02
322             	3.41507811e+02
323             	3.41528910e+02
324             	3.41549651e+02
325             	3.41570178e+02
326             	3.41590423e+02
327             	3.41610466e+02
328             	3.41630277e+02
329             	3.41649927e+02
330             	3.41669426e+02
331             	3.41688814e+02
332             	3.41708108e+02
333             	3.41727152e+02
334             	3.41746170e+02
335             	3.41765046e+02
336             	3.41783756e+02
337             	3.41802274e+02
338             	3.41820641e+02
339             	3.41838802e+02
340             	3.41856750e+02
341             	3.41874515e+02
342             	3.41892139e+02
343             	3.41909639e+02
344             	3.41926901e+02
345             	3.41943973e+02
346             	3.41960852e+02
347             	3.41977490e+02
348             	3.41993945e+02
349             	3.42010212e+02
350             	3.42026264e+02
351             	3.42042121e+02
352             	3.42057787e+02
353             	3.42073271e+02
354             	3.42088586e+02
355             	3.42103750e+02
356             	3.42118776e+02
357             	3.42133683e+02
358             	3.42148463e+02
359             	3.42163141e+02
360             	3.42177674e+02
361             	3.42192096e+02
362             	3.42206383e+02
363             	3.42220514e+02
364             	3.42234499e+02
365             	3.42248317e+02
366             	3.42262008e+02
367             	3.42275509e+02
368             	3.42288849e+02
369             	3.42302054e+02
370             	3.42315101e+02
371             	3.42328007e+02
372             	3.42340774e+02
373             	3.42353421e+02
374             	3.42365924e+02
375             	3.42378312e+02
376             	3.42390588e+02
377             	3.42402716e+02
378             	3.42414728e+02
379             	3.42426625e+02
380             	3.42438378e+02
381             	3.42450016e+02
382             	3.42461519e+02
383             	3.42472905e+02
384             	3.42484173e+02
385             	3.42495339e+02
386             	3.42506381e+02
387             	3.42517320e+02
388             	3.42528175e+02
389             	3.42538932e+02
390             	3.42549582e+02
391             	3.42560125e+02
392             	3.42570576e+02
393             	3.42580932e+02
394             	3.42591176e+02
395             	3.42601321e+02
396             	3.42611363e+02
397             	3.42621303e+02
398             	3.42631135e+02
399             	3.42640866e+02
400             	3.42650490e+02
401             	3.42660015e+02
402             	3.42669429e+02
403             	3.42678731e+02
404             	3.42687954e+02
405             	3.42697080e+02
406             	3.42706101e+02
407             	3.42715029e+02
408             	3.42723860e+02
409             	3.42732608e+02
410             	3.42741282e+02
411             	3.42749861e+02
412             	3.42758356e+02
413             	3.42766765e+02
414             	3.42775087e+02
415             	3.42783336e+02
416             	3.42791488e+02
417             	3.42799556e+02
418             	3.42807535e+02
419             	3.42815427e+02
420             	3.42823237e+02
421             	3.42830973e+02
422             	3.42838646e+02
423             	3.42846251e+02
424             	3.42853791e+02
425             	3.42861277e+02
426             	3.42868693e+02
427             	3.42876043e+02
428             	3.42883337e+02
429             	3.42890563e+02
430             	3.42897716e+02
431             	3.42904794e+02
432             	3.42911788e+02
433             	3.42918718e+02
434             	3.42925559e+02
435             	3.42932334e+02
436             	3.42939039e+02
437             	3.42945673e+02
438             	3.42952238e+02
439             	3.42958740e+02
440             	3.42965175e+02
441             	3.42971545e+02
442             	3.42977849e+02
443             	3.42984089e+02
444             	3.42990239e+02
445             	3.42996334e+02
446             	3.43002365e+02
447             	3.43008328e+02
448             	3.43014227e+02
449             	3.43020065e+02
450             	3.43025841e+02
451             	3.43031555e+02
452             	3.43037209e+02
453             	3.43042802e+02
454             	3.43048333e+02
455             	3.43053818e+02
456             	3.43059250e+02
457             	3.43064623e+02
458             	3.43069942e+02
459             	3.43075206e+02
460             	3.43080419e+02
461             	3.43085581e+02
462             	3.43090692e+02
463             	3.43095752e+02
464             	3.43100758e+02
465             	3.43105708e+02
466             	3.43110591e+02
467             	3.43115424e+02
468             	3.43120202e+02
469             	3.43124928e+02
470             	3.43129603e+02
471             	3.43134229e+02
472             	3.43138807e+02
473             	3.43143340e+02
474             	3.43147834e+02
475             	3.43152279e+02
476             	3.43156680e+02
477             	3.43161037e+02
478             	3.43165347e+02
479             	3.43169615e+02
480             	3.43173838e+02
481             	3.43178020e+02
482             	3.43182161e+02
483             	3.43186263e+02
484             	3.43190324e+02
485             	3.43194342e+02
486             	3.43198321e+02
487             	3.43202257e+02
488             	3.43206154e+02
489             	3.43210013e+02
490             	3.43213831e+02
491             	3.43217612e+02
492             	3.43221356e+02
493             	3.43225063e+02
494             	3.43228729e+02
495             	3.43232352e+02
496             	3.43235933e+02
497             	3.43239482e+02
498             	3.43242985e+02
499             	3.43246456e+02
500             	3.43249893e+02
501             	3.43253298e+02
502             	3.43256667e+02
503             	3.43260004e+02
504             	3.43263303e+02
505             	3.43266568e+02
506             	3.43269791e+02
507             	3.43272985e+02
508             	3.43276146e+02
509             	3.43279272e+02
510             	3.43282365e+02
511             	3.43285426e+02
512             	3.43288453e+02
513             	3.43291447e+02
514             	3.43294414e+02
515             	3.43297354e+02
516             	3.43300264e+02
517             	3.43303146e+02
518             	3.43305999e+02
519             	3.43308827e+02
520             	3.43311627e+02
521             	3.43314398e+02
522             	3.43317139e+02
523             	3.43319851e+02
524             	3.43322534e+02
525             	3.43325188e+02
526             	3.43327814e+02
527             	3.43330413e+02
528             	3.43332986e+02
529             	3.43335532e+02
530             	3.43338050e+02
531             	3.43340544e+02
532             	3.43343011e+02
533             	3.43345452e+02
534             	3.43347866e+02
535             	3.43350255e+02
536             	3.43352620e+02
537             	3.43354961e+02
538             	3.43357279e+02
539             	3.43359572e+02
540             	3.43361839e+02
541             	3.43364082e+02
542             	3.43366301e+02
543             	3.43368498e+02
544             	3.43370672e+02
545             	3.43372825e+02
546             	3.43374958e+02
547             	3.43377072e+02
548             	3.43379163e+02
549             	3.43381237e+02
550             	3.43383290e+02
551             	3.43385321e+02
552             	3.43387334e+02
553             	3.43389323e+02
554             	3.43391290e+02
555             	3.43393236e+02
556             	3.43395161e+02
557             	3.43397064e+02
558             	3.43398949e+02
559             	3.43400813e+02
560             	3.43402658e+02
561             	3.43404481e+02
562             	3.43406286e+02
563             	3.43408073e+02
564             	3.43409841e+02
565             	3.43411592e+02
566             	3.43413324e+02
567             	3.43415039e+02
568             	3.43416736e+02
569             	3.43418416e+02
570             	3.43420078e+02
571             	3.43421725e+02
572             	3.43423355e+02
573             	3.43424969e+02
574             	3.43426564e+02
575             	3.43428145e+02
576             	3.43429710e+02
577             	3.43431258e+02
578             	3.43432790e+02
579             	3.43434306e+02
580             	3.43435806e+02
581             	3.43437289e+02
582             	3.43438755e+02
583             	3.43440204e+02
584             	3.43441637e+02
585             	3.43443054e+02
586             	3.43444454e+02
587             	3.43445839e+02
588             	3.43447210e+02
589             	3.43448566e+02
590             	3.43449906e+02
591             	3.43451233e+02
592             	3.43452545e+02
593             	3.43453844e+02
594             	3.43455130e+02
595             	3.43456402e+02
596             	3.43457662e+02
597             	3.43458909e+02
598             	3.43460144e+02
599             	3.43461367e+02
600             	3.43462580e+02
601             	3.43463782e+02
602             	3.43464973e+02
603             	3.43466154e+02
604             	3.43467323e+02
605             	3.43468481e+02
606             	3.43469629e+02
607             	3.43470768e+02
608             	3.43471896e+02
609             	3.43473014e+02
610             	3.43474118e+02
611             	3.43475211e+02
612             	3.43476292e+02
613             	3.43477360e+02
614             	3.43478415e+02
615             	3.43479457e+02
616             	3.43480488e+02
617             	3.43481508e+02
618             	3.43482518e+02
619             	3.43483516e+02
620             	3.43484502e+02
621             	3.43485478e+02
