# Region        : cellZone component_0
# Cells         : 98
# Volume        : 1.85105552e-01
# Time          	volAverage(T)
1               	3.00319932e+02
2               	3.00635025e+02
3               	3.00928948e+02
4               	3.01207491e+02
5               	3.01476067e+02
6               	3.01737038e+02
7               	3.01991588e+02
8               	3.02241751e+02
9               	3.02491094e+02
10              	3.02735624e+02
11              	3.02975402e+02
12              	3.03208926e+02
13              	3.03432886e+02
14              	3.03651272e+02
15              	3.03857077e+02
16              	3.04068949e+02
17              	3.04280524e+02
18              	3.04486346e+02
19              	3.04686584e+02
20              	3.04885622e+02
21              	3.05082141e+02
22              	3.05276221e+02
23              	3.05468299e+02
24              	3.05659739e+02
25              	3.05853237e+02
26              	3.06041905e+02
27              	3.06219707e+02
28              	3.06382095e+02
29              	3.06533333e+02
30              	3.06674182e+02
31              	3.06803536e+02
32              	3.06931130e+02
33              	3.07079980e+02
34              	3.07223980e+02
35              	3.07369143e+02
36              	3.07513846e+02
37              	3.07656012e+02
38              	3.07801006e+02
39              	3.07946728e+02
40              	3.08092430e+02
41              	3.08225220e+02
42              	3.08338604e+02
43              	3.08428119e+02
44              	3.08518511e+02
45              	3.08622337e+02
46              	3.08731108e+02
47              	3.08836249e+02
48              	3.08937541e+02
49              	3.09039407e+02
50              	3.09137205e+02
51              	3.09239421e+02
52              	3.09342455e+02
53              	3.09449895e+02
54              	3.09555127e+02
55              	3.09650218e+02
56              	3.09730969e+02
57              	3.09795488e+02
58              	3.09844278e+02
59              	3.09888853e+02
60              	3.09951797e+02
61              	3.10008570e+02
62              	3.10056052e+02
63              	3.10097362e+02
64              	3.10140021e+02
65              	3.10182943e+02
66              	3.10235771e+02
67              	3.10295774e+02
68              	3.10357840e+02
69              	3.10395808e+02
70              	3.10416992e+02
71              	3.10429836e+02
72              	3.10459744e+02
73              	3.10488769e+02
74              	3.10510787e+02
75              	3.10532887e+02
76              	3.10558292e+02
77              	3.10593182e+02
78              	3.10632192e+02
79              	3.10678834e+02
80              	3.10718381e+02
81              	3.10744562e+02
82              	3.10755711e+02
83              	3.10763152e+02
84              	3.10771145e+02
85              	3.10785686e+02
86              	3.10803646e+02
87              	3.10820531e+02
88              	3.10838068e+02
89              	3.10858862e+02
90              	3.10892204e+02
91              	3.10935365e+02
92              	3.10968078e+02
93              	3.10980657e+02
94              	3.10976680e+02
95              	3.10963422e+02
96              	3.10959231e+02
97              	3.10973405e+02
98              	3.10985766e+02
99              	3.10992587e+02
100             	3.11000780e+02
101             	3.11010867e+02
102             	3.11034489e+02
103             	3.11073501e+02
104             	3.11111403e+02
105             	3.11131805e+02
106             	3.11130089e+02
107             	3.11124122e+02
108             	3.11112612e+02
109             	3.11115331e+02
110             	3.11117543e+02
111             	3.11118460e+02
112             	3.11118472e+02
113             	3.11125115e+02
114             	3.11145131e+02
115             	3.11180352e+02
116             	3.11214995e+02
117             	3.11237306e+02
118             	3.11242855e+02
119             	3.11241742e+02
120             	3.11237462e+02
121             	3.11247490e+02
122             	3.11252336e+02
123             	3.11250126e+02
124             	3.11246451e+02
125             	3.11241855e+02
126             	3.11245056e+02
127             	3.11258408e+02
128             	3.11281991e+02
129             	3.11297251e+02
130             	3.11289935e+02
131             	3.11249152e+02
132             	3.11207754e+02
133             	3.11186018e+02
134             	3.11186287e+02
135             	3.11185178e+02
136             	3.11182012e+02
137             	3.11178800e+02
138             	3.11185975e+02
139             	3.11206702e+02
140             	3.11246945e+02
141             	3.11276189e+02
142             	3.11279218e+02
143             	3.11265163e+02
144             	3.11240827e+02
145             	3.11221236e+02
146             	3.11225586e+02
147             	3.11229524e+02
148             	3.11233556e+02
149             	3.11235828e+02
150             	3.11242588e+02
151             	3.11250427e+02
152             	3.11265196e+02
153             	3.11288514e+02
154             	3.11325277e+02
155             	3.11353986e+02
156             	3.11353276e+02
157             	3.11353740e+02
158             	3.11352955e+02
159             	3.11364008e+02
160             	3.11377664e+02
161             	3.11392987e+02
162             	3.11410625e+02
163             	3.11431771e+02
164             	3.11456362e+02
165             	3.11482485e+02
166             	3.11512517e+02
167             	3.11547585e+02
168             	3.11589427e+02
169             	3.11642521e+02
170             	3.11674251e+02
171             	3.11682421e+02
172             	3.11696167e+02
173             	3.11715119e+02
174             	3.11737044e+02
175             	3.11759920e+02
176             	3.11783271e+02
177             	3.11808366e+02
178             	3.11838509e+02
179             	3.11873157e+02
180             	3.11913093e+02
181             	3.11959544e+02
182             	3.12001863e+02
183             	3.12031178e+02
184             	3.12047785e+02
185             	3.12063057e+02
186             	3.12087216e+02
187             	3.12111896e+02
188             	3.12137683e+02
189             	3.12160729e+02
190             	3.12182929e+02
191             	3.12208457e+02
192             	3.12236264e+02
193             	3.12266860e+02
194             	3.12306367e+02
195             	3.12339307e+02
196             	3.12346553e+02
197             	3.12340947e+02
198             	3.12345337e+02
199             	3.12358596e+02
200             	3.12371993e+02
201             	3.12383394e+02
202             	3.12395355e+02
203             	3.12409019e+02
204             	3.12427483e+02
205             	3.12451293e+02
206             	3.12487317e+02
207             	3.12513925e+02
208             	3.12513616e+02
209             	3.12509532e+02
210             	3.12508686e+02
211             	3.12518188e+02
212             	3.12526606e+02
213             	3.12532203e+02
214             	3.12538816e+02
215             	3.12549972e+02
216             	3.12569960e+02
217             	3.12597786e+02
218             	3.12633947e+02
219             	3.12660407e+02
220             	3.12664850e+02
221             	3.12654877e+02
222             	3.12648942e+02
223             	3.12651804e+02
224             	3.12664949e+02
225             	3.12679388e+02
226             	3.12694496e+02
227             	3.12708805e+02
228             	3.12723271e+02
229             	3.12740838e+02
230             	3.12763521e+02
231             	3.12791763e+02
232             	3.12822937e+02
233             	3.12843176e+02
234             	3.12830316e+02
235             	3.12815809e+02
236             	3.12811252e+02
237             	3.12816173e+02
238             	3.12822965e+02
239             	3.12825795e+02
240             	3.12827762e+02
241             	3.12836297e+02
242             	3.12846894e+02
243             	3.12863615e+02
244             	3.12895216e+02
245             	3.12915189e+02
246             	3.12905150e+02
247             	3.12895823e+02
248             	3.12884363e+02
249             	3.12888117e+02
250             	3.12891242e+02
251             	3.12893012e+02
252             	3.12894104e+02
253             	3.12898406e+02
254             	3.12903419e+02
255             	3.12921686e+02
256             	3.12942978e+02
257             	3.12953420e+02
258             	3.12936078e+02
259             	3.12918346e+02
260             	3.12904396e+02
261             	3.12900156e+02
262             	3.12907631e+02
263             	3.12911780e+02
264             	3.12912668e+02
265             	3.12911639e+02
266             	3.12916074e+02
267             	3.12929393e+02
268             	3.12949472e+02
269             	3.12979625e+02
270             	3.12998318e+02
271             	3.12981598e+02
272             	3.12954281e+02
273             	3.12934306e+02
274             	3.12933057e+02
275             	3.12928869e+02
276             	3.12921395e+02
277             	3.12914325e+02
278             	3.12908089e+02
279             	3.12908644e+02
280             	3.12916399e+02
281             	3.12930728e+02
282             	3.12951036e+02
283             	3.12977242e+02
284             	3.12998037e+02
285             	3.13006721e+02
286             	3.13002797e+02
287             	3.12998313e+02
288             	3.12993841e+02
289             	3.12989596e+02
290             	3.12986774e+02
291             	3.12986451e+02
292             	3.12990393e+02
293             	3.12998689e+02
294             	3.13010509e+02
295             	3.13024249e+02
296             	3.13044675e+02
297             	3.13067845e+02
298             	3.13094032e+02
299             	3.13118148e+02
300             	3.13140390e+02
301             	3.13152562e+02
302             	3.13164577e+02
303             	3.13174789e+02
304             	3.13188989e+02
305             	3.13204473e+02
306             	3.13217614e+02
307             	3.13229315e+02
308             	3.13242215e+02
309             	3.13259713e+02
310             	3.13280228e+02
311             	3.13305610e+02
312             	3.13336538e+02
313             	3.13369265e+02
314             	3.13400472e+02
315             	3.13425500e+02
316             	3.13453333e+02
317             	3.13479044e+02
318             	3.13502388e+02
319             	3.13521392e+02
320             	3.13538800e+02
321             	3.13555807e+02
322             	3.13573450e+02
323             	3.13591539e+02
324             	3.13609603e+02
325             	3.13630321e+02
326             	3.13650935e+02
327             	3.13671550e+02
328             	3.13694249e+02
329             	3.13718010e+02
330             	3.13740632e+02
331             	3.13763267e+02
332             	3.13784413e+02
333             	3.13804090e+02
334             	3.13823881e+02
335             	3.13839443e+02
336             	3.13852890e+02
337             	3.13864037e+02
338             	3.13873836e+02
339             	3.13882854e+02
340             	3.13892798e+02
341             	3.13906064e+02
342             	3.13921967e+02
343             	3.13940162e+02
344             	3.13961075e+02
345             	3.13983062e+02
346             	3.14003683e+02
347             	3.14022481e+02
348             	3.14039929e+02
349             	3.14055866e+02
350             	3.14070392e+02
351             	3.14083424e+02
352             	3.14095616e+02
353             	3.14108114e+02
354             	3.14120844e+02
355             	3.14134020e+02
356             	3.14148016e+02
357             	3.14162440e+02
358             	3.14176930e+02
359             	3.14191097e+02
360             	3.14205352e+02
361             	3.14220367e+02
362             	3.14235207e+02
363             	3.14249999e+02
364             	3.14265380e+02
365             	3.14281245e+02
366             	3.14296170e+02
367             	3.14310300e+02
368             	3.14323224e+02
369             	3.14334291e+02
370             	3.14344203e+02
371             	3.14352836e+02
372             	3.14361530e+02
373             	3.14371590e+02
374             	3.14382279e+02
375             	3.14394382e+02
376             	3.14407717e+02
377             	3.14422056e+02
378             	3.14436107e+02
379             	3.14448794e+02
380             	3.14460859e+02
381             	3.14470781e+02
382             	3.14479291e+02
383             	3.14486348e+02
384             	3.14492803e+02
385             	3.14499818e+02
386             	3.14508143e+02
387             	3.14516936e+02
388             	3.14526788e+02
389             	3.14537691e+02
390             	3.14549481e+02
391             	3.14560398e+02
392             	3.14570656e+02
393             	3.14579601e+02
394             	3.14587188e+02
395             	3.14593817e+02
396             	3.14599479e+02
397             	3.14605289e+02
398             	3.14611851e+02
399             	3.14619362e+02
400             	3.14627372e+02
401             	3.14636181e+02
402             	3.14645536e+02
403             	3.14654903e+02
404             	3.14663660e+02
405             	3.14671502e+02
406             	3.14678493e+02
407             	3.14684648e+02
408             	3.14689876e+02
409             	3.14694573e+02
410             	3.14698949e+02
411             	3.14703822e+02
412             	3.14709822e+02
413             	3.14716032e+02
414             	3.14722784e+02
415             	3.14730228e+02
416             	3.14737643e+02
417             	3.14744817e+02
418             	3.14751084e+02
419             	3.14756760e+02
420             	3.14762093e+02
421             	3.14766844e+02
422             	3.14771056e+02
423             	3.14774987e+02
424             	3.14778957e+02
425             	3.14783521e+02
426             	3.14788273e+02
427             	3.14793436e+02
428             	3.14799070e+02
429             	3.14805250e+02
430             	3.14811236e+02
431             	3.14816523e+02
432             	3.14821350e+02
433             	3.14825572e+02
434             	3.14828911e+02
435             	3.14831687e+02
436             	3.14834053e+02
437             	3.14836443e+02
438             	3.14839419e+02
439             	3.14842735e+02
440             	3.14846590e+02
441             	3.14850947e+02
442             	3.14855773e+02
443             	3.14860591e+02
444             	3.14864663e+02
445             	3.14868442e+02
446             	3.14871949e+02
447             	3.14874923e+02
448             	3.14877436e+02
449             	3.14879514e+02
450             	3.14881274e+02
451             	3.14883040e+02
452             	3.14885249e+02
453             	3.14887568e+02
454             	3.14890162e+02
455             	3.14893188e+02
456             	3.14896670e+02
457             	3.14900070e+02
458             	3.14903340e+02
459             	3.14906200e+02
460             	3.14908828e+02
461             	3.14911300e+02
462             	3.14913350e+02
463             	3.14915042e+02
464             	3.14916443e+02
465             	3.14917763e+02
466             	3.14919300e+02
467             	3.14920951e+02
468             	3.14922781e+02
469             	3.14924884e+02
470             	3.14927412e+02
471             	3.14930097e+02
472             	3.14932863e+02
473             	3.14935389e+02
474             	3.14937627e+02
475             	3.14939585e+02
476             	3.14941196e+02
477             	3.14942277e+02
478             	3.14942994e+02
479             	3.14943691e+02
480             	3.14944721e+02
481             	3.14945927e+02
482             	3.14947464e+02
483             	3.14949454e+02
484             	3.14951958e+02
485             	3.14954475e+02
486             	3.14956607e+02
487             	3.14958505e+02
488             	3.14960147e+02
489             	3.14961384e+02
490             	3.14962081e+02
491             	3.14962388e+02
492             	3.14962531e+02
493             	3.14962901e+02
494             	3.14963570e+02
495             	3.14964725e+02
496             	3.14966465e+02
497             	3.14968683e+02
498             	3.14970984e+02
499             	3.14973165e+02
500             	3.14974920e+02
501             	3.14976190e+02
502             	3.14976825e+02
503             	3.14976857e+02
504             	3.14976473e+02
505             	3.14976288e+02
506             	3.14976440e+02
507             	3.14976827e+02
508             	3.14977634e+02
509             	3.14978900e+02
510             	3.14980612e+02
511             	3.14982504e+02
512             	3.14984006e+02
513             	3.14985341e+02
514             	3.14986469e+02
515             	3.14987102e+02
516             	3.14987186e+02
517             	3.14986802e+02
518             	3.14986328e+02
519             	3.14986137e+02
520             	3.14986243e+02
521             	3.14986843e+02
522             	3.14988126e+02
523             	3.14990057e+02
524             	3.14991950e+02
525             	3.14993764e+02
526             	3.14995395e+02
527             	3.14996581e+02
528             	3.14997152e+02
529             	3.14997026e+02
530             	3.14996216e+02
531             	3.14995299e+02
532             	3.14994664e+02
533             	3.14994464e+02
534             	3.14995017e+02
535             	3.14996349e+02
536             	3.14998442e+02
537             	3.15000651e+02
538             	3.15002849e+02
539             	3.15004678e+02
540             	3.15005878e+02
541             	3.15006267e+02
542             	3.15005647e+02
543             	3.15004157e+02
544             	3.15002716e+02
545             	3.15001896e+02
546             	3.15001844e+02
547             	3.15002478e+02
548             	3.15004019e+02
549             	3.15005812e+02
550             	3.15007913e+02
551             	3.15009903e+02
552             	3.15011379e+02
553             	3.15012292e+02
554             	3.15012392e+02
555             	3.15011535e+02
556             	3.15009910e+02
557             	3.15008225e+02
558             	3.15006872e+02
559             	3.15006259e+02
560             	3.15006696e+02
561             	3.15008152e+02
562             	3.15010552e+02
563             	3.15013047e+02
564             	3.15015251e+02
565             	3.15016821e+02
566             	3.15017365e+02
567             	3.15016759e+02
568             	3.15014989e+02
569             	3.15012324e+02
570             	3.15009856e+02
571             	3.15007972e+02
572             	3.15007123e+02
573             	3.15007390e+02
574             	3.15008783e+02
575             	3.15011194e+02
576             	3.15013814e+02
577             	3.15015890e+02
578             	3.15017412e+02
579             	3.15017878e+02
580             	3.15016905e+02
581             	3.15014637e+02
582             	3.15012229e+02
583             	3.15010138e+02
584             	3.15009054e+02
585             	3.15009040e+02
586             	3.15009894e+02
587             	3.15011862e+02
588             	3.15014240e+02
589             	3.15016302e+02
590             	3.15017567e+02
591             	3.15018003e+02
592             	3.15017468e+02
593             	3.15015620e+02
594             	3.15013329e+02
595             	3.15011023e+02
596             	3.15009228e+02
597             	3.15008350e+02
598             	3.15008590e+02
599             	3.15010145e+02
600             	3.15012653e+02
601             	3.15015083e+02
602             	3.15017228e+02
603             	3.15018906e+02
604             	3.15019698e+02
605             	3.15019136e+02
606             	3.15017551e+02
607             	3.15014969e+02
608             	3.15012539e+02
609             	3.15010837e+02
610             	3.15010136e+02
611             	3.15010571e+02
612             	3.15011946e+02
613             	3.15014217e+02
614             	3.15016370e+02
615             	3.15018109e+02
616             	3.15019253e+02
617             	3.15019302e+02
618             	3.15018048e+02
619             	3.15015882e+02
620             	3.15013707e+02
621             	3.15012067e+02
