# Region        : cellZone component_1
# Cells         : 137
# Volume        : 2.47882112e-01
# Time          	volAverage(T)
1               	3.00592416e+02
2               	3.01177349e+02
3               	3.01734075e+02
4               	3.02270967e+02
5               	3.02794550e+02
6               	3.03307179e+02
7               	3.03810929e+02
8               	3.04309860e+02
9               	3.04805980e+02
10              	3.05297962e+02
11              	3.05780062e+02
12              	3.06249447e+02
13              	3.06712459e+02
14              	3.07170344e+02
15              	3.07622144e+02
16              	3.08063153e+02
17              	3.08500198e+02
18              	3.08930132e+02
19              	3.09359042e+02
20              	3.09774834e+02
21              	3.10191801e+02
22              	3.10603600e+02
23              	3.11006788e+02
24              	3.11402792e+02
25              	3.11793454e+02
26              	3.12179869e+02
27              	3.12560253e+02
28              	3.12952312e+02
29              	3.13317985e+02
30              	3.13633257e+02
31              	3.13906105e+02
32              	3.14195557e+02
33              	3.14496282e+02
34              	3.14801757e+02
35              	3.15106342e+02
36              	3.15407043e+02
37              	3.15709404e+02
38              	3.16014489e+02
39              	3.16316750e+02
40              	3.16617867e+02
41              	3.16913139e+02
42              	3.17222464e+02
43              	3.17534725e+02
44              	3.17850851e+02
45              	3.18155521e+02
46              	3.18474758e+02
47              	3.18778349e+02
48              	3.19065974e+02
49              	3.19334117e+02
50              	3.19581718e+02
51              	3.19820833e+02
52              	3.20051998e+02
53              	3.20270514e+02
54              	3.20486651e+02
55              	3.20733862e+02
56              	3.20998332e+02
57              	3.21267537e+02
58              	3.21539545e+02
59              	3.21798128e+02
60              	3.22073374e+02
61              	3.22338160e+02
62              	3.22582136e+02
63              	3.22829076e+02
64              	3.23057277e+02
65              	3.23270753e+02
66              	3.23468631e+02
67              	3.23644925e+02
68              	3.23822571e+02
69              	3.24007278e+02
70              	3.24196181e+02
71              	3.24407989e+02
72              	3.24632098e+02
73              	3.24866281e+02
74              	3.25108043e+02
75              	3.25353299e+02
76              	3.25610432e+02
77              	3.25872046e+02
78              	3.26128374e+02
79              	3.26356736e+02
80              	3.26570420e+02
81              	3.26754405e+02
82              	3.26918149e+02
83              	3.27089516e+02
84              	3.27269615e+02
85              	3.27454366e+02
86              	3.27649519e+02
87              	3.27851219e+02
88              	3.28053118e+02
89              	3.28250190e+02
90              	3.28441142e+02
91              	3.28624832e+02
92              	3.28810705e+02
93              	3.29007929e+02
94              	3.29220767e+02
95              	3.29433641e+02
96              	3.29658537e+02
97              	3.29869418e+02
98              	3.30092202e+02
99              	3.30308894e+02
100             	3.30504687e+02
101             	3.30687306e+02
102             	3.30869319e+02
103             	3.31043673e+02
104             	3.31210229e+02
105             	3.31361908e+02
106             	3.31519740e+02
107             	3.31681575e+02
108             	3.31848739e+02
109             	3.32021329e+02
110             	3.32199941e+02
111             	3.32379641e+02
112             	3.32569067e+02
113             	3.32748156e+02
114             	3.32922200e+02
115             	3.33093382e+02
116             	3.33254239e+02
117             	3.33406916e+02
118             	3.33555447e+02
119             	3.33704412e+02
120             	3.33855108e+02
121             	3.34005624e+02
122             	3.34154030e+02
123             	3.34303665e+02
124             	3.34446287e+02
125             	3.34583039e+02
126             	3.34709818e+02
127             	3.34835073e+02
128             	3.34960449e+02
129             	3.35087618e+02
130             	3.35218548e+02
131             	3.35353605e+02
132             	3.35492500e+02
133             	3.35633403e+02
134             	3.35777762e+02
135             	3.35926361e+02
136             	3.36076846e+02
137             	3.36225423e+02
138             	3.36372686e+02
139             	3.36514505e+02
140             	3.36655116e+02
141             	3.36790367e+02
142             	3.36909216e+02
143             	3.37020994e+02
144             	3.37133291e+02
145             	3.37248052e+02
146             	3.37366315e+02
147             	3.37477310e+02
148             	3.37589369e+02
149             	3.37709574e+02
150             	3.37832185e+02
151             	3.37955167e+02
152             	3.38077279e+02
153             	3.38197038e+02
154             	3.38318721e+02
155             	3.38440470e+02
156             	3.38552238e+02
157             	3.38660397e+02
158             	3.38763008e+02
159             	3.38863267e+02
160             	3.38958447e+02
161             	3.39050496e+02
162             	3.39137481e+02
163             	3.39226494e+02
164             	3.39319844e+02
165             	3.39416738e+02
166             	3.39514639e+02
167             	3.39610849e+02
168             	3.39707493e+02
169             	3.39804847e+02
170             	3.39902780e+02
171             	3.39999580e+02
172             	3.40094471e+02
173             	3.40187399e+02
174             	3.40277944e+02
175             	3.40366341e+02
176             	3.40452897e+02
177             	3.40538260e+02
178             	3.40621025e+02
179             	3.40700924e+02
180             	3.40777315e+02
181             	3.40851287e+02
182             	3.40924094e+02
183             	3.40997206e+02
184             	3.41071839e+02
185             	3.41146673e+02
186             	3.41220464e+02
187             	3.41292040e+02
188             	3.41362726e+02
189             	3.41433895e+02
190             	3.41506989e+02
191             	3.41580371e+02
192             	3.41654609e+02
193             	3.41729017e+02
194             	3.41803840e+02
195             	3.41878959e+02
196             	3.41952643e+02
197             	3.42026457e+02
198             	3.42102263e+02
199             	3.42180212e+02
200             	3.42257710e+02
201             	3.42333818e+02
202             	3.42406946e+02
203             	3.42477626e+02
204             	3.42545121e+02
205             	3.42610302e+02
206             	3.42671056e+02
207             	3.42727713e+02
208             	3.42783905e+02
209             	3.42839140e+02
210             	3.42894279e+02
211             	3.42953386e+02
212             	3.43013805e+02
213             	3.43076014e+02
214             	3.43138663e+02
215             	3.43201273e+02
216             	3.43264256e+02
217             	3.43328551e+02
218             	3.43393540e+02
219             	3.43458594e+02
220             	3.43522744e+02
221             	3.43585310e+02
222             	3.43646375e+02
223             	3.43706797e+02
224             	3.43764945e+02
225             	3.43822037e+02
226             	3.43877981e+02
227             	3.43932845e+02
228             	3.43987656e+02
229             	3.44041817e+02
230             	3.44094487e+02
231             	3.44145470e+02
232             	3.44194344e+02
233             	3.44242115e+02
234             	3.44290031e+02
235             	3.44335727e+02
236             	3.44378903e+02
237             	3.44420398e+02
238             	3.44463009e+02
239             	3.44507142e+02
240             	3.44552473e+02
241             	3.44598098e+02
242             	3.44643551e+02
243             	3.44689463e+02
244             	3.44735963e+02
245             	3.44782786e+02
246             	3.44828932e+02
247             	3.44873811e+02
248             	3.44917861e+02
249             	3.44961991e+02
250             	3.45006300e+02
251             	3.45048831e+02
252             	3.45090067e+02
253             	3.45129711e+02
254             	3.45167716e+02
255             	3.45205299e+02
256             	3.45242366e+02
257             	3.45278359e+02
258             	3.45315202e+02
259             	3.45350046e+02
260             	3.45384283e+02
261             	3.45419945e+02
262             	3.45454980e+02
263             	3.45491430e+02
264             	3.45529143e+02
265             	3.45567344e+02
266             	3.45606196e+02
267             	3.45644739e+02
268             	3.45681614e+02
269             	3.45718948e+02
270             	3.45756369e+02
271             	3.45793631e+02
272             	3.45830719e+02
273             	3.45867583e+02
274             	3.45903735e+02
275             	3.45939196e+02
276             	3.45973780e+02
277             	3.46007331e+02
278             	3.46039673e+02
279             	3.46071560e+02
280             	3.46104292e+02
281             	3.46133936e+02
282             	3.46162000e+02
283             	3.46190430e+02
284             	3.46218241e+02
285             	3.46244741e+02
286             	3.46272145e+02
287             	3.46299425e+02
288             	3.46328671e+02
289             	3.46357845e+02
290             	3.46387062e+02
291             	3.46416535e+02
292             	3.46446249e+02
293             	3.46474688e+02
294             	3.46503871e+02
295             	3.46533899e+02
296             	3.46564772e+02
297             	3.46596408e+02
298             	3.46626080e+02
299             	3.46654530e+02
300             	3.46679675e+02
301             	3.46703310e+02
302             	3.46726991e+02
303             	3.46748535e+02
304             	3.46771182e+02
305             	3.46793628e+02
306             	3.46814009e+02
307             	3.46834092e+02
308             	3.46855016e+02
309             	3.46876649e+02
310             	3.46899571e+02
311             	3.46922589e+02
312             	3.46945752e+02
313             	3.46969110e+02
314             	3.46992750e+02
315             	3.47017126e+02
316             	3.47038805e+02
317             	3.47060234e+02
318             	3.47081558e+02
319             	3.47103389e+02
320             	3.47123837e+02
321             	3.47144113e+02
322             	3.47164407e+02
323             	3.47183048e+02
324             	3.47200158e+02
325             	3.47217233e+02
326             	3.47234174e+02
327             	3.47249059e+02
328             	3.47260554e+02
329             	3.47271620e+02
330             	3.47283824e+02
331             	3.47298492e+02
332             	3.47317154e+02
333             	3.47338132e+02
334             	3.47360933e+02
335             	3.47384827e+02
336             	3.47412428e+02
337             	3.47436440e+02
338             	3.47455333e+02
339             	3.47469911e+02
340             	3.47479744e+02
341             	3.47487429e+02
342             	3.47495706e+02
343             	3.47507266e+02
344             	3.47522614e+02
345             	3.47539996e+02
346             	3.47557929e+02
347             	3.47574424e+02
348             	3.47589132e+02
349             	3.47602844e+02
350             	3.47616071e+02
351             	3.47629122e+02
352             	3.47642077e+02
353             	3.47655865e+02
354             	3.47671382e+02
355             	3.47687028e+02
356             	3.47704806e+02
357             	3.47724052e+02
358             	3.47743852e+02
359             	3.47764084e+02
360             	3.47783709e+02
361             	3.47804294e+02
362             	3.47821617e+02
363             	3.47835970e+02
364             	3.47848139e+02
365             	3.47858044e+02
366             	3.47865496e+02
367             	3.47870978e+02
368             	3.47876526e+02
369             	3.47882602e+02
370             	3.47890606e+02
371             	3.47901164e+02
372             	3.47913815e+02
373             	3.47928162e+02
374             	3.47942846e+02
375             	3.47957485e+02
376             	3.47971942e+02
377             	3.47985952e+02
378             	3.47999437e+02
379             	3.48012511e+02
380             	3.48025375e+02
381             	3.48038911e+02
382             	3.48052680e+02
383             	3.48064654e+02
384             	3.48074669e+02
385             	3.48083068e+02
386             	3.48090584e+02
387             	3.48097607e+02
388             	3.48105837e+02
389             	3.48115160e+02
390             	3.48125693e+02
391             	3.48137123e+02
392             	3.48149139e+02
393             	3.48161003e+02
394             	3.48173147e+02
395             	3.48184759e+02
396             	3.48195389e+02
397             	3.48205138e+02
398             	3.48213818e+02
399             	3.48222034e+02
400             	3.48229806e+02
401             	3.48238038e+02
402             	3.48246391e+02
403             	3.48254856e+02
404             	3.48263666e+02
405             	3.48272202e+02
406             	3.48281137e+02
407             	3.48291162e+02
408             	3.48302002e+02
409             	3.48313458e+02
410             	3.48325118e+02
411             	3.48336639e+02
412             	3.48347449e+02
413             	3.48357159e+02
414             	3.48367228e+02
415             	3.48376592e+02
416             	3.48385529e+02
417             	3.48393837e+02
418             	3.48401563e+02
419             	3.48408996e+02
420             	3.48416331e+02
421             	3.48423504e+02
422             	3.48430508e+02
423             	3.48437084e+02
424             	3.48443428e+02
425             	3.48450487e+02
426             	3.48457899e+02
427             	3.48465457e+02
428             	3.48472822e+02
429             	3.48479752e+02
430             	3.48486227e+02
431             	3.48492326e+02
432             	3.48497708e+02
433             	3.48502566e+02
434             	3.48506970e+02
435             	3.48511520e+02
436             	3.48516817e+02
437             	3.48523268e+02
438             	3.48530566e+02
439             	3.48538201e+02
440             	3.48546128e+02
441             	3.48553501e+02
442             	3.48560309e+02
443             	3.48566831e+02
444             	3.48573239e+02
445             	3.48579611e+02
446             	3.48585975e+02
447             	3.48592318e+02
448             	3.48598630e+02
449             	3.48604952e+02
450             	3.48611337e+02
451             	3.48617834e+02
452             	3.48624388e+02
453             	3.48630906e+02
454             	3.48637562e+02
455             	3.48644067e+02
456             	3.48650594e+02
457             	3.48656951e+02
458             	3.48662770e+02
459             	3.48668177e+02
460             	3.48673652e+02
461             	3.48679146e+02
462             	3.48684584e+02
463             	3.48689940e+02
464             	3.48695258e+02
465             	3.48700511e+02
466             	3.48705470e+02
467             	3.48709872e+02
468             	3.48713927e+02
469             	3.48717720e+02
470             	3.48721298e+02
471             	3.48724788e+02
472             	3.48728297e+02
473             	3.48732153e+02
474             	3.48736386e+02
475             	3.48741028e+02
476             	3.48745758e+02
477             	3.48750549e+02
478             	3.48755552e+02
479             	3.48760489e+02
480             	3.48765295e+02
481             	3.48770013e+02
482             	3.48774630e+02
483             	3.48779040e+02
484             	3.48783060e+02
485             	3.48786985e+02
486             	3.48790868e+02
487             	3.48794851e+02
488             	3.48799014e+02
489             	3.48803505e+02
490             	3.48808092e+02
491             	3.48812787e+02
492             	3.48817553e+02
493             	3.48822006e+02
494             	3.48826060e+02
495             	3.48829865e+02
496             	3.48833465e+02
497             	3.48837032e+02
498             	3.48840543e+02
499             	3.48843977e+02
500             	3.48847372e+02
501             	3.48850947e+02
502             	3.48854503e+02
503             	3.48857740e+02
504             	3.48861026e+02
505             	3.48864357e+02
506             	3.48867814e+02
507             	3.48871459e+02
508             	3.48875189e+02
509             	3.48878957e+02
510             	3.48882889e+02
511             	3.48886724e+02
512             	3.48890591e+02
513             	3.48894271e+02
514             	3.48897870e+02
515             	3.48901395e+02
516             	3.48904924e+02
517             	3.48908336e+02
518             	3.48911742e+02
519             	3.48914979e+02
520             	3.48918411e+02
521             	3.48922237e+02
522             	3.48925864e+02
523             	3.48929202e+02
524             	3.48932343e+02
525             	3.48935335e+02
526             	3.48938200e+02
527             	3.48940972e+02
528             	3.48943703e+02
529             	3.48946351e+02
530             	3.48948870e+02
531             	3.48951308e+02
532             	3.48953656e+02
533             	3.48956014e+02
534             	3.48958212e+02
535             	3.48960217e+02
536             	3.48962179e+02
537             	3.48964156e+02
538             	3.48966114e+02
539             	3.48968043e+02
540             	3.48969968e+02
541             	3.48971934e+02
542             	3.48973886e+02
543             	3.48976068e+02
544             	3.48978476e+02
545             	3.48980983e+02
546             	3.48983689e+02
547             	3.48986585e+02
548             	3.48989585e+02
549             	3.48992624e+02
550             	3.48995649e+02
551             	3.48998688e+02
552             	3.49001593e+02
553             	3.49004368e+02
554             	3.49007101e+02
555             	3.49009730e+02
556             	3.49012257e+02
557             	3.49014710e+02
558             	3.49017106e+02
559             	3.49019445e+02
560             	3.49021734e+02
561             	3.49023976e+02
562             	3.49026236e+02
563             	3.49028496e+02
564             	3.49030730e+02
565             	3.49032885e+02
566             	3.49035054e+02
567             	3.49037200e+02
568             	3.49039371e+02
569             	3.49041564e+02
570             	3.49043780e+02
571             	3.49045945e+02
572             	3.49048120e+02
573             	3.49050326e+02
574             	3.49052552e+02
575             	3.49054780e+02
576             	3.49056979e+02
577             	3.49059114e+02
578             	3.49061201e+02
579             	3.49063245e+02
580             	3.49065268e+02
581             	3.49067265e+02
582             	3.49069181e+02
583             	3.49071019e+02
584             	3.49072795e+02
585             	3.49074506e+02
586             	3.49076144e+02
587             	3.49077703e+02
588             	3.49079187e+02
589             	3.49080634e+02
590             	3.49082020e+02
591             	3.49083374e+02
592             	3.49084689e+02
593             	3.49085961e+02
594             	3.49087200e+02
595             	3.49088320e+02
596             	3.49089520e+02
597             	3.49090788e+02
598             	3.49092135e+02
599             	3.49093485e+02
600             	3.49094882e+02
601             	3.49096274e+02
602             	3.49097569e+02
603             	3.49098775e+02
604             	3.49099923e+02
605             	3.49101038e+02
606             	3.49102114e+02
607             	3.49103303e+02
608             	3.49104585e+02
609             	3.49105927e+02
610             	3.49107303e+02
611             	3.49108739e+02
612             	3.49110181e+02
613             	3.49111660e+02
614             	3.49113100e+02
615             	3.49114462e+02
616             	3.49115724e+02
617             	3.49116944e+02
618             	3.49118209e+02
619             	3.49119524e+02
620             	3.49120883e+02
621             	3.49122282e+02
