# Region        : cellZone pcb
# Cells         : 563
# Volume        : 1.04426681e+00
# Time          	volAverage(T)
1               	3.00006873e+02
2               	3.00020146e+02
3               	3.00038800e+02
4               	3.00061724e+02
5               	3.00087509e+02
6               	3.00116757e+02
7               	3.00149784e+02
8               	3.00186042e+02
9               	3.00226287e+02
10              	3.00269061e+02
11              	3.00313782e+02
12              	3.00363173e+02
13              	3.00416357e+02
14              	3.00468808e+02
15              	3.00519559e+02
16              	3.00571938e+02
17              	3.00627523e+02
18              	3.00685227e+02
19              	3.00743856e+02
20              	3.00803263e+02
21              	3.00864676e+02
22              	3.00928802e+02
23              	3.00993409e+02
24              	3.01056721e+02
25              	3.01119321e+02
26              	3.01183438e+02
27              	3.01247101e+02
28              	3.01310641e+02
29              	3.01373919e+02
30              	3.01436265e+02
31              	3.01498089e+02
32              	3.01560952e+02
33              	3.01623447e+02
34              	3.01685740e+02
35              	3.01748627e+02
36              	3.01812746e+02
37              	3.01876060e+02
38              	3.01940716e+02
39              	3.02005312e+02
40              	3.02069064e+02
41              	3.02132025e+02
42              	3.02194165e+02
43              	3.02255543e+02
44              	3.02317371e+02
45              	3.02378984e+02
46              	3.02440745e+02
47              	3.02503254e+02
48              	3.02564952e+02
49              	3.02625542e+02
50              	3.02686136e+02
51              	3.02746673e+02
52              	3.02805488e+02
53              	3.02861820e+02
54              	3.02918492e+02
55              	3.02976385e+02
56              	3.03035538e+02
57              	3.03096375e+02
58              	3.03157143e+02
59              	3.03217786e+02
60              	3.03278165e+02
61              	3.03337848e+02
62              	3.03396180e+02
63              	3.03453950e+02
64              	3.03510615e+02
65              	3.03566322e+02
66              	3.03621325e+02
67              	3.03678056e+02
68              	3.03734112e+02
69              	3.03789432e+02
70              	3.03843657e+02
71              	3.03897639e+02
72              	3.03951719e+02
73              	3.04004823e+02
74              	3.04057461e+02
75              	3.04109587e+02
76              	3.04160501e+02
77              	3.04210226e+02
78              	3.04259734e+02
79              	3.04310496e+02
80              	3.04360693e+02
81              	3.04412880e+02
82              	3.04465242e+02
83              	3.04519115e+02
84              	3.04570987e+02
85              	3.04621271e+02
86              	3.04670737e+02
87              	3.04718981e+02
88              	3.04765829e+02
89              	3.04812270e+02
90              	3.04859300e+02
91              	3.04906752e+02
92              	3.04953839e+02
93              	3.05000616e+02
94              	3.05047429e+02
95              	3.05093099e+02
96              	3.05136880e+02
97              	3.05177985e+02
98              	3.05218595e+02
99              	3.05258759e+02
100             	3.05297723e+02
101             	3.05337877e+02
102             	3.05379787e+02
103             	3.05422742e+02
104             	3.05465096e+02
105             	3.05506506e+02
106             	3.05546290e+02
107             	3.05586044e+02
108             	3.05625302e+02
109             	3.05664589e+02
110             	3.05703471e+02
111             	3.05741951e+02
112             	3.05778755e+02
113             	3.05815963e+02
114             	3.05853914e+02
115             	3.05891650e+02
116             	3.05928574e+02
117             	3.05964954e+02
118             	3.06000106e+02
119             	3.06034082e+02
120             	3.06067711e+02
121             	3.06101100e+02
122             	3.06133629e+02
123             	3.06165967e+02
124             	3.06198766e+02
125             	3.06231921e+02
126             	3.06263661e+02
127             	3.06296190e+02
128             	3.06329505e+02
129             	3.06363664e+02
130             	3.06396398e+02
131             	3.06428607e+02
132             	3.06459525e+02
133             	3.06488370e+02
134             	3.06516869e+02
135             	3.06545210e+02
136             	3.06573493e+02
137             	3.06601825e+02
138             	3.06630057e+02
139             	3.06658526e+02
140             	3.06686616e+02
141             	3.06714395e+02
142             	3.06741582e+02
143             	3.06768572e+02
144             	3.06795647e+02
145             	3.06822307e+02
146             	3.06849197e+02
147             	3.06875913e+02
148             	3.06900643e+02
149             	3.06924927e+02
150             	3.06949598e+02
151             	3.06974427e+02
152             	3.06998741e+02
153             	3.07023295e+02
154             	3.07047615e+02
155             	3.07071734e+02
156             	3.07095981e+02
157             	3.07120023e+02
158             	3.07144041e+02
159             	3.07167696e+02
160             	3.07190903e+02
161             	3.07213482e+02
162             	3.07235826e+02
163             	3.07257673e+02
164             	3.07279212e+02
165             	3.07300484e+02
166             	3.07321813e+02
167             	3.07343160e+02
168             	3.07364696e+02
169             	3.07386876e+02
170             	3.07409176e+02
171             	3.07430578e+02
172             	3.07450238e+02
173             	3.07469951e+02
174             	3.07489332e+02
175             	3.07509343e+02
176             	3.07529075e+02
177             	3.07547587e+02
178             	3.07566798e+02
179             	3.07586714e+02
180             	3.07605494e+02
181             	3.07623768e+02
182             	3.07641096e+02
183             	3.07658076e+02
184             	3.07674193e+02
185             	3.07690500e+02
186             	3.07708070e+02
187             	3.07725024e+02
188             	3.07739352e+02
189             	3.07754620e+02
190             	3.07770407e+02
191             	3.07786523e+02
192             	3.07802535e+02
193             	3.07818408e+02
194             	3.07834269e+02
195             	3.07848953e+02
196             	3.07863711e+02
197             	3.07878823e+02
198             	3.07893631e+02
199             	3.07908042e+02
200             	3.07922382e+02
201             	3.07937079e+02
202             	3.07951313e+02
203             	3.07965300e+02
204             	3.07979571e+02
205             	3.07993877e+02
206             	3.08007743e+02
207             	3.08019908e+02
208             	3.08033358e+02
209             	3.08045900e+02
210             	3.08057180e+02
211             	3.08069056e+02
212             	3.08081380e+02
213             	3.08093944e+02
214             	3.08107081e+02
215             	3.08120639e+02
216             	3.08134712e+02
217             	3.08146530e+02
218             	3.08158058e+02
219             	3.08169714e+02
220             	3.08181246e+02
221             	3.08192661e+02
222             	3.08203941e+02
223             	3.08214992e+02
224             	3.08225947e+02
225             	3.08236651e+02
226             	3.08247763e+02
227             	3.08260326e+02
228             	3.08272992e+02
229             	3.08283622e+02
230             	3.08292771e+02
231             	3.08302378e+02
232             	3.08312381e+02
233             	3.08322738e+02
234             	3.08333440e+02
235             	3.08344580e+02
236             	3.08355946e+02
237             	3.08367494e+02
238             	3.08377609e+02
239             	3.08387256e+02
240             	3.08396455e+02
241             	3.08406078e+02
242             	3.08416534e+02
243             	3.08426243e+02
244             	3.08435832e+02
245             	3.08444903e+02
246             	3.08452944e+02
247             	3.08461975e+02
248             	3.08469938e+02
249             	3.08476784e+02
250             	3.08483989e+02
251             	3.08491593e+02
252             	3.08499361e+02
253             	3.08507218e+02
254             	3.08515236e+02
255             	3.08523269e+02
256             	3.08530840e+02
257             	3.08538343e+02
258             	3.08547144e+02
259             	3.08556709e+02
260             	3.08565234e+02
261             	3.08573323e+02
262             	3.08581895e+02
263             	3.08590401e+02
264             	3.08598680e+02
265             	3.08606581e+02
266             	3.08614709e+02
267             	3.08621999e+02
268             	3.08627963e+02
269             	3.08634825e+02
270             	3.08641815e+02
271             	3.08647008e+02
272             	3.08652137e+02
273             	3.08657577e+02
274             	3.08663622e+02
275             	3.08670057e+02
276             	3.08676141e+02
277             	3.08682556e+02
278             	3.08689425e+02
279             	3.08697007e+02
280             	3.08703580e+02
281             	3.08709387e+02
282             	3.08715159e+02
283             	3.08720840e+02
284             	3.08726356e+02
285             	3.08731840e+02
286             	3.08736747e+02
287             	3.08741398e+02
288             	3.08745984e+02
289             	3.08750808e+02
290             	3.08755708e+02
291             	3.08760631e+02
292             	3.08765398e+02
293             	3.08770465e+02
294             	3.08775411e+02
295             	3.08780540e+02
296             	3.08785881e+02
297             	3.08791257e+02
298             	3.08796486e+02
299             	3.08801366e+02
300             	3.08807158e+02
301             	3.08813608e+02
302             	3.08820063e+02
303             	3.08826216e+02
304             	3.08832112e+02
305             	3.08837794e+02
306             	3.08843590e+02
307             	3.08849177e+02
308             	3.08854879e+02
309             	3.08859438e+02
310             	3.08861961e+02
311             	3.08864562e+02
312             	3.08867457e+02
313             	3.08870767e+02
314             	3.08874271e+02
315             	3.08877649e+02
316             	3.08880977e+02
317             	3.08884377e+02
318             	3.08888303e+02
319             	3.08892405e+02
320             	3.08896520e+02
321             	3.08900455e+02
322             	3.08904342e+02
323             	3.08908945e+02
324             	3.08913283e+02
325             	3.08916128e+02
326             	3.08918532e+02
327             	3.08920958e+02
328             	3.08923549e+02
329             	3.08926374e+02
330             	3.08929225e+02
331             	3.08931997e+02
332             	3.08934920e+02
333             	3.08937678e+02
334             	3.08940830e+02
335             	3.08944574e+02
336             	3.08948920e+02
337             	3.08952734e+02
338             	3.08956520e+02
339             	3.08960194e+02
340             	3.08963715e+02
341             	3.08966724e+02
342             	3.08969699e+02
343             	3.08972169e+02
344             	3.08974148e+02
345             	3.08976352e+02
346             	3.08978735e+02
347             	3.08983170e+02
348             	3.08986635e+02
349             	3.08989464e+02
350             	3.08991663e+02
351             	3.08993677e+02
352             	3.08996231e+02
353             	3.08999594e+02
354             	3.09002655e+02
355             	3.09005207e+02
356             	3.09007532e+02
357             	3.09009505e+02
358             	3.09011360e+02
359             	3.09014502e+02
360             	3.09018620e+02
361             	3.09022008e+02
362             	3.09023140e+02
363             	3.09025645e+02
364             	3.09027072e+02
365             	3.09028029e+02
366             	3.09029185e+02
367             	3.09030583e+02
368             	3.09031649e+02
369             	3.09032979e+02
370             	3.09035584e+02
371             	3.09038457e+02
372             	3.09041163e+02
373             	3.09043359e+02
374             	3.09045236e+02
375             	3.09047631e+02
376             	3.09049953e+02
377             	3.09051250e+02
378             	3.09052245e+02
379             	3.09053526e+02
380             	3.09054967e+02
381             	3.09056553e+02
382             	3.09058303e+02
383             	3.09059691e+02
384             	3.09060638e+02
385             	3.09062593e+02
386             	3.09065234e+02
387             	3.09067881e+02
388             	3.09070408e+02
389             	3.09072956e+02
390             	3.09075493e+02
391             	3.09077977e+02
392             	3.09080691e+02
393             	3.09083872e+02
394             	3.09087394e+02
395             	3.09090438e+02
396             	3.09092795e+02
397             	3.09093479e+02
398             	3.09095267e+02
399             	3.09095858e+02
400             	3.09095448e+02
401             	3.09095447e+02
402             	3.09095923e+02
403             	3.09096954e+02
404             	3.09098231e+02
405             	3.09099626e+02
406             	3.09101842e+02
407             	3.09103813e+02
408             	3.09105690e+02
409             	3.09107228e+02
410             	3.09108513e+02
411             	3.09109579e+02
412             	3.09110330e+02
413             	3.09111055e+02
414             	3.09111940e+02
415             	3.09112820e+02
416             	3.09113706e+02
417             	3.09114758e+02
418             	3.09115769e+02
419             	3.09116520e+02
420             	3.09117477e+02
421             	3.09118322e+02
422             	3.09119348e+02
423             	3.09120669e+02
424             	3.09122225e+02
425             	3.09124221e+02
426             	3.09125823e+02
427             	3.09127182e+02
428             	3.09128725e+02
429             	3.09130366e+02
430             	3.09131690e+02
431             	3.09132642e+02
432             	3.09133117e+02
433             	3.09134386e+02
434             	3.09136639e+02
435             	3.09138432e+02
436             	3.09139819e+02
437             	3.09141688e+02
438             	3.09144261e+02
439             	3.09145709e+02
440             	3.09147835e+02
441             	3.09150029e+02
442             	3.09149881e+02
443             	3.09151031e+02
444             	3.09151815e+02
445             	3.09151388e+02
446             	3.09150902e+02
447             	3.09151288e+02
448             	3.09152042e+02
449             	3.09152641e+02
450             	3.09153680e+02
451             	3.09155268e+02
452             	3.09156866e+02
453             	3.09158409e+02
454             	3.09160330e+02
455             	3.09162403e+02
456             	3.09163950e+02
457             	3.09163491e+02
458             	3.09162721e+02
459             	3.09162014e+02
460             	3.09161983e+02
461             	3.09161926e+02
462             	3.09161974e+02
463             	3.09161763e+02
464             	3.09162419e+02
465             	3.09163891e+02
466             	3.09165284e+02
467             	3.09166128e+02
468             	3.09166535e+02
469             	3.09166672e+02
470             	3.09166986e+02
471             	3.09166974e+02
472             	3.09166859e+02
473             	3.09167746e+02
474             	3.09167818e+02
475             	3.09167547e+02
476             	3.09167630e+02
477             	3.09168061e+02
478             	3.09168413e+02
479             	3.09168302e+02
480             	3.09168435e+02
481             	3.09169654e+02
482             	3.09171286e+02
483             	3.09173025e+02
484             	3.09174601e+02
485             	3.09175876e+02
486             	3.09177021e+02
487             	3.09178187e+02
488             	3.09180338e+02
489             	3.09182352e+02
490             	3.09182149e+02
491             	3.09181211e+02
492             	3.09180546e+02
493             	3.09180196e+02
494             	3.09180150e+02
495             	3.09180379e+02
496             	3.09180977e+02
497             	3.09181815e+02
498             	3.09182006e+02
499             	3.09181675e+02
500             	3.09182194e+02
501             	3.09183610e+02
502             	3.09184835e+02
503             	3.09186178e+02
504             	3.09187884e+02
505             	3.09189080e+02
506             	3.09188967e+02
507             	3.09188688e+02
508             	3.09188361e+02
509             	3.09188046e+02
510             	3.09187827e+02
511             	3.09187748e+02
512             	3.09188166e+02
513             	3.09188549e+02
514             	3.09189440e+02
515             	3.09192199e+02
516             	3.09194432e+02
517             	3.09194570e+02
518             	3.09194682e+02
519             	3.09195240e+02
520             	3.09196165e+02
521             	3.09197405e+02
522             	3.09198893e+02
523             	3.09200930e+02
524             	3.09202784e+02
525             	3.09204007e+02
526             	3.09204788e+02
527             	3.09205917e+02
528             	3.09207118e+02
529             	3.09208374e+02
530             	3.09209610e+02
531             	3.09210891e+02
532             	3.09212143e+02
533             	3.09214399e+02
534             	3.09216886e+02
535             	3.09218994e+02
536             	3.09218964e+02
537             	3.09217985e+02
538             	3.09216688e+02
539             	3.09216003e+02
540             	3.09216158e+02
541             	3.09216449e+02
542             	3.09216964e+02
543             	3.09217797e+02
544             	3.09219546e+02
545             	3.09220853e+02
546             	3.09222083e+02
547             	3.09222984e+02
548             	3.09224073e+02
549             	3.09225215e+02
550             	3.09225491e+02
551             	3.09225254e+02
552             	3.09225241e+02
553             	3.09225674e+02
554             	3.09225973e+02
555             	3.09226163e+02
556             	3.09226352e+02
557             	3.09226663e+02
558             	3.09227065e+02
559             	3.09227373e+02
560             	3.09228287e+02
561             	3.09230278e+02
562             	3.09232397e+02
563             	3.09233718e+02
564             	3.09234236e+02
565             	3.09234907e+02
566             	3.09237436e+02
567             	3.09238847e+02
568             	3.09241105e+02
569             	3.09243046e+02
570             	3.09243351e+02
571             	3.09243465e+02
572             	3.09243341e+02
573             	3.09243644e+02
574             	3.09243613e+02
575             	3.09244029e+02
576             	3.09245250e+02
577             	3.09246609e+02
578             	3.09247768e+02
579             	3.09248921e+02
580             	3.09249878e+02
581             	3.09250466e+02
582             	3.09250798e+02
583             	3.09251226e+02
584             	3.09251792e+02
585             	3.09252128e+02
586             	3.09252914e+02
587             	3.09253259e+02
588             	3.09253329e+02
589             	3.09253510e+02
590             	3.09253705e+02
591             	3.09253975e+02
592             	3.09254099e+02
593             	3.09254531e+02
594             	3.09255168e+02
595             	3.09255561e+02
596             	3.09256091e+02
597             	3.09256857e+02
598             	3.09257721e+02
599             	3.09259113e+02
600             	3.09260354e+02
601             	3.09261499e+02
602             	3.09262370e+02
603             	3.09262759e+02
604             	3.09262930e+02
605             	3.09263092e+02
606             	3.09263364e+02
607             	3.09263784e+02
608             	3.09264283e+02
609             	3.09264856e+02
610             	3.09265526e+02
611             	3.09266329e+02
612             	3.09267288e+02
613             	3.09268887e+02
614             	3.09270588e+02
615             	3.09272105e+02
616             	3.09273403e+02
617             	3.09275173e+02
618             	3.09277208e+02
619             	3.09278239e+02
620             	3.09278424e+02
621             	3.09278453e+02
