# Region        : cellZone component_4
# Cells         : 22
# Volume        : 3.12025684e-02
# Time          	volAverage(T)
1               	3.01539951e+02
2               	3.03029766e+02
3               	3.04325032e+02
4               	3.05540208e+02
5               	3.06727944e+02
6               	3.07906508e+02
7               	3.09072307e+02
8               	3.10236617e+02
9               	3.11396695e+02
10              	3.12553151e+02
11              	3.13698378e+02
12              	3.14833877e+02
13              	3.15950497e+02
14              	3.17028707e+02
15              	3.18085001e+02
16              	3.19112769e+02
17              	3.20084407e+02
18              	3.21018963e+02
19              	3.21898038e+02
20              	3.22724276e+02
21              	3.23513696e+02
22              	3.24259182e+02
23              	3.25003100e+02
24              	3.25773215e+02
25              	3.26547985e+02
26              	3.27344705e+02
27              	3.28075486e+02
28              	3.28790168e+02
29              	3.29469807e+02
30              	3.30165220e+02
31              	3.30808860e+02
32              	3.31453261e+02
33              	3.32108683e+02
34              	3.32702381e+02
35              	3.33266923e+02
36              	3.33819514e+02
37              	3.34380486e+02
38              	3.34898075e+02
39              	3.35290434e+02
40              	3.35694617e+02
41              	3.36015650e+02
42              	3.36341608e+02
43              	3.36739452e+02
44              	3.37164433e+02
45              	3.37622457e+02
46              	3.38115104e+02
47              	3.38488508e+02
48              	3.38769587e+02
49              	3.39031658e+02
50              	3.39287187e+02
51              	3.39564050e+02
52              	3.39843599e+02
53              	3.40082097e+02
54              	3.40311747e+02
55              	3.40492953e+02
56              	3.40681303e+02
57              	3.40860901e+02
58              	3.41044526e+02
59              	3.41199575e+02
60              	3.41320449e+02
61              	3.41434585e+02
62              	3.41586646e+02
63              	3.41809411e+02
64              	3.42022726e+02
65              	3.42206041e+02
66              	3.42417648e+02
67              	3.42633711e+02
68              	3.42847855e+02
69              	3.43070027e+02
70              	3.43274237e+02
71              	3.43446528e+02
72              	3.43616452e+02
73              	3.43844403e+02
74              	3.44035248e+02
75              	3.44240126e+02
76              	3.44468717e+02
77              	3.44709662e+02
78              	3.44981236e+02
79              	3.45286485e+02
80              	3.45628020e+02
81              	3.45972542e+02
82              	3.46299625e+02
83              	3.46639702e+02
84              	3.46963313e+02
85              	3.47279151e+02
86              	3.47617053e+02
87              	3.47949715e+02
88              	3.48281867e+02
89              	3.48625165e+02
90              	3.48955157e+02
91              	3.49257682e+02
92              	3.49556496e+02
93              	3.49844613e+02
94              	3.50124421e+02
95              	3.50392529e+02
96              	3.50656328e+02
97              	3.50923951e+02
98              	3.51191407e+02
99              	3.51449200e+02
100             	3.51695987e+02
101             	3.51939247e+02
102             	3.52177176e+02
103             	3.52406672e+02
104             	3.52619131e+02
105             	3.52818557e+02
106             	3.53002692e+02
107             	3.53151151e+02
108             	3.53316748e+02
109             	3.53469525e+02
110             	3.53614420e+02
111             	3.53756334e+02
112             	3.53905018e+02
113             	3.54066252e+02
114             	3.54240737e+02
115             	3.54430556e+02
116             	3.54575341e+02
117             	3.54750907e+02
118             	3.54902070e+02
119             	3.55084264e+02
120             	3.55229066e+02
121             	3.55396686e+02
122             	3.55570481e+02
123             	3.55739659e+02
124             	3.55887225e+02
125             	3.56019903e+02
126             	3.56144936e+02
127             	3.56265807e+02
128             	3.56382173e+02
129             	3.56500935e+02
130             	3.56619768e+02
131             	3.56689073e+02
132             	3.56775285e+02
133             	3.56874229e+02
134             	3.56967269e+02
135             	3.57060158e+02
136             	3.57159730e+02
137             	3.57264332e+02
138             	3.57369479e+02
139             	3.57466221e+02
140             	3.57570639e+02
141             	3.57631232e+02
142             	3.57717301e+02
143             	3.57775451e+02
144             	3.57858722e+02
145             	3.57909816e+02
146             	3.57985122e+02
147             	3.58027647e+02
148             	3.58091178e+02
149             	3.58161296e+02
150             	3.58233920e+02
151             	3.58303050e+02
152             	3.58364417e+02
153             	3.58420664e+02
154             	3.58454097e+02
155             	3.58491351e+02
156             	3.58526280e+02
157             	3.58559304e+02
158             	3.58592713e+02
159             	3.58632742e+02
160             	3.58678289e+02
161             	3.58724265e+02
162             	3.58772085e+02
163             	3.58772521e+02
164             	3.58801413e+02
165             	3.58851371e+02
166             	3.58860783e+02
167             	3.58898677e+02
168             	3.58958851e+02
169             	3.58960864e+02
170             	3.58990647e+02
171             	3.59037255e+02
172             	3.59042849e+02
173             	3.59072217e+02
174             	3.59118800e+02
175             	3.59161937e+02
176             	3.59188743e+02
177             	3.59218838e+02
178             	3.59255410e+02
179             	3.59292899e+02
180             	3.59326654e+02
181             	3.59356684e+02
182             	3.59393772e+02
183             	3.59387123e+02
184             	3.59411181e+02
185             	3.59404697e+02
186             	3.59426908e+02
187             	3.59421694e+02
188             	3.59446450e+02
189             	3.59438947e+02
190             	3.59456732e+02
191             	3.59489562e+02
192             	3.59515534e+02
193             	3.59544162e+02
194             	3.59571690e+02
195             	3.59587259e+02
196             	3.59610492e+02
197             	3.59639614e+02
198             	3.59673444e+02
199             	3.59657301e+02
200             	3.59668158e+02
201             	3.59703076e+02
202             	3.59685369e+02
203             	3.59696531e+02
204             	3.59730327e+02
205             	3.59713846e+02
206             	3.59723943e+02
207             	3.59748619e+02
208             	3.59775153e+02
209             	3.59804711e+02
210             	3.59832468e+02
211             	3.59858248e+02
212             	3.59833091e+02
213             	3.59834155e+02
214             	3.59850557e+02
215             	3.59825964e+02
216             	3.59827850e+02
217             	3.59852120e+02
218             	3.59826307e+02
219             	3.59825169e+02
220             	3.59838196e+02
221             	3.59862709e+02
222             	3.59836945e+02
223             	3.59835253e+02
224             	3.59849005e+02
225             	3.59871884e+02
226             	3.59844687e+02
227             	3.59842582e+02
228             	3.59857455e+02
229             	3.59879721e+02
230             	3.59852614e+02
231             	3.59850793e+02
232             	3.59860302e+02
233             	3.59882296e+02
234             	3.59904942e+02
235             	3.59877312e+02
236             	3.59875033e+02
237             	3.59891849e+02
238             	3.59865809e+02
239             	3.59866316e+02
240             	3.59889874e+02
241             	3.59861805e+02
242             	3.59859807e+02
243             	3.59875956e+02
244             	3.59896016e+02
245             	3.59866262e+02
246             	3.59860870e+02
247             	3.59871351e+02
248             	3.59891203e+02
249             	3.59860214e+02
250             	3.59853469e+02
251             	3.59863901e+02
252             	3.59882025e+02
253             	3.59849736e+02
254             	3.59843399e+02
255             	3.59855577e+02
256             	3.59825611e+02
257             	3.59820478e+02
258             	3.59831910e+02
259             	3.59851743e+02
260             	3.59820592e+02
261             	3.59814042e+02
262             	3.59820899e+02
263             	3.59840425e+02
264             	3.59808943e+02
265             	3.59802368e+02
266             	3.59812428e+02
267             	3.59831121e+02
268             	3.59799389e+02
269             	3.59792931e+02
270             	3.59803869e+02
271             	3.59774253e+02
272             	3.59769329e+02
273             	3.59780078e+02
274             	3.59798419e+02
275             	3.59765583e+02
276             	3.59757486e+02
277             	3.59765793e+02
278             	3.59782663e+02
279             	3.59748983e+02
280             	3.59740116e+02
281             	3.59747548e+02
282             	3.59764239e+02
283             	3.59730400e+02
284             	3.59720932e+02
285             	3.59728247e+02
286             	3.59744648e+02
287             	3.59710302e+02
288             	3.59701087e+02
289             	3.59709108e+02
290             	3.59725390e+02
291             	3.59691247e+02
292             	3.59682557e+02
293             	3.59690813e+02
294             	3.59707599e+02
295             	3.59673845e+02
296             	3.59665018e+02
297             	3.59671990e+02
298             	3.59689274e+02
299             	3.59655548e+02
300             	3.59646954e+02
301             	3.59655163e+02
302             	3.59671535e+02
303             	3.59637192e+02
304             	3.59628172e+02
305             	3.59636059e+02
306             	3.59652623e+02
307             	3.59618589e+02
308             	3.59609806e+02
309             	3.59617803e+02
310             	3.59634546e+02
311             	3.59600618e+02
312             	3.59591798e+02
313             	3.59599501e+02
314             	3.59615216e+02
315             	3.59580194e+02
316             	3.59570140e+02
317             	3.59576777e+02
318             	3.59591814e+02
319             	3.59556094e+02
320             	3.59545158e+02
321             	3.59550542e+02
322             	3.59564815e+02
323             	3.59528409e+02
324             	3.59516680e+02
325             	3.59520070e+02
326             	3.59535045e+02
327             	3.59499037e+02
328             	3.59487803e+02
329             	3.59492817e+02
330             	3.59507507e+02
331             	3.59471442e+02
332             	3.59460250e+02
333             	3.59465864e+02
334             	3.59480894e+02
335             	3.59445272e+02
336             	3.59434794e+02
337             	3.59441762e+02
338             	3.59457040e+02
339             	3.59421849e+02
340             	3.59411698e+02
341             	3.59417905e+02
342             	3.59433835e+02
343             	3.59399055e+02
344             	3.59389073e+02
345             	3.59394892e+02
346             	3.59411176e+02
347             	3.59376582e+02
348             	3.59366973e+02
349             	3.59373957e+02
350             	3.59390238e+02
351             	3.59355859e+02
352             	3.59346736e+02
353             	3.59354470e+02
354             	3.59371522e+02
355             	3.59338046e+02
356             	3.59329662e+02
357             	3.59337812e+02
358             	3.59355552e+02
359             	3.59322677e+02
360             	3.59315084e+02
361             	3.59324438e+02
362             	3.59342343e+02
363             	3.59309540e+02
364             	3.59301810e+02
365             	3.59310666e+02
366             	3.59328332e+02
367             	3.59295151e+02
368             	3.59286942e+02
369             	3.59295317e+02
370             	3.59312597e+02
371             	3.59279283e+02
372             	3.59270992e+02
373             	3.59279122e+02
374             	3.59296526e+02
375             	3.59263302e+02
376             	3.59254981e+02
377             	3.59263194e+02
378             	3.59280638e+02
379             	3.59247099e+02
380             	3.59238443e+02
381             	3.59246456e+02
382             	3.59263065e+02
383             	3.59228527e+02
384             	3.59219064e+02
385             	3.59226248e+02
386             	3.59242731e+02
387             	3.59208685e+02
388             	3.59199629e+02
389             	3.59207014e+02
390             	3.59223743e+02
391             	3.59189753e+02
392             	3.59180425e+02
393             	3.59187123e+02
394             	3.59203526e+02
395             	3.59169254e+02
396             	3.59159772e+02
397             	3.59167279e+02
398             	3.59183607e+02
399             	3.59149506e+02
400             	3.59140604e+02
401             	3.59148306e+02
402             	3.59165416e+02
403             	3.59132022e+02
404             	3.59123292e+02
405             	3.59130458e+02
406             	3.59147734e+02
407             	3.59114957e+02
408             	3.59106922e+02
409             	3.59115264e+02
410             	3.59133135e+02
411             	3.59100528e+02
412             	3.59093056e+02
413             	3.59101986e+02
414             	3.59120786e+02
415             	3.59089228e+02
416             	3.59082763e+02
417             	3.59091986e+02
418             	3.59111763e+02
419             	3.59080839e+02
420             	3.59075228e+02
421             	3.59086351e+02
422             	3.59106411e+02
423             	3.59075668e+02
424             	3.59070243e+02
425             	3.59081470e+02
426             	3.59101728e+02
427             	3.59071652e+02
428             	3.59066492e+02
429             	3.59077494e+02
430             	3.59098195e+02
431             	3.59068579e+02
432             	3.59063981e+02
433             	3.59075742e+02
434             	3.59096878e+02
435             	3.59067794e+02
436             	3.59063774e+02
437             	3.59076290e+02
438             	3.59097890e+02
439             	3.59069373e+02
440             	3.59065916e+02
441             	3.59078784e+02
442             	3.59100879e+02
443             	3.59072778e+02
444             	3.59069710e+02
445             	3.59083074e+02
446             	3.59105588e+02
447             	3.59078064e+02
448             	3.59075679e+02
449             	3.59089360e+02
450             	3.59112487e+02
451             	3.59085459e+02
452             	3.59083384e+02
453             	3.59097534e+02
454             	3.59120977e+02
455             	3.59094323e+02
456             	3.59092671e+02
457             	3.59107457e+02
458             	3.59131282e+02
459             	3.59105146e+02
460             	3.59103948e+02
461             	3.59118813e+02
462             	3.59143220e+02
463             	3.59117671e+02
464             	3.59117045e+02
465             	3.59132350e+02
466             	3.59157290e+02
467             	3.59132491e+02
468             	3.59132818e+02
469             	3.59149056e+02
470             	3.59175183e+02
471             	3.59151607e+02
472             	3.59153239e+02
473             	3.59170744e+02
474             	3.59197802e+02
475             	3.59174398e+02
476             	3.59177140e+02
477             	3.59195713e+02
478             	3.59223508e+02
479             	3.59200966e+02
480             	3.59204589e+02
481             	3.59224024e+02
482             	3.59252551e+02
483             	3.59230781e+02
484             	3.59235132e+02
485             	3.59255241e+02
486             	3.59284765e+02
487             	3.59263973e+02
488             	3.59269256e+02
489             	3.59290207e+02
490             	3.59320124e+02
491             	3.59299700e+02
492             	3.59305408e+02
493             	3.59326896e+02
494             	3.59356878e+02
495             	3.59336417e+02
496             	3.59342103e+02
497             	3.59363978e+02
498             	3.59393758e+02
499             	3.59373176e+02
500             	3.59378718e+02
501             	3.59400039e+02
502             	3.59429961e+02
503             	3.59409455e+02
504             	3.59414830e+02
505             	3.59435687e+02
506             	3.59465114e+02
507             	3.59444033e+02
508             	3.59448912e+02
509             	3.59469814e+02
510             	3.59498587e+02
511             	3.59477085e+02
512             	3.59481541e+02
513             	3.59501579e+02
514             	3.59530723e+02
515             	3.59509657e+02
516             	3.59514221e+02
517             	3.59534138e+02
518             	3.59563348e+02
519             	3.59542112e+02
520             	3.59546855e+02
521             	3.59567416e+02
522             	3.59596403e+02
523             	3.59575161e+02
524             	3.59580115e+02
525             	3.59600802e+02
526             	3.59630171e+02
527             	3.59609383e+02
528             	3.59614691e+02
529             	3.59635458e+02
530             	3.59664959e+02
531             	3.59644178e+02
532             	3.59649483e+02
533             	3.59670358e+02
534             	3.59699882e+02
535             	3.59679308e+02
536             	3.59684872e+02
537             	3.59706063e+02
538             	3.59735826e+02
539             	3.59715508e+02
540             	3.59721336e+02
541             	3.59742778e+02
542             	3.59772239e+02
543             	3.59751649e+02
544             	3.59757033e+02
545             	3.59778176e+02
546             	3.59807384e+02
547             	3.59786482e+02
548             	3.59791473e+02
549             	3.59811854e+02
550             	3.59840652e+02
551             	3.59819333e+02
552             	3.59824038e+02
553             	3.59845110e+02
554             	3.59873533e+02
555             	3.59852262e+02
556             	3.59857035e+02
557             	3.59878221e+02
558             	3.59906705e+02
559             	3.59885261e+02
560             	3.59889939e+02
561             	3.59910841e+02
562             	3.59939374e+02
563             	3.59917826e+02
564             	3.59922347e+02
565             	3.59943329e+02
566             	3.59972498e+02
567             	3.59950311e+02
568             	3.59954315e+02
569             	3.59974754e+02
570             	3.60003421e+02
571             	3.59980775e+02
572             	3.59984326e+02
573             	3.60004215e+02
574             	3.60032254e+02
575             	3.60008943e+02
576             	3.60011748e+02
577             	3.60030775e+02
578             	3.60058075e+02
579             	3.60033965e+02
580             	3.60036081e+02
581             	3.60054474e+02
582             	3.60080939e+02
583             	3.60056148e+02
584             	3.60057571e+02
585             	3.60075365e+02
586             	3.60101302e+02
587             	3.60075978e+02
588             	3.60076814e+02
589             	3.60093792e+02
590             	3.60119236e+02
591             	3.60093399e+02
592             	3.60093627e+02
593             	3.60109956e+02
594             	3.60134921e+02
595             	3.60108568e+02
596             	3.60108448e+02
597             	3.60124516e+02
598             	3.60149183e+02
599             	3.60122613e+02
600             	3.60122275e+02
601             	3.60138234e+02
602             	3.60162732e+02
603             	3.60136238e+02
604             	3.60136084e+02
605             	3.60152197e+02
606             	3.60176791e+02
607             	3.60150246e+02
608             	3.60150110e+02
609             	3.60166466e+02
610             	3.60191355e+02
611             	3.60165090e+02
612             	3.60165297e+02
613             	3.60182157e+02
614             	3.60207227e+02
615             	3.60181153e+02
616             	3.60181571e+02
617             	3.60198178e+02
618             	3.60223042e+02
619             	3.60196514e+02
620             	3.60196273e+02
621             	3.60212221e+02
