# Region        : cellZone component_0
# Cells         : 468
# Volume        : 1.02952896e+00
# Time          	volAverage(T)
1               	3.00539327e+02
2               	3.01064351e+02
3               	3.01465878e+02
4               	3.01775788e+02
5               	3.02067821e+02
6               	3.02371183e+02
7               	3.02671446e+02
8               	3.02949866e+02
9               	3.03206177e+02
10              	3.03449272e+02
11              	3.03686323e+02
12              	3.03920210e+02
13              	3.04148570e+02
14              	3.04371613e+02
15              	3.04590532e+02
16              	3.04802575e+02
17              	3.04999760e+02
18              	3.05185287e+02
19              	3.05365705e+02
20              	3.05538282e+02
21              	3.05700684e+02
22              	3.05851525e+02
23              	3.05990740e+02
24              	3.06117893e+02
25              	3.06234766e+02
26              	3.06341773e+02
27              	3.06443481e+02
28              	3.06543223e+02
29              	3.06641903e+02
30              	3.06744442e+02
31              	3.06855296e+02
32              	3.06964889e+02
33              	3.07059447e+02
34              	3.07135057e+02
35              	3.07196449e+02
36              	3.07263710e+02
37              	3.07331865e+02
38              	3.07392303e+02
39              	3.07443591e+02
40              	3.07488456e+02
41              	3.07531589e+02
42              	3.07574761e+02
43              	3.07623034e+02
44              	3.07676850e+02
45              	3.07736759e+02
46              	3.07798977e+02
47              	3.07861030e+02
48              	3.07922471e+02
49              	3.07979217e+02
50              	3.08029236e+02
51              	3.08069858e+02
52              	3.08102098e+02
53              	3.08126512e+02
54              	3.08145444e+02
55              	3.08162354e+02
56              	3.08183271e+02
57              	3.08208883e+02
58              	3.08240593e+02
59              	3.08279560e+02
60              	3.08324195e+02
61              	3.08367012e+02
62              	3.08404091e+02
63              	3.08430233e+02
64              	3.08444327e+02
65              	3.08447173e+02
66              	3.08441549e+02
67              	3.08430642e+02
68              	3.08421205e+02
69              	3.08416825e+02
70              	3.08418501e+02
71              	3.08428291e+02
72              	3.08445962e+02
73              	3.08467367e+02
74              	3.08488504e+02
75              	3.08507625e+02
76              	3.08519349e+02
77              	3.08522886e+02
78              	3.08519172e+02
79              	3.08510624e+02
80              	3.08497359e+02
81              	3.08481307e+02
82              	3.08466180e+02
83              	3.08452198e+02
84              	3.08441269e+02
85              	3.08433241e+02
86              	3.08429601e+02
87              	3.08429860e+02
88              	3.08434441e+02
89              	3.08442685e+02
90              	3.08454059e+02
91              	3.08467169e+02
92              	3.08479417e+02
93              	3.08489628e+02
94              	3.08497067e+02
95              	3.08501197e+02
96              	3.08502442e+02
97              	3.08501108e+02
98              	3.08497730e+02
99              	3.08492527e+02
100             	3.08485806e+02
101             	3.08477787e+02
102             	3.08469285e+02
103             	3.08461939e+02
104             	3.08457437e+02
105             	3.08456512e+02
106             	3.08459339e+02
107             	3.08465642e+02
108             	3.08475302e+02
109             	3.08486431e+02
110             	3.08496157e+02
111             	3.08503695e+02
112             	3.08507475e+02
113             	3.08506972e+02
114             	3.08502975e+02
115             	3.08496396e+02
116             	3.08488131e+02
117             	3.08480055e+02
118             	3.08473262e+02
119             	3.08468670e+02
120             	3.08466542e+02
121             	3.08466503e+02
122             	3.08468805e+02
123             	3.08473255e+02
124             	3.08480047e+02
125             	3.08488604e+02
126             	3.08498071e+02
127             	3.08507647e+02
128             	3.08515724e+02
129             	3.08522330e+02
130             	3.08527101e+02
131             	3.08530016e+02
132             	3.08531273e+02
133             	3.08531246e+02
134             	3.08529988e+02
135             	3.08527695e+02
136             	3.08524444e+02
137             	3.08520508e+02
138             	3.08516784e+02
139             	3.08514364e+02
140             	3.08513532e+02
141             	3.08514432e+02
142             	3.08517449e+02
143             	3.08523038e+02
144             	3.08530879e+02
145             	3.08539888e+02
146             	3.08549336e+02
147             	3.08557645e+02
148             	3.08563589e+02
149             	3.08566641e+02
150             	3.08566837e+02
151             	3.08564545e+02
152             	3.08560307e+02
153             	3.08554780e+02
154             	3.08549842e+02
155             	3.08546573e+02
156             	3.08545071e+02
157             	3.08545517e+02
158             	3.08547963e+02
159             	3.08551992e+02
160             	3.08557281e+02
161             	3.08563580e+02
162             	3.08570235e+02
163             	3.08576934e+02
164             	3.08583448e+02
165             	3.08589542e+02
166             	3.08594942e+02
167             	3.08599442e+02
168             	3.08602869e+02
169             	3.08604825e+02
170             	3.08605517e+02
171             	3.08605074e+02
172             	3.08603765e+02
173             	3.08601518e+02
174             	3.08598499e+02
175             	3.08595435e+02
176             	3.08593253e+02
177             	3.08592184e+02
178             	3.08592337e+02
179             	3.08593877e+02
180             	3.08596925e+02
181             	3.08601521e+02
182             	3.08607507e+02
183             	3.08613793e+02
184             	3.08619317e+02
185             	3.08623730e+02
186             	3.08626272e+02
187             	3.08627397e+02
188             	3.08627084e+02
189             	3.08625675e+02
190             	3.08623175e+02
191             	3.08620005e+02
192             	3.08616760e+02
193             	3.08613930e+02
194             	3.08611785e+02
195             	3.08610722e+02
196             	3.08610989e+02
197             	3.08612487e+02
198             	3.08615075e+02
199             	3.08618585e+02
200             	3.08622567e+02
201             	3.08627100e+02
202             	3.08632073e+02
203             	3.08637519e+02
204             	3.08643447e+02
205             	3.08649301e+02
206             	3.08653657e+02
207             	3.08656215e+02
208             	3.08656882e+02
209             	3.08655744e+02
210             	3.08652950e+02
211             	3.08648510e+02
212             	3.08643437e+02
213             	3.08639754e+02
214             	3.08638541e+02
215             	3.08640182e+02
216             	3.08645333e+02
217             	3.08652466e+02
218             	3.08660093e+02
219             	3.08666854e+02
220             	3.08671841e+02
221             	3.08674600e+02
222             	3.08674979e+02
223             	3.08673309e+02
224             	3.08669734e+02
225             	3.08665354e+02
226             	3.08661911e+02
227             	3.08659945e+02
228             	3.08659717e+02
229             	3.08661300e+02
230             	3.08664553e+02
231             	3.08669062e+02
232             	3.08674358e+02
233             	3.08679803e+02
234             	3.08684870e+02
235             	3.08689277e+02
236             	3.08692544e+02
237             	3.08694332e+02
238             	3.08694842e+02
239             	3.08694166e+02
240             	3.08692570e+02
241             	3.08690248e+02
242             	3.08687483e+02
243             	3.08684519e+02
244             	3.08681742e+02
245             	3.08679234e+02
246             	3.08677451e+02
247             	3.08676615e+02
248             	3.08676641e+02
249             	3.08677476e+02
250             	3.08679049e+02
251             	3.08681215e+02
252             	3.08683831e+02
253             	3.08686643e+02
254             	3.08689611e+02
255             	3.08692638e+02
256             	3.08695699e+02
257             	3.08698541e+02
258             	3.08700949e+02
259             	3.08702850e+02
260             	3.08704075e+02
261             	3.08704633e+02
262             	3.08704537e+02
263             	3.08703858e+02
264             	3.08702650e+02
265             	3.08701023e+02
266             	3.08699113e+02
267             	3.08697128e+02
268             	3.08695591e+02
269             	3.08694532e+02
270             	3.08694182e+02
271             	3.08694655e+02
272             	3.08695863e+02
273             	3.08697747e+02
274             	3.08700260e+02
275             	3.08702999e+02
276             	3.08705501e+02
277             	3.08707595e+02
278             	3.08709169e+02
279             	3.08710385e+02
280             	3.08711074e+02
281             	3.08711417e+02
282             	3.08711537e+02
283             	3.08711494e+02
284             	3.08711322e+02
285             	3.08711057e+02
286             	3.08710700e+02
287             	3.08710206e+02
288             	3.08709501e+02
289             	3.08708622e+02
290             	3.08707567e+02
291             	3.08706352e+02
292             	3.08705223e+02
293             	3.08704269e+02
294             	3.08703702e+02
295             	3.08703602e+02
296             	3.08704031e+02
297             	3.08704988e+02
298             	3.08706486e+02
299             	3.08708505e+02
300             	3.08710736e+02
301             	3.08712831e+02
302             	3.08714450e+02
303             	3.08715476e+02
304             	3.08715932e+02
305             	3.08715832e+02
306             	3.08715234e+02
307             	3.08714036e+02
308             	3.08712482e+02
309             	3.08710997e+02
310             	3.08709892e+02
311             	3.08709440e+02
312             	3.08709835e+02
313             	3.08711085e+02
314             	3.08713116e+02
315             	3.08715709e+02
316             	3.08718540e+02
317             	3.08720833e+02
318             	3.08722391e+02
319             	3.08723033e+02
320             	3.08722789e+02
321             	3.08721897e+02
322             	3.08720563e+02
323             	3.08718849e+02
324             	3.08716929e+02
325             	3.08714934e+02
326             	3.08712991e+02
327             	3.08711298e+02
328             	3.08710146e+02
329             	3.08709909e+02
330             	3.08710665e+02
331             	3.08712383e+02
332             	3.08714907e+02
333             	3.08717777e+02
334             	3.08720785e+02
335             	3.08723572e+02
336             	3.08725953e+02
337             	3.08727855e+02
338             	3.08729030e+02
339             	3.08729554e+02
340             	3.08729497e+02
341             	3.08728941e+02
342             	3.08727971e+02
343             	3.08726572e+02
344             	3.08724737e+02
345             	3.08722572e+02
346             	3.08720511e+02
347             	3.08718894e+02
348             	3.08718047e+02
349             	3.08718176e+02
350             	3.08719422e+02
351             	3.08721808e+02
352             	3.08725088e+02
353             	3.08728686e+02
354             	3.08732043e+02
355             	3.08734576e+02
356             	3.08736060e+02
357             	3.08736410e+02
358             	3.08735557e+02
359             	3.08733600e+02
360             	3.08730675e+02
361             	3.08727211e+02
362             	3.08724229e+02
363             	3.08722321e+02
364             	3.08721786e+02
365             	3.08722701e+02
366             	3.08725019e+02
367             	3.08728476e+02
368             	3.08732783e+02
369             	3.08736976e+02
370             	3.08740638e+02
371             	3.08743264e+02
372             	3.08744542e+02
373             	3.08744626e+02
374             	3.08743492e+02
375             	3.08741222e+02
376             	3.08738001e+02
377             	3.08734387e+02
378             	3.08731000e+02
379             	3.08728660e+02
380             	3.08727811e+02
381             	3.08728644e+02
382             	3.08731256e+02
383             	3.08735166e+02
384             	3.08739322e+02
385             	3.08743204e+02
386             	3.08745905e+02
387             	3.08747294e+02
388             	3.08747291e+02
389             	3.08746137e+02
390             	3.08744141e+02
391             	3.08741586e+02
392             	3.08738572e+02
393             	3.08735260e+02
394             	3.08732239e+02
395             	3.08730394e+02
396             	3.08729965e+02
397             	3.08731068e+02
398             	3.08733709e+02
399             	3.08737686e+02
400             	3.08742271e+02
401             	3.08746735e+02
402             	3.08749932e+02
403             	3.08751621e+02
404             	3.08751762e+02
405             	3.08750543e+02
406             	3.08748183e+02
407             	3.08744753e+02
408             	3.08740604e+02
409             	3.08736358e+02
410             	3.08732488e+02
411             	3.08729540e+02
412             	3.08727745e+02
413             	3.08727295e+02
414             	3.08728231e+02
415             	3.08730492e+02
416             	3.08733886e+02
417             	3.08738181e+02
418             	3.08742657e+02
419             	3.08746847e+02
420             	3.08750023e+02
421             	3.08752072e+02
422             	3.08752865e+02
423             	3.08752675e+02
424             	3.08751651e+02
425             	3.08749993e+02
426             	3.08747835e+02
427             	3.08745368e+02
428             	3.08742610e+02
429             	3.08739784e+02
430             	3.08737368e+02
431             	3.08735505e+02
432             	3.08734356e+02
433             	3.08733908e+02
434             	3.08734026e+02
435             	3.08734687e+02
436             	3.08735873e+02
437             	3.08737555e+02
438             	3.08739634e+02
439             	3.08741954e+02
440             	3.08744360e+02
441             	3.08746785e+02
442             	3.08749129e+02
443             	3.08751049e+02
444             	3.08752470e+02
445             	3.08753233e+02
446             	3.08753315e+02
447             	3.08752758e+02
448             	3.08751667e+02
449             	3.08750166e+02
450             	3.08748483e+02
451             	3.08746812e+02
452             	3.08745162e+02
453             	3.08743787e+02
454             	3.08742815e+02
455             	3.08742213e+02
456             	3.08741908e+02
457             	3.08741801e+02
458             	3.08741914e+02
459             	3.08742223e+02
460             	3.08742759e+02
461             	3.08743522e+02
462             	3.08744475e+02
463             	3.08745582e+02
464             	3.08746900e+02
465             	3.08748469e+02
466             	3.08750255e+02
467             	3.08752056e+02
468             	3.08753517e+02
469             	3.08754421e+02
470             	3.08754715e+02
471             	3.08754377e+02
472             	3.08753437e+02
473             	3.08751965e+02
474             	3.08750191e+02
475             	3.08748277e+02
476             	3.08746326e+02
477             	3.08744461e+02
478             	3.08742764e+02
479             	3.08741376e+02
480             	3.08740451e+02
481             	3.08740028e+02
482             	3.08740079e+02
483             	3.08740527e+02
484             	3.08741284e+02
485             	3.08742190e+02
486             	3.08743136e+02
487             	3.08744142e+02
488             	3.08745252e+02
489             	3.08746520e+02
490             	3.08747947e+02
491             	3.08749417e+02
492             	3.08750844e+02
493             	3.08752200e+02
494             	3.08753254e+02
495             	3.08753866e+02
496             	3.08754037e+02
497             	3.08753773e+02
498             	3.08753150e+02
499             	3.08752219e+02
500             	3.08751092e+02
501             	3.08749859e+02
502             	3.08748729e+02
503             	3.08747676e+02
504             	3.08746770e+02
505             	3.08745972e+02
506             	3.08745196e+02
507             	3.08744464e+02
508             	3.08743738e+02
509             	3.08742965e+02
510             	3.08742242e+02
511             	3.08741666e+02
512             	3.08741321e+02
513             	3.08741278e+02
514             	3.08741573e+02
515             	3.08742196e+02
516             	3.08743063e+02
517             	3.08744094e+02
518             	3.08745103e+02
519             	3.08746089e+02
520             	3.08746910e+02
521             	3.08747518e+02
522             	3.08747937e+02
523             	3.08748253e+02
524             	3.08748598e+02
525             	3.08749056e+02
526             	3.08749763e+02
527             	3.08750727e+02
528             	3.08751838e+02
529             	3.08752954e+02
530             	3.08753979e+02
531             	3.08754768e+02
532             	3.08755227e+02
533             	3.08755363e+02
534             	3.08755183e+02
535             	3.08754773e+02
536             	3.08754214e+02
537             	3.08753597e+02
538             	3.08752957e+02
539             	3.08752333e+02
540             	3.08751752e+02
541             	3.08751226e+02
542             	3.08750737e+02
543             	3.08750211e+02
544             	3.08749661e+02
545             	3.08749048e+02
546             	3.08748406e+02
547             	3.08747733e+02
548             	3.08747061e+02
549             	3.08746464e+02
550             	3.08745984e+02
551             	3.08745639e+02
552             	3.08745446e+02
553             	3.08745410e+02
554             	3.08745550e+02
555             	3.08745861e+02
556             	3.08746317e+02
557             	3.08746874e+02
558             	3.08747535e+02
559             	3.08748256e+02
560             	3.08749002e+02
561             	3.08749647e+02
562             	3.08750143e+02
563             	3.08750462e+02
564             	3.08750607e+02
565             	3.08750618e+02
566             	3.08750544e+02
567             	3.08750439e+02
568             	3.08750345e+02
569             	3.08750275e+02
570             	3.08750228e+02
571             	3.08750192e+02
572             	3.08750154e+02
573             	3.08750110e+02
574             	3.08750053e+02
575             	3.08749975e+02
576             	3.08749873e+02
577             	3.08749732e+02
578             	3.08749543e+02
579             	3.08749313e+02
580             	3.08749023e+02
581             	3.08748675e+02
582             	3.08748292e+02
583             	3.08747886e+02
584             	3.08747473e+02
585             	3.08747074e+02
586             	3.08746696e+02
587             	3.08746343e+02
588             	3.08746014e+02
589             	3.08745709e+02
590             	3.08745450e+02
591             	3.08745209e+02
592             	3.08745014e+02
593             	3.08744974e+02
594             	3.08745074e+02
595             	3.08745316e+02
596             	3.08745694e+02
597             	3.08746192e+02
598             	3.08746816e+02
599             	3.08747555e+02
600             	3.08748357e+02
601             	3.08749187e+02
602             	3.08749905e+02
603             	3.08750419e+02
604             	3.08750715e+02
605             	3.08750781e+02
606             	3.08750613e+02
607             	3.08750235e+02
608             	3.08749683e+02
609             	3.08749016e+02
610             	3.08748262e+02
611             	3.08747466e+02
612             	3.08746697e+02
613             	3.08746043e+02
614             	3.08745554e+02
615             	3.08745297e+02
616             	3.08745270e+02
617             	3.08745469e+02
618             	3.08745862e+02
619             	3.08746409e+02
620             	3.08747087e+02
621             	3.08747869e+02
