# Region        : cellZone component_2
# Cells         : 185
# Volume        : 3.41960774e-01
# Time          	volAverage(T)
1               	3.00813831e+02
2               	3.01617601e+02
3               	3.02370595e+02
4               	3.03086892e+02
5               	3.03779825e+02
6               	3.04455201e+02
7               	3.05117694e+02
8               	3.05771808e+02
9               	3.06421501e+02
10              	3.07065485e+02
11              	3.07705310e+02
12              	3.08336186e+02
13              	3.08940278e+02
14              	3.09538075e+02
15              	3.10125852e+02
16              	3.10699287e+02
17              	3.11256257e+02
18              	3.11798968e+02
19              	3.12329791e+02
20              	3.12848056e+02
21              	3.13353785e+02
22              	3.13849952e+02
23              	3.14342008e+02
24              	3.14834183e+02
25              	3.15324893e+02
26              	3.15826252e+02
27              	3.16326641e+02
28              	3.16812577e+02
29              	3.17290768e+02
30              	3.17752461e+02
31              	3.18188093e+02
32              	3.18611268e+02
33              	3.19016530e+02
34              	3.19410671e+02
35              	3.19794842e+02
36              	3.20169690e+02
37              	3.20529471e+02
38              	3.20881027e+02
39              	3.21227914e+02
40              	3.21569155e+02
41              	3.21903964e+02
42              	3.22240282e+02
43              	3.22574014e+02
44              	3.22902425e+02
45              	3.23218379e+02
46              	3.23520223e+02
47              	3.23813519e+02
48              	3.24088943e+02
49              	3.24357091e+02
50              	3.24617579e+02
51              	3.24870858e+02
52              	3.25116888e+02
53              	3.25358586e+02
54              	3.25598016e+02
55              	3.25841889e+02
56              	3.26091045e+02
57              	3.26348854e+02
58              	3.26612359e+02
59              	3.26873536e+02
60              	3.27131213e+02
61              	3.27336743e+02
62              	3.27503620e+02
63              	3.27684955e+02
64              	3.27864026e+02
65              	3.28034970e+02
66              	3.28206363e+02
67              	3.28375313e+02
68              	3.28543029e+02
69              	3.28705032e+02
70              	3.28869685e+02
71              	3.29042104e+02
72              	3.29218229e+02
73              	3.29405245e+02
74              	3.29597188e+02
75              	3.29781134e+02
76              	3.29936104e+02
77              	3.30081301e+02
78              	3.30212939e+02
79              	3.30341853e+02
80              	3.30474892e+02
81              	3.30613161e+02
82              	3.30753423e+02
83              	3.30888862e+02
84              	3.31019867e+02
85              	3.31144101e+02
86              	3.31272874e+02
87              	3.31410473e+02
88              	3.31555024e+02
89              	3.31713635e+02
90              	3.31882364e+02
91              	3.32063567e+02
92              	3.32244630e+02
93              	3.32420986e+02
94              	3.32584977e+02
95              	3.32735307e+02
96              	3.32869958e+02
97              	3.32993626e+02
98              	3.33123442e+02
99              	3.33257136e+02
100             	3.33385754e+02
101             	3.33516785e+02
102             	3.33655567e+02
103             	3.33791776e+02
104             	3.33935163e+02
105             	3.34069627e+02
106             	3.34200343e+02
107             	3.34328014e+02
108             	3.34445786e+02
109             	3.34570566e+02
110             	3.34701564e+02
111             	3.34826945e+02
112             	3.34958715e+02
113             	3.35103329e+02
114             	3.35230883e+02
115             	3.35335986e+02
116             	3.35408736e+02
117             	3.35470263e+02
118             	3.35522185e+02
119             	3.35571167e+02
120             	3.35620886e+02
121             	3.35683394e+02
122             	3.35761647e+02
123             	3.35837045e+02
124             	3.35920528e+02
125             	3.36016225e+02
126             	3.36096600e+02
127             	3.36186403e+02
128             	3.36277828e+02
129             	3.36355859e+02
130             	3.36427457e+02
131             	3.36491450e+02
132             	3.36550216e+02
133             	3.36622187e+02
134             	3.36703118e+02
135             	3.36788002e+02
136             	3.36877862e+02
137             	3.36973683e+02
138             	3.37048005e+02
139             	3.37110492e+02
140             	3.37139955e+02
141             	3.37158792e+02
142             	3.37164651e+02
143             	3.37173157e+02
144             	3.37177672e+02
145             	3.37179204e+02
146             	3.37179288e+02
147             	3.37186051e+02
148             	3.37198159e+02
149             	3.37220557e+02
150             	3.37265651e+02
151             	3.37328454e+02
152             	3.37404338e+02
153             	3.37495098e+02
154             	3.37589623e+02
155             	3.37688177e+02
156             	3.37777074e+02
157             	3.37864272e+02
158             	3.37944412e+02
159             	3.38019201e+02
160             	3.38092083e+02
161             	3.38161876e+02
162             	3.38232573e+02
163             	3.38290863e+02
164             	3.38326724e+02
165             	3.38345946e+02
166             	3.38355392e+02
167             	3.38356878e+02
168             	3.38349990e+02
169             	3.38338268e+02
170             	3.38329358e+02
171             	3.38328774e+02
172             	3.38342158e+02
173             	3.38374490e+02
174             	3.38420910e+02
175             	3.38480549e+02
176             	3.38554979e+02
177             	3.38634796e+02
178             	3.38714598e+02
179             	3.38795660e+02
180             	3.38878450e+02
181             	3.38963494e+02
182             	3.39046483e+02
183             	3.39131951e+02
184             	3.39217244e+02
185             	3.39295680e+02
186             	3.39358955e+02
187             	3.39400093e+02
188             	3.39431413e+02
189             	3.39441628e+02
190             	3.39450794e+02
191             	3.39456537e+02
192             	3.39454573e+02
193             	3.39446638e+02
194             	3.39434570e+02
195             	3.39429252e+02
196             	3.39433783e+02
197             	3.39445487e+02
198             	3.39462359e+02
199             	3.39491854e+02
200             	3.39533373e+02
201             	3.39584224e+02
202             	3.39640915e+02
203             	3.39703270e+02
204             	3.39767328e+02
205             	3.39828299e+02
206             	3.39887704e+02
207             	3.39934646e+02
208             	3.39979364e+02
209             	3.40025184e+02
210             	3.40071279e+02
211             	3.40113964e+02
212             	3.40158996e+02
213             	3.40207213e+02
214             	3.40257530e+02
215             	3.40310461e+02
216             	3.40361469e+02
217             	3.40415822e+02
218             	3.40471803e+02
219             	3.40530318e+02
220             	3.40589198e+02
221             	3.40645727e+02
222             	3.40697928e+02
223             	3.40743863e+02
224             	3.40784861e+02
225             	3.40819171e+02
226             	3.40848687e+02
227             	3.40873608e+02
228             	3.40899120e+02
229             	3.40924297e+02
230             	3.40950441e+02
231             	3.40973036e+02
232             	3.40998492e+02
233             	3.41031223e+02
234             	3.41070537e+02
235             	3.41116248e+02
236             	3.41166704e+02
237             	3.41216331e+02
238             	3.41267682e+02
239             	3.41318534e+02
240             	3.41366856e+02
241             	3.41413875e+02
242             	3.41456619e+02
243             	3.41497218e+02
244             	3.41536629e+02
245             	3.41574213e+02
246             	3.41608147e+02
247             	3.41632097e+02
248             	3.41656406e+02
249             	3.41681934e+02
250             	3.41701540e+02
251             	3.41717831e+02
252             	3.41731396e+02
253             	3.41743337e+02
254             	3.41755416e+02
255             	3.41770178e+02
256             	3.41783546e+02
257             	3.41799832e+02
258             	3.41819817e+02
259             	3.41841511e+02
260             	3.41867340e+02
261             	3.41896562e+02
262             	3.41927196e+02
263             	3.41958167e+02
264             	3.41988487e+02
265             	3.42017540e+02
266             	3.42043578e+02
267             	3.42068297e+02
268             	3.42089137e+02
269             	3.42108186e+02
270             	3.42125322e+02
271             	3.42140512e+02
272             	3.42153019e+02
273             	3.42166440e+02
274             	3.42180648e+02
275             	3.42193625e+02
276             	3.42207154e+02
277             	3.42223742e+02
278             	3.42241896e+02
279             	3.42263073e+02
280             	3.42287708e+02
281             	3.42316810e+02
282             	3.42342841e+02
283             	3.42373264e+02
284             	3.42405181e+02
285             	3.42433108e+02
286             	3.42462359e+02
287             	3.42488843e+02
288             	3.42513534e+02
289             	3.42534889e+02
290             	3.42550679e+02
291             	3.42562314e+02
292             	3.42570853e+02
293             	3.42577422e+02
294             	3.42582066e+02
295             	3.42588110e+02
296             	3.42592974e+02
297             	3.42598034e+02
298             	3.42608660e+02
299             	3.42620922e+02
300             	3.42635929e+02
301             	3.42652347e+02
302             	3.42669585e+02
303             	3.42686506e+02
304             	3.42704314e+02
305             	3.42723286e+02
306             	3.42740757e+02
307             	3.42757989e+02
308             	3.42776649e+02
309             	3.42797949e+02
310             	3.42823892e+02
311             	3.42847750e+02
312             	3.42873264e+02
313             	3.42899730e+02
314             	3.42924960e+02
315             	3.42945458e+02
316             	3.42959985e+02
317             	3.42974095e+02
318             	3.42984613e+02
319             	3.42991048e+02
320             	3.42994954e+02
321             	3.42998550e+02
322             	3.43000022e+02
323             	3.43003559e+02
324             	3.43010196e+02
325             	3.43022705e+02
326             	3.43038892e+02
327             	3.43057631e+02
328             	3.43078793e+02
329             	3.43101093e+02
330             	3.43123149e+02
331             	3.43144550e+02
332             	3.43165257e+02
333             	3.43183741e+02
334             	3.43198281e+02
335             	3.43210061e+02
336             	3.43219909e+02
337             	3.43227955e+02
338             	3.43234974e+02
339             	3.43238276e+02
340             	3.43241426e+02
341             	3.43243834e+02
342             	3.43246580e+02
343             	3.43248675e+02
344             	3.43250383e+02
345             	3.43252301e+02
346             	3.43254976e+02
347             	3.43257814e+02
348             	3.43261754e+02
349             	3.43268022e+02
350             	3.43276623e+02
351             	3.43287066e+02
352             	3.43296644e+02
353             	3.43307841e+02
354             	3.43321395e+02
355             	3.43336478e+02
356             	3.43352078e+02
357             	3.43366809e+02
358             	3.43380811e+02
359             	3.43393819e+02
360             	3.43405548e+02
361             	3.43416187e+02
362             	3.43425062e+02
363             	3.43431408e+02
364             	3.43435088e+02
365             	3.43436645e+02
366             	3.43436603e+02
367             	3.43436083e+02
368             	3.43436303e+02
369             	3.43438704e+02
370             	3.43442665e+02
371             	3.43448008e+02
372             	3.43456625e+02
373             	3.43465319e+02
374             	3.43475209e+02
375             	3.43486431e+02
376             	3.43498884e+02
377             	3.43512248e+02
378             	3.43525495e+02
379             	3.43538753e+02
380             	3.43552296e+02
381             	3.43565879e+02
382             	3.43578965e+02
383             	3.43591201e+02
384             	3.43602110e+02
385             	3.43610613e+02
386             	3.43616989e+02
387             	3.43619686e+02
388             	3.43620629e+02
389             	3.43620084e+02
390             	3.43618541e+02
391             	3.43615776e+02
392             	3.43612245e+02
393             	3.43608932e+02
394             	3.43607187e+02
395             	3.43606519e+02
396             	3.43606808e+02
397             	3.43608220e+02
398             	3.43611237e+02
399             	3.43616090e+02
400             	3.43623067e+02
401             	3.43631829e+02
402             	3.43641674e+02
403             	3.43652277e+02
404             	3.43663005e+02
405             	3.43673620e+02
406             	3.43684368e+02
407             	3.43694986e+02
408             	3.43704960e+02
409             	3.43713990e+02
410             	3.43722356e+02
411             	3.43729695e+02
412             	3.43736397e+02
413             	3.43742370e+02
414             	3.43747822e+02
415             	3.43752629e+02
416             	3.43756746e+02
417             	3.43759338e+02
418             	3.43760721e+02
419             	3.43760862e+02
420             	3.43758752e+02
421             	3.43756411e+02
422             	3.43753956e+02
423             	3.43751016e+02
424             	3.43748504e+02
425             	3.43746563e+02
426             	3.43745498e+02
427             	3.43745998e+02
428             	3.43748518e+02
429             	3.43752583e+02
430             	3.43756941e+02
431             	3.43761756e+02
432             	3.43767385e+02
433             	3.43773999e+02
434             	3.43781438e+02
435             	3.43789306e+02
436             	3.43797180e+02
437             	3.43804804e+02
438             	3.43812349e+02
439             	3.43819184e+02
440             	3.43825535e+02
441             	3.43831442e+02
442             	3.43836851e+02
443             	3.43841688e+02
444             	3.43845290e+02
445             	3.43848616e+02
446             	3.43851345e+02
447             	3.43853562e+02
448             	3.43855105e+02
449             	3.43855976e+02
450             	3.43856442e+02
451             	3.43856782e+02
452             	3.43856823e+02
453             	3.43857158e+02
454             	3.43857603e+02
455             	3.43858040e+02
456             	3.43858438e+02
457             	3.43858982e+02
458             	3.43860118e+02
459             	3.43861638e+02
460             	3.43863402e+02
461             	3.43865377e+02
462             	3.43867608e+02
463             	3.43870050e+02
464             	3.43872815e+02
465             	3.43876003e+02
466             	3.43879609e+02
467             	3.43883844e+02
468             	3.43888731e+02
469             	3.43893558e+02
470             	3.43898595e+02
471             	3.43903691e+02
472             	3.43908948e+02
473             	3.43914203e+02
474             	3.43919266e+02
475             	3.43923950e+02
476             	3.43928114e+02
477             	3.43931890e+02
478             	3.43935212e+02
479             	3.43938052e+02
480             	3.43940363e+02
481             	3.43942209e+02
482             	3.43943562e+02
483             	3.43944562e+02
484             	3.43945333e+02
485             	3.43945961e+02
486             	3.43946495e+02
487             	3.43946994e+02
488             	3.43947594e+02
489             	3.43948157e+02
490             	3.43948653e+02
491             	3.43948919e+02
492             	3.43949128e+02
493             	3.43949418e+02
494             	3.43949829e+02
495             	3.43950415e+02
496             	3.43951146e+02
497             	3.43952001e+02
498             	3.43952976e+02
499             	3.43954090e+02
500             	3.43955373e+02
501             	3.43956569e+02
502             	3.43958149e+02
503             	3.43960007e+02
504             	3.43962028e+02
505             	3.43964241e+02
506             	3.43966736e+02
507             	3.43969495e+02
508             	3.43972471e+02
509             	3.43975704e+02
510             	3.43979213e+02
511             	3.43982893e+02
512             	3.43986592e+02
513             	3.43990277e+02
514             	3.43993758e+02
515             	3.43997063e+02
516             	3.44000186e+02
517             	3.44003052e+02
518             	3.44005706e+02
519             	3.44008094e+02
520             	3.44010298e+02
521             	3.44012344e+02
522             	3.44014250e+02
523             	3.44015937e+02
524             	3.44017425e+02
525             	3.44018940e+02
526             	3.44020408e+02
527             	3.44021908e+02
528             	3.44023444e+02
529             	3.44024957e+02
530             	3.44026462e+02
531             	3.44027913e+02
532             	3.44029222e+02
533             	3.44030338e+02
534             	3.44031350e+02
535             	3.44032391e+02
536             	3.44033555e+02
537             	3.44034913e+02
538             	3.44036559e+02
539             	3.44038149e+02
540             	3.44039761e+02
541             	3.44041423e+02
542             	3.44043086e+02
543             	3.44044619e+02
544             	3.44045987e+02
545             	3.44047133e+02
546             	3.44047813e+02
547             	3.44048445e+02
548             	3.44049095e+02
549             	3.44049690e+02
550             	3.44050038e+02
551             	3.44050272e+02
552             	3.44050454e+02
553             	3.44050756e+02
554             	3.44051262e+02
555             	3.44051928e+02
556             	3.44052816e+02
557             	3.44053879e+02
558             	3.44055023e+02
559             	3.44056240e+02
560             	3.44057505e+02
561             	3.44058816e+02
562             	3.44060174e+02
563             	3.44061597e+02
564             	3.44063056e+02
565             	3.44064697e+02
566             	3.44066232e+02
567             	3.44067843e+02
568             	3.44069482e+02
569             	3.44071201e+02
570             	3.44072976e+02
571             	3.44074751e+02
572             	3.44076466e+02
573             	3.44077993e+02
574             	3.44079257e+02
575             	3.44080245e+02
576             	3.44081121e+02
577             	3.44081943e+02
578             	3.44082727e+02
579             	3.44083447e+02
580             	3.44084082e+02
581             	3.44084710e+02
582             	3.44085258e+02
583             	3.44085935e+02
584             	3.44086667e+02
585             	3.44087376e+02
586             	3.44088136e+02
587             	3.44088980e+02
588             	3.44089934e+02
589             	3.44091006e+02
590             	3.44092203e+02
591             	3.44093527e+02
592             	3.44094719e+02
593             	3.44096148e+02
594             	3.44097686e+02
595             	3.44099242e+02
596             	3.44100855e+02
597             	3.44102618e+02
598             	3.44104673e+02
599             	3.44106599e+02
600             	3.44108467e+02
601             	3.44110266e+02
602             	3.44111924e+02
603             	3.44113683e+02
604             	3.44115317e+02
605             	3.44116747e+02
606             	3.44117986e+02
607             	3.44119025e+02
608             	3.44120067e+02
609             	3.44120956e+02
610             	3.44121762e+02
611             	3.44122534e+02
612             	3.44123297e+02
613             	3.44124003e+02
614             	3.44124637e+02
615             	3.44125210e+02
616             	3.44125725e+02
617             	3.44126264e+02
618             	3.44126671e+02
619             	3.44127090e+02
620             	3.44127478e+02
621             	3.44127823e+02
