# Region        : cellZone pcb
# Cells         : 391
# Volume        : 7.85824363e-01
# Time          	volAverage(T)
1               	3.00009571e+02
2               	3.00027800e+02
3               	3.00053693e+02
4               	3.00086619e+02
5               	3.00123008e+02
6               	3.00164814e+02
7               	3.00212936e+02
8               	3.00266138e+02
9               	3.00324329e+02
10              	3.00388402e+02
11              	3.00456971e+02
12              	3.00528556e+02
13              	3.00604752e+02
14              	3.00682726e+02
15              	3.00764814e+02
16              	3.00852296e+02
17              	3.00942511e+02
18              	3.01035164e+02
19              	3.01130066e+02
20              	3.01227221e+02
21              	3.01326528e+02
22              	3.01428038e+02
23              	3.01531521e+02
24              	3.01638210e+02
25              	3.01749013e+02
26              	3.01858260e+02
27              	3.01973659e+02
28              	3.02094859e+02
29              	3.02218890e+02
30              	3.02339217e+02
31              	3.02461671e+02
32              	3.02584544e+02
33              	3.02709603e+02
34              	3.02831526e+02
35              	3.02953756e+02
36              	3.03075113e+02
37              	3.03195364e+02
38              	3.03317072e+02
39              	3.03440393e+02
40              	3.03566292e+02
41              	3.03691386e+02
42              	3.03816778e+02
43              	3.03947848e+02
44              	3.04081736e+02
45              	3.04214086e+02
46              	3.04350573e+02
47              	3.04485655e+02
48              	3.04617104e+02
49              	3.04742130e+02
50              	3.04871816e+02
51              	3.05000905e+02
52              	3.05125947e+02
53              	3.05248882e+02
54              	3.05373677e+02
55              	3.05498770e+02
56              	3.05625159e+02
57              	3.05750340e+02
58              	3.05876562e+02
59              	3.06004705e+02
60              	3.06130240e+02
61              	3.06254840e+02
62              	3.06376780e+02
63              	3.06501340e+02
64              	3.06622249e+02
65              	3.06737345e+02
66              	3.06851924e+02
67              	3.06965896e+02
68              	3.07082499e+02
69              	3.07198990e+02
70              	3.07314502e+02
71              	3.07429359e+02
72              	3.07547173e+02
73              	3.07664607e+02
74              	3.07778233e+02
75              	3.07890648e+02
76              	3.07999921e+02
77              	3.08109183e+02
78              	3.08215368e+02
79              	3.08319260e+02
80              	3.08420792e+02
81              	3.08520668e+02
82              	3.08619778e+02
83              	3.08719699e+02
84              	3.08818314e+02
85              	3.08916118e+02
86              	3.09012493e+02
87              	3.09107482e+02
88              	3.09200190e+02
89              	3.09291648e+02
90              	3.09382433e+02
91              	3.09472861e+02
92              	3.09563162e+02
93              	3.09653516e+02
94              	3.09743886e+02
95              	3.09833453e+02
96              	3.09922140e+02
97              	3.10008830e+02
98              	3.10094231e+02
99              	3.10178526e+02
100             	3.10261192e+02
101             	3.10341936e+02
102             	3.10420751e+02
103             	3.10497692e+02
104             	3.10572790e+02
105             	3.10646115e+02
106             	3.10718041e+02
107             	3.10788549e+02
108             	3.10857828e+02
109             	3.10925961e+02
110             	3.10993267e+02
111             	3.11059766e+02
112             	3.11125801e+02
113             	3.11191096e+02
114             	3.11255764e+02
115             	3.11319952e+02
116             	3.11383702e+02
117             	3.11446989e+02
118             	3.11509945e+02
119             	3.11572418e+02
120             	3.11633620e+02
121             	3.11693402e+02
122             	3.11752693e+02
123             	3.11810873e+02
124             	3.11867841e+02
125             	3.11923247e+02
126             	3.11978133e+02
127             	3.12031191e+02
128             	3.12082939e+02
129             	3.12133409e+02
130             	3.12182721e+02
131             	3.12231191e+02
132             	3.12278896e+02
133             	3.12325969e+02
134             	3.12372354e+02
135             	3.12418390e+02
136             	3.12464060e+02
137             	3.12509307e+02
138             	3.12553428e+02
139             	3.12596664e+02
140             	3.12639388e+02
141             	3.12681498e+02
142             	3.12722762e+02
143             	3.12763009e+02
144             	3.12802548e+02
145             	3.12841392e+02
146             	3.12878847e+02
147             	3.12915129e+02
148             	3.12950525e+02
149             	3.12985085e+02
150             	3.13018953e+02
151             	3.13052253e+02
152             	3.13085400e+02
153             	3.13117965e+02
154             	3.13150095e+02
155             	3.13182011e+02
156             	3.13213674e+02
157             	3.13245082e+02
158             	3.13276168e+02
159             	3.13306416e+02
160             	3.13335899e+02
161             	3.13365205e+02
162             	3.13394108e+02
163             	3.13422185e+02
164             	3.13449284e+02
165             	3.13475833e+02
166             	3.13501402e+02
167             	3.13526258e+02
168             	3.13550534e+02
169             	3.13573905e+02
170             	3.13596416e+02
171             	3.13618267e+02
172             	3.13639593e+02
173             	3.13660649e+02
174             	3.13681447e+02
175             	3.13702104e+02
176             	3.13722722e+02
177             	3.13743092e+02
178             	3.13762844e+02
179             	3.13782846e+02
180             	3.13802871e+02
181             	3.13822623e+02
182             	3.13841883e+02
183             	3.13860586e+02
184             	3.13878760e+02
185             	3.13895864e+02
186             	3.13912095e+02
187             	3.13927637e+02
188             	3.13942652e+02
189             	3.13957128e+02
190             	3.13971348e+02
191             	3.13985688e+02
192             	3.13999998e+02
193             	3.14014058e+02
194             	3.14027895e+02
195             	3.14041526e+02
196             	3.14054659e+02
197             	3.14067264e+02
198             	3.14079418e+02
199             	3.14091309e+02
200             	3.14102998e+02
201             	3.14114479e+02
202             	3.14125806e+02
203             	3.14137021e+02
204             	3.14148110e+02
205             	3.14158945e+02
206             	3.14169439e+02
207             	3.14179419e+02
208             	3.14189020e+02
209             	3.14198256e+02
210             	3.14207163e+02
211             	3.14215651e+02
212             	3.14223771e+02
213             	3.14231680e+02
214             	3.14239384e+02
215             	3.14246974e+02
216             	3.14254459e+02
217             	3.14261767e+02
218             	3.14268942e+02
219             	3.14275887e+02
220             	3.14282567e+02
221             	3.14288968e+02
222             	3.14295129e+02
223             	3.14301073e+02
224             	3.14306719e+02
225             	3.14312049e+02
226             	3.14317137e+02
227             	3.14322033e+02
228             	3.14326748e+02
229             	3.14331341e+02
230             	3.14335926e+02
231             	3.14340548e+02
232             	3.14345042e+02
233             	3.14349413e+02
234             	3.14353646e+02
235             	3.14357743e+02
236             	3.14361680e+02
237             	3.14365454e+02
238             	3.14369086e+02
239             	3.14372628e+02
240             	3.14376100e+02
241             	3.14379381e+02
242             	3.14382521e+02
243             	3.14385628e+02
244             	3.14388629e+02
245             	3.14391488e+02
246             	3.14394188e+02
247             	3.14396713e+02
248             	3.14399024e+02
249             	3.14401065e+02
250             	3.14402884e+02
251             	3.14404506e+02
252             	3.14405957e+02
253             	3.14407256e+02
254             	3.14408464e+02
255             	3.14409631e+02
256             	3.14410766e+02
257             	3.14411842e+02
258             	3.14412839e+02
259             	3.14413744e+02
260             	3.14414477e+02
261             	3.14415055e+02
262             	3.14415501e+02
263             	3.14415863e+02
264             	3.14416168e+02
265             	3.14416429e+02
266             	3.14416663e+02
267             	3.14416900e+02
268             	3.14417133e+02
269             	3.14417343e+02
270             	3.14417491e+02
271             	3.14417542e+02
272             	3.14417494e+02
273             	3.14417354e+02
274             	3.14417128e+02
275             	3.14416813e+02
276             	3.14416389e+02
277             	3.14415862e+02
278             	3.14415270e+02
279             	3.14414624e+02
280             	3.14413911e+02
281             	3.14413125e+02
282             	3.14412284e+02
283             	3.14411397e+02
284             	3.14410462e+02
285             	3.14409485e+02
286             	3.14408465e+02
287             	3.14407409e+02
288             	3.14406311e+02
289             	3.14405163e+02
290             	3.14403948e+02
291             	3.14402662e+02
292             	3.14401296e+02
293             	3.14399861e+02
294             	3.14398353e+02
295             	3.14396780e+02
296             	3.14395147e+02
297             	3.14393473e+02
298             	3.14391762e+02
299             	3.14390036e+02
300             	3.14388298e+02
301             	3.14386551e+02
302             	3.14384788e+02
303             	3.14383027e+02
304             	3.14381271e+02
305             	3.14379522e+02
306             	3.14377770e+02
307             	3.14376018e+02
308             	3.14374255e+02
309             	3.14372484e+02
310             	3.14370689e+02
311             	3.14368876e+02
312             	3.14367038e+02
313             	3.14365173e+02
314             	3.14363276e+02
315             	3.14361342e+02
316             	3.14359358e+02
317             	3.14357331e+02
318             	3.14355254e+02
319             	3.14353140e+02
320             	3.14350987e+02
321             	3.14348811e+02
322             	3.14346616e+02
323             	3.14344416e+02
324             	3.14342212e+02
325             	3.14340022e+02
326             	3.14337830e+02
327             	3.14335655e+02
328             	3.14333490e+02
329             	3.14331339e+02
330             	3.14329190e+02
331             	3.14327051e+02
332             	3.14324910e+02
333             	3.14322776e+02
334             	3.14320631e+02
335             	3.14318486e+02
336             	3.14316329e+02
337             	3.14314165e+02
338             	3.14311983e+02
339             	3.14309759e+02
340             	3.14307511e+02
341             	3.14305252e+02
342             	3.14302969e+02
343             	3.14300675e+02
344             	3.14298358e+02
345             	3.14296032e+02
346             	3.14293692e+02
347             	3.14291350e+02
348             	3.14289007e+02
349             	3.14286698e+02
350             	3.14284382e+02
351             	3.14282072e+02
352             	3.14279770e+02
353             	3.14277486e+02
354             	3.14275212e+02
355             	3.14272953e+02
356             	3.14270699e+02
357             	3.14268438e+02
358             	3.14266181e+02
359             	3.14263927e+02
360             	3.14261630e+02
361             	3.14259347e+02
362             	3.14257070e+02
363             	3.14254792e+02
364             	3.14252504e+02
365             	3.14250215e+02
366             	3.14247920e+02
367             	3.14245633e+02
368             	3.14243349e+02
369             	3.14241086e+02
370             	3.14238841e+02
371             	3.14236600e+02
372             	3.14234359e+02
373             	3.14232129e+02
374             	3.14229907e+02
375             	3.14227698e+02
376             	3.14225505e+02
377             	3.14223328e+02
378             	3.14221161e+02
379             	3.14219008e+02
380             	3.14216861e+02
381             	3.14214723e+02
382             	3.14212590e+02
383             	3.14210467e+02
384             	3.14208338e+02
385             	3.14206220e+02
386             	3.14204107e+02
387             	3.14202004e+02
388             	3.14199906e+02
389             	3.14197819e+02
390             	3.14195732e+02
391             	3.14193655e+02
392             	3.14191584e+02
393             	3.14189523e+02
394             	3.14187469e+02
395             	3.14185423e+02
396             	3.14183386e+02
397             	3.14181364e+02
398             	3.14179349e+02
399             	3.14177345e+02
400             	3.14175352e+02
401             	3.14173371e+02
402             	3.14171400e+02
403             	3.14169441e+02
404             	3.14167490e+02
405             	3.14165548e+02
406             	3.14163612e+02
407             	3.14161685e+02
408             	3.14159764e+02
409             	3.14157850e+02
410             	3.14155942e+02
411             	3.14154042e+02
412             	3.14152153e+02
413             	3.14150270e+02
414             	3.14148392e+02
415             	3.14146522e+02
416             	3.14144657e+02
417             	3.14142802e+02
418             	3.14140955e+02
419             	3.14139120e+02
420             	3.14137293e+02
421             	3.14135479e+02
422             	3.14133676e+02
423             	3.14131885e+02
424             	3.14130109e+02
425             	3.14128349e+02
426             	3.14126604e+02
427             	3.14124875e+02
428             	3.14123161e+02
429             	3.14121462e+02
430             	3.14119776e+02
431             	3.14118102e+02
432             	3.14116441e+02
433             	3.14114788e+02
434             	3.14113141e+02
435             	3.14111501e+02
436             	3.14109868e+02
437             	3.14108240e+02
438             	3.14106618e+02
439             	3.14105000e+02
440             	3.14103388e+02
441             	3.14101783e+02
442             	3.14100186e+02
443             	3.14098600e+02
444             	3.14097025e+02
445             	3.14095462e+02
446             	3.14093913e+02
447             	3.14092378e+02
448             	3.14090854e+02
449             	3.14089343e+02
450             	3.14087844e+02
451             	3.14086356e+02
452             	3.14084880e+02
453             	3.14083414e+02
454             	3.14081958e+02
455             	3.14080511e+02
456             	3.14079072e+02
457             	3.14077641e+02
458             	3.14076218e+02
459             	3.14074802e+02
460             	3.14073395e+02
461             	3.14071996e+02
462             	3.14070602e+02
463             	3.14069219e+02
464             	3.14067849e+02
465             	3.14066491e+02
466             	3.14065142e+02
467             	3.14063805e+02
468             	3.14062479e+02
469             	3.14061164e+02
470             	3.14059860e+02
471             	3.14058566e+02
472             	3.14057282e+02
473             	3.14056006e+02
474             	3.14054737e+02
475             	3.14053475e+02
476             	3.14052220e+02
477             	3.14050971e+02
478             	3.14049729e+02
479             	3.14048492e+02
480             	3.14047263e+02
481             	3.14046041e+02
482             	3.14044826e+02
483             	3.14043616e+02
484             	3.14042412e+02
485             	3.14041213e+02
486             	3.14040020e+02
487             	3.14038835e+02
488             	3.14037656e+02
489             	3.14036487e+02
490             	3.14035327e+02
491             	3.14034178e+02
492             	3.14033039e+02
493             	3.14031911e+02
494             	3.14030795e+02
495             	3.14029691e+02
496             	3.14028598e+02
497             	3.14027517e+02
498             	3.14026448e+02
499             	3.14025388e+02
500             	3.14024339e+02
501             	3.14023300e+02
502             	3.14022270e+02
503             	3.14021248e+02
504             	3.14020234e+02
505             	3.14019228e+02
506             	3.14018228e+02
507             	3.14017232e+02
508             	3.14016240e+02
509             	3.14015253e+02
510             	3.14014271e+02
511             	3.14013292e+02
512             	3.14012318e+02
513             	3.14011348e+02
514             	3.14010383e+02
515             	3.14009426e+02
516             	3.14008476e+02
517             	3.14007533e+02
518             	3.14006599e+02
519             	3.14005674e+02
520             	3.14004757e+02
521             	3.14003847e+02
522             	3.14002946e+02
523             	3.14002054e+02
524             	3.14001169e+02
525             	3.14000293e+02
526             	3.13999424e+02
527             	3.13998562e+02
528             	3.13997707e+02
529             	3.13996858e+02
530             	3.13996014e+02
531             	3.13995174e+02
532             	3.13994341e+02
533             	3.13993514e+02
534             	3.13992695e+02
535             	3.13991877e+02
536             	3.13991067e+02
537             	3.13990265e+02
538             	3.13989471e+02
539             	3.13988684e+02
540             	3.13987903e+02
541             	3.13987128e+02
542             	3.13986358e+02
543             	3.13985594e+02
544             	3.13984838e+02
545             	3.13984085e+02
546             	3.13983338e+02
547             	3.13982601e+02
548             	3.13981868e+02
549             	3.13981139e+02
550             	3.13980416e+02
551             	3.13979700e+02
552             	3.13978991e+02
553             	3.13978289e+02
554             	3.13977597e+02
555             	3.13976911e+02
556             	3.13976232e+02
557             	3.13975559e+02
558             	3.13974891e+02
559             	3.13974228e+02
560             	3.13973570e+02
561             	3.13972915e+02
562             	3.13972264e+02
563             	3.13971619e+02
564             	3.13970974e+02
565             	3.13970335e+02
566             	3.13969699e+02
567             	3.13969067e+02
568             	3.13968440e+02
569             	3.13967817e+02
570             	3.13967198e+02
571             	3.13966584e+02
572             	3.13965973e+02
573             	3.13965368e+02
574             	3.13964770e+02
575             	3.13964176e+02
576             	3.13963587e+02
577             	3.13963003e+02
578             	3.13962424e+02
579             	3.13961849e+02
580             	3.13961280e+02
581             	3.13960716e+02
582             	3.13960158e+02
583             	3.13959606e+02
584             	3.13959061e+02
585             	3.13958520e+02
586             	3.13957987e+02
587             	3.13957458e+02
588             	3.13956936e+02
589             	3.13956419e+02
590             	3.13955908e+02
591             	3.13955402e+02
592             	3.13954899e+02
593             	3.13954400e+02
594             	3.13953905e+02
595             	3.13953411e+02
596             	3.13952921e+02
597             	3.13952434e+02
598             	3.13951950e+02
599             	3.13951469e+02
600             	3.13950993e+02
601             	3.13950518e+02
602             	3.13950046e+02
603             	3.13949577e+02
604             	3.13949113e+02
605             	3.13948653e+02
606             	3.13948198e+02
607             	3.13947749e+02
608             	3.13947305e+02
609             	3.13946867e+02
610             	3.13946433e+02
611             	3.13946004e+02
612             	3.13945581e+02
613             	3.13945158e+02
614             	3.13944739e+02
615             	3.13944325e+02
616             	3.13943914e+02
617             	3.13943505e+02
618             	3.13943099e+02
619             	3.13942694e+02
620             	3.13942292e+02
621             	3.13941893e+02
