# Region        : cellZone component_3
# Cells         : 16
# Volume        : 2.04263804e-02
# Time          	volAverage(T)
1               	3.07411940e+02
2               	3.14556491e+02
3               	3.18970191e+02
4               	3.21905124e+02
5               	3.24413471e+02
6               	3.26831402e+02
7               	3.29201966e+02
8               	3.31473481e+02
9               	3.33687674e+02
10              	3.35737875e+02
11              	3.37582297e+02
12              	3.39119570e+02
13              	3.40419078e+02
14              	3.41477674e+02
15              	3.42677880e+02
16              	3.43822984e+02
17              	3.44801138e+02
18              	3.45508076e+02
19              	3.45924003e+02
20              	3.46571094e+02
21              	3.47308436e+02
22              	3.48191240e+02
23              	3.48383425e+02
24              	3.47703294e+02
25              	3.47172029e+02
26              	3.45565180e+02
27              	3.42611087e+02
28              	3.39376269e+02
29              	3.36417371e+02
30              	3.34723203e+02
31              	3.33593332e+02
32              	3.33114773e+02
33              	3.32730930e+02
34              	3.32464227e+02
35              	3.32162531e+02
36              	3.31503899e+02
37              	3.31033198e+02
38              	3.29926164e+02
39              	3.28301736e+02
40              	3.26004571e+02
41              	3.24383501e+02
42              	3.23251109e+02
43              	3.22740192e+02
44              	3.22460185e+02
45              	3.22310193e+02
46              	3.22153797e+02
47              	3.22153651e+02
48              	3.22163379e+02
49              	3.22181019e+02
50              	3.22204764e+02
51              	3.22167692e+02
52              	3.22148068e+02
53              	3.22138803e+02
54              	3.22136282e+02
55              	3.22158068e+02
56              	3.22143073e+02
57              	3.22162979e+02
58              	3.22157411e+02
59              	3.22192480e+02
60              	3.22212413e+02
61              	3.22233823e+02
62              	3.22233364e+02
63              	3.22223186e+02
64              	3.22243681e+02
65              	3.22266880e+02
66              	3.22283362e+02
67              	3.22286034e+02
68              	3.22255756e+02
69              	3.22224808e+02
70              	3.22206755e+02
71              	3.22209886e+02
72              	3.22220781e+02
73              	3.22298415e+02
74              	3.22401443e+02
75              	3.22517710e+02
76              	3.22590320e+02
77              	3.22582356e+02
78              	3.22573572e+02
79              	3.22546016e+02
80              	3.22498352e+02
81              	3.22440865e+02
82              	3.22392241e+02
83              	3.22384300e+02
84              	3.22367822e+02
85              	3.22369911e+02
86              	3.22383732e+02
87              	3.22427355e+02
88              	3.22479133e+02
89              	3.22551812e+02
90              	3.22570358e+02
91              	3.22533794e+02
92              	3.22467051e+02
93              	3.22427247e+02
94              	3.22467891e+02
95              	3.22504471e+02
96              	3.22554581e+02
97              	3.22582762e+02
98              	3.22598711e+02
99              	3.22601319e+02
100             	3.22565757e+02
101             	3.22523197e+02
102             	3.22509227e+02
103             	3.22508046e+02
104             	3.22518975e+02
105             	3.22515181e+02
106             	3.22488853e+02
107             	3.22471207e+02
108             	3.22484813e+02
109             	3.22505640e+02
110             	3.22501645e+02
111             	3.22473591e+02
112             	3.22431836e+02
113             	3.22429743e+02
114             	3.22472216e+02
115             	3.22544091e+02
116             	3.22604868e+02
117             	3.22647816e+02
118             	3.22650591e+02
119             	3.22648918e+02
120             	3.22641511e+02
121             	3.22612624e+02
122             	3.22573137e+02
123             	3.22532131e+02
124             	3.22507829e+02
125             	3.22499561e+02
126             	3.22524340e+02
127             	3.22541031e+02
128             	3.22544984e+02
129             	3.22548726e+02
130             	3.22557604e+02
131             	3.22561286e+02
132             	3.22544257e+02
133             	3.22510863e+02
134             	3.22482358e+02
135             	3.22475998e+02
136             	3.22500375e+02
137             	3.22544246e+02
138             	3.22590071e+02
139             	3.22623066e+02
140             	3.22639950e+02
141             	3.22646432e+02
142             	3.22649184e+02
143             	3.22636157e+02
144             	3.22607253e+02
145             	3.22571023e+02
146             	3.22541384e+02
147             	3.22527657e+02
148             	3.22532247e+02
149             	3.22565043e+02
150             	3.22590709e+02
151             	3.22608468e+02
152             	3.22617916e+02
153             	3.22625378e+02
154             	3.22631587e+02
155             	3.22622898e+02
156             	3.22597093e+02
157             	3.22568600e+02
158             	3.22547970e+02
159             	3.22545287e+02
160             	3.22567287e+02
161             	3.22611434e+02
162             	3.22645880e+02
163             	3.22669228e+02
164             	3.22683621e+02
165             	3.22691563e+02
166             	3.22691210e+02
167             	3.22677109e+02
168             	3.22652818e+02
169             	3.22627573e+02
170             	3.22609587e+02
171             	3.22606747e+02
172             	3.22616322e+02
173             	3.22645114e+02
174             	3.22678117e+02
175             	3.22703534e+02
176             	3.22716154e+02
177             	3.22728030e+02
178             	3.22735470e+02
179             	3.22726698e+02
180             	3.22703456e+02
181             	3.22675290e+02
182             	3.22656476e+02
183             	3.22653271e+02
184             	3.22666609e+02
185             	3.22700342e+02
186             	3.22732047e+02
187             	3.22750617e+02
188             	3.22763273e+02
189             	3.22770646e+02
190             	3.22767422e+02
191             	3.22750532e+02
192             	3.22724591e+02
193             	3.22698696e+02
194             	3.22679966e+02
195             	3.22677727e+02
196             	3.22688984e+02
197             	3.22714109e+02
198             	3.22750763e+02
199             	3.22781391e+02
200             	3.22798455e+02
201             	3.22803803e+02
202             	3.22806409e+02
203             	3.22797646e+02
204             	3.22775786e+02
205             	3.22747510e+02
206             	3.22722517e+02
207             	3.22712346e+02
208             	3.22715390e+02
209             	3.22736213e+02
210             	3.22766194e+02
211             	3.22789979e+02
212             	3.22803242e+02
213             	3.22810384e+02
214             	3.22809960e+02
215             	3.22799888e+02
216             	3.22780679e+02
217             	3.22755763e+02
218             	3.22732031e+02
219             	3.22721252e+02
220             	3.22723741e+02
221             	3.22738530e+02
222             	3.22766746e+02
223             	3.22796707e+02
224             	3.22816874e+02
225             	3.22829161e+02
226             	3.22833268e+02
227             	3.22829376e+02
228             	3.22815759e+02
229             	3.22794880e+02
230             	3.22769457e+02
231             	3.22752722e+02
232             	3.22749543e+02
233             	3.22758126e+02
234             	3.22782438e+02
235             	3.22807026e+02
236             	3.22821419e+02
237             	3.22831879e+02
238             	3.22836399e+02
239             	3.22831981e+02
240             	3.22817250e+02
241             	3.22796482e+02
242             	3.22773726e+02
243             	3.22760989e+02
244             	3.22760695e+02
245             	3.22772777e+02
246             	3.22797524e+02
247             	3.22822419e+02
248             	3.22837760e+02
249             	3.22847407e+02
250             	3.22849935e+02
251             	3.22843595e+02
252             	3.22826459e+02
253             	3.22806230e+02
254             	3.22784437e+02
255             	3.22773347e+02
256             	3.22773710e+02
257             	3.22785607e+02
258             	3.22809798e+02
259             	3.22834899e+02
260             	3.22851826e+02
261             	3.22861496e+02
262             	3.22864385e+02
263             	3.22858262e+02
264             	3.22842163e+02
265             	3.22820561e+02
266             	3.22801032e+02
267             	3.22790709e+02
268             	3.22790620e+02
269             	3.22799971e+02
270             	3.22822298e+02
271             	3.22844797e+02
272             	3.22861802e+02
273             	3.22871997e+02
274             	3.22873194e+02
275             	3.22866372e+02
276             	3.22850807e+02
277             	3.22831341e+02
278             	3.22812333e+02
279             	3.22798597e+02
280             	3.22797161e+02
281             	3.22804614e+02
282             	3.22821130e+02
283             	3.22845201e+02
284             	3.22867083e+02
285             	3.22880413e+02
286             	3.22885912e+02
287             	3.22883479e+02
288             	3.22874404e+02
289             	3.22858518e+02
290             	3.22840030e+02
291             	3.22820998e+02
292             	3.22811116e+02
293             	3.22812922e+02
294             	3.22826345e+02
295             	3.22850242e+02
296             	3.22870837e+02
297             	3.22882753e+02
298             	3.22888685e+02
299             	3.22886679e+02
300             	3.22874383e+02
301             	3.22855246e+02
302             	3.22834942e+02
303             	3.22819830e+02
304             	3.22814811e+02
305             	3.22818826e+02
306             	3.22832530e+02
307             	3.22855629e+02
308             	3.22876820e+02
309             	3.22890522e+02
310             	3.22896030e+02
311             	3.22893868e+02
312             	3.22884841e+02
313             	3.22869357e+02
314             	3.22851391e+02
315             	3.22835428e+02
316             	3.22828059e+02
317             	3.22829900e+02
318             	3.22839935e+02
319             	3.22860718e+02
320             	3.22881444e+02
321             	3.22895637e+02
322             	3.22901195e+02
323             	3.22899480e+02
324             	3.22891066e+02
325             	3.22876063e+02
326             	3.22858669e+02
327             	3.22844379e+02
328             	3.22837142e+02
329             	3.22837925e+02
330             	3.22845671e+02
331             	3.22861695e+02
332             	3.22880083e+02
333             	3.22894280e+02
334             	3.22901202e+02
335             	3.22899744e+02
336             	3.22892025e+02
337             	3.22879241e+02
338             	3.22863253e+02
339             	3.22847530e+02
340             	3.22839219e+02
341             	3.22840035e+02
342             	3.22849419e+02
343             	3.22867658e+02
344             	3.22886612e+02
345             	3.22900335e+02
346             	3.22906763e+02
347             	3.22904839e+02
348             	3.22897656e+02
349             	3.22885737e+02
350             	3.22869772e+02
351             	3.22857577e+02
352             	3.22852337e+02
353             	3.22853600e+02
354             	3.22861028e+02
355             	3.22874354e+02
356             	3.22890561e+02
357             	3.22902540e+02
358             	3.22905470e+02
359             	3.22901645e+02
360             	3.22893282e+02
361             	3.22883219e+02
362             	3.22872406e+02
363             	3.22864910e+02
364             	3.22862582e+02
365             	3.22865046e+02
366             	3.22870485e+02
367             	3.22877843e+02
368             	3.22886791e+02
369             	3.22894587e+02
370             	3.22899125e+02
371             	3.22898761e+02
372             	3.22894987e+02
373             	3.22889579e+02
374             	3.22882569e+02
375             	3.22875258e+02
376             	3.22869968e+02
377             	3.22868912e+02
378             	3.22872116e+02
379             	3.22877448e+02
380             	3.22885582e+02
381             	3.22894996e+02
382             	3.22902097e+02
383             	3.22904346e+02
384             	3.22902075e+02
385             	3.22897524e+02
386             	3.22891202e+02
387             	3.22883700e+02
388             	3.22877793e+02
389             	3.22874702e+02
390             	3.22875435e+02
391             	3.22878746e+02
392             	3.22884350e+02
393             	3.22891748e+02
394             	3.22898840e+02
395             	3.22902671e+02
396             	3.22902053e+02
397             	3.22898525e+02
398             	3.22893271e+02
399             	3.22887099e+02
400             	3.22882293e+02
401             	3.22879881e+02
402             	3.22880335e+02
403             	3.22883014e+02
404             	3.22886661e+02
405             	3.22890971e+02
406             	3.22895701e+02
407             	3.22899949e+02
408             	3.22901824e+02
409             	3.22901192e+02
410             	3.22898923e+02
411             	3.22895941e+02
412             	3.22892500e+02
413             	3.22889090e+02
414             	3.22886764e+02
415             	3.22886720e+02
416             	3.22888551e+02
417             	3.22891284e+02
418             	3.22895182e+02
419             	3.22899099e+02
420             	3.22902158e+02
421             	3.22903118e+02
422             	3.22901843e+02
423             	3.22899594e+02
424             	3.22896643e+02
425             	3.22892939e+02
426             	3.22889650e+02
427             	3.22887739e+02
428             	3.22888009e+02
429             	3.22889771e+02
430             	3.22892796e+02
431             	3.22896990e+02
432             	3.22901099e+02
433             	3.22903741e+02
434             	3.22904006e+02
435             	3.22902785e+02
436             	3.22900395e+02
437             	3.22897047e+02
438             	3.22893594e+02
439             	3.22891330e+02
440             	3.22891232e+02
441             	3.22892869e+02
442             	3.22895750e+02
443             	3.22899413e+02
444             	3.22903291e+02
445             	3.22905767e+02
446             	3.22906064e+02
447             	3.22904773e+02
448             	3.22902688e+02
449             	3.22900230e+02
450             	3.22897745e+02
451             	3.22896106e+02
452             	3.22896001e+02
453             	3.22897151e+02
454             	3.22898836e+02
455             	3.22900841e+02
456             	3.22902864e+02
457             	3.22904423e+02
458             	3.22905215e+02
459             	3.22905001e+02
460             	3.22904027e+02
461             	3.22902684e+02
462             	3.22901112e+02
463             	3.22899672e+02
464             	3.22898481e+02
465             	3.22898330e+02
466             	3.22899310e+02
467             	3.22900796e+02
468             	3.22902774e+02
469             	3.22904875e+02
470             	3.22906569e+02
471             	3.22907408e+02
472             	3.22907090e+02
473             	3.22906219e+02
474             	3.22904931e+02
475             	3.22903391e+02
476             	3.22901894e+02
477             	3.22900871e+02
478             	3.22900867e+02
479             	3.22901686e+02
480             	3.22903069e+02
481             	3.22904956e+02
482             	3.22906903e+02
483             	3.22908344e+02
484             	3.22908709e+02
485             	3.22908315e+02
486             	3.22907410e+02
487             	3.22906028e+02
488             	3.22904376e+02
489             	3.22902904e+02
490             	3.22902216e+02
491             	3.22902386e+02
492             	3.22903193e+02
493             	3.22904565e+02
494             	3.22906288e+02
495             	3.22908130e+02
496             	3.22909216e+02
497             	3.22909340e+02
498             	3.22908776e+02
499             	3.22907685e+02
500             	3.22906196e+02
501             	3.22904700e+02
502             	3.22903741e+02
503             	3.22903769e+02
504             	3.22904454e+02
505             	3.22905629e+02
506             	3.22907179e+02
507             	3.22908840e+02
508             	3.22910193e+02
509             	3.22910603e+02
510             	3.22910263e+02
511             	3.22909347e+02
512             	3.22908033e+02
513             	3.22906621e+02
514             	3.22905484e+02
515             	3.22905214e+02
516             	3.22905732e+02
517             	3.22906819e+02
518             	3.22908237e+02
519             	3.22909649e+02
520             	3.22910557e+02
521             	3.22910750e+02
522             	3.22910377e+02
523             	3.22909792e+02
524             	3.22908990e+02
525             	3.22908119e+02
526             	3.22907410e+02
527             	3.22907115e+02
528             	3.22907413e+02
529             	3.22908030e+02
530             	3.22908902e+02
531             	3.22909950e+02
532             	3.22910981e+02
533             	3.22911719e+02
534             	3.22911856e+02
535             	3.22911555e+02
536             	3.22910942e+02
537             	3.22910110e+02
538             	3.22909269e+02
539             	3.22908649e+02
540             	3.22908601e+02
541             	3.22909050e+02
542             	3.22909830e+02
543             	3.22910829e+02
544             	3.22911841e+02
545             	3.22912563e+02
546             	3.22912705e+02
547             	3.22912391e+02
548             	3.22911774e+02
549             	3.22910978e+02
550             	3.22910202e+02
551             	3.22909682e+02
552             	3.22909660e+02
553             	3.22910015e+02
554             	3.22910635e+02
555             	3.22911410e+02
556             	3.22912187e+02
557             	3.22912742e+02
558             	3.22912945e+02
559             	3.22912837e+02
560             	3.22912527e+02
561             	3.22912066e+02
562             	3.22911554e+02
563             	3.22911143e+02
564             	3.22910984e+02
565             	3.22911175e+02
566             	3.22911580e+02
567             	3.22912136e+02
568             	3.22912771e+02
569             	3.22913316e+02
570             	3.22913700e+02
571             	3.22913780e+02
572             	3.22913598e+02
573             	3.22913287e+02
574             	3.22912901e+02
575             	3.22912516e+02
576             	3.22912210e+02
577             	3.22912147e+02
578             	3.22912357e+02
579             	3.22912703e+02
580             	3.22913165e+02
581             	3.22913671e+02
582             	3.22914099e+02
583             	3.22914333e+02
584             	3.22914289e+02
585             	3.22914073e+02
586             	3.22913738e+02
587             	3.22913348e+02
588             	3.22913047e+02
589             	3.22912885e+02
590             	3.22912963e+02
591             	3.22913237e+02
592             	3.22913607e+02
593             	3.22914041e+02
594             	3.22914442e+02
595             	3.22914744e+02
596             	3.22914886e+02
597             	3.22914821e+02
598             	3.22914651e+02
599             	3.22914411e+02
600             	3.22914136e+02
601             	3.22913906e+02
602             	3.22913781e+02
603             	3.22913868e+02
604             	3.22914109e+02
605             	3.22914447e+02
606             	3.22914852e+02
607             	3.22915215e+02
608             	3.22915487e+02
609             	3.22915562e+02
610             	3.22915448e+02
611             	3.22915248e+02
612             	3.22914975e+02
613             	3.22914690e+02
614             	3.22914467e+02
615             	3.22914426e+02
616             	3.22914581e+02
617             	3.22914849e+02
618             	3.22915197e+02
619             	3.22915573e+02
620             	3.22915870e+02
621             	3.22916013e+02
