# Region        : cellZone component_4
# Cells         : 84
# Volume        : 1.55587131e-01
# Time          	volAverage(T)
1               	3.01156847e+02
2               	3.02298096e+02
3               	3.03308621e+02
4               	3.04231931e+02
5               	3.05111720e+02
6               	3.05964984e+02
7               	3.06795268e+02
8               	3.07605335e+02
9               	3.08393908e+02
10              	3.09171545e+02
11              	3.09929621e+02
12              	3.10670610e+02
13              	3.11386275e+02
14              	3.12084204e+02
15              	3.12768650e+02
16              	3.13417361e+02
17              	3.14028003e+02
18              	3.14584575e+02
19              	3.15132411e+02
20              	3.15692645e+02
21              	3.16245514e+02
22              	3.16769654e+02
23              	3.17245522e+02
24              	3.17672735e+02
25              	3.18069065e+02
26              	3.18432403e+02
27              	3.18812425e+02
28              	3.19158058e+02
29              	3.19559916e+02
30              	3.19963237e+02
31              	3.20344932e+02
32              	3.20715459e+02
33              	3.21087560e+02
34              	3.21456941e+02
35              	3.21834132e+02
36              	3.22214411e+02
37              	3.22574686e+02
38              	3.22895768e+02
39              	3.23129413e+02
40              	3.23263081e+02
41              	3.23395906e+02
42              	3.23584449e+02
43              	3.23796146e+02
44              	3.24031039e+02
45              	3.24269024e+02
46              	3.24458002e+02
47              	3.24651585e+02
48              	3.24881638e+02
49              	3.25132682e+02
50              	3.25371935e+02
51              	3.25616886e+02
52              	3.25810044e+02
53              	3.25943024e+02
54              	3.26018425e+02
55              	3.26056626e+02
56              	3.26134426e+02
57              	3.26249262e+02
58              	3.26352606e+02
59              	3.26439656e+02
60              	3.26546907e+02
61              	3.26647455e+02
62              	3.26761241e+02
63              	3.26878953e+02
64              	3.27029537e+02
65              	3.27166505e+02
66              	3.27295089e+02
67              	3.27380345e+02
68              	3.27449008e+02
69              	3.27478885e+02
70              	3.27506195e+02
71              	3.27534189e+02
72              	3.27609143e+02
73              	3.27720673e+02
74              	3.27832705e+02
75              	3.27943575e+02
76              	3.28043824e+02
77              	3.28140207e+02
78              	3.28237210e+02
79              	3.28336463e+02
80              	3.28452471e+02
81              	3.28587690e+02
82              	3.28748656e+02
83              	3.28920714e+02
84              	3.29076479e+02
85              	3.29169774e+02
86              	3.29240861e+02
87              	3.29364446e+02
88              	3.29488864e+02
89              	3.29614336e+02
90              	3.29741761e+02
91              	3.29868301e+02
92              	3.30009811e+02
93              	3.30143976e+02
94              	3.30279124e+02
95              	3.30392003e+02
96              	3.30454092e+02
97              	3.30518220e+02
98              	3.30582556e+02
99              	3.30648320e+02
100             	3.30715029e+02
101             	3.30784491e+02
102             	3.30857432e+02
103             	3.30933529e+02
104             	3.31007740e+02
105             	3.31085485e+02
106             	3.31160412e+02
107             	3.31220043e+02
108             	3.31262328e+02
109             	3.31305849e+02
110             	3.31361456e+02
111             	3.31431707e+02
112             	3.31524246e+02
113             	3.31639314e+02
114             	3.31776189e+02
115             	3.31937409e+02
116             	3.32102638e+02
117             	3.32238427e+02
118             	3.32344805e+02
119             	3.32432946e+02
120             	3.32502086e+02
121             	3.32559702e+02
122             	3.32603079e+02
123             	3.32628915e+02
124             	3.32638979e+02
125             	3.32639510e+02
126             	3.32639700e+02
127             	3.32646846e+02
128             	3.32656018e+02
129             	3.32677596e+02
130             	3.32690292e+02
131             	3.32724900e+02
132             	3.32746100e+02
133             	3.32780892e+02
134             	3.32835221e+02
135             	3.32915075e+02
136             	3.33021448e+02
137             	3.33149239e+02
138             	3.33292491e+02
139             	3.33434544e+02
140             	3.33561894e+02
141             	3.33668749e+02
142             	3.33746946e+02
143             	3.33786764e+02
144             	3.33808210e+02
145             	3.33807010e+02
146             	3.33810920e+02
147             	3.33821461e+02
148             	3.33835642e+02
149             	3.33849065e+02
150             	3.33865538e+02
151             	3.33875546e+02
152             	3.33895854e+02
153             	3.33923750e+02
154             	3.33944247e+02
155             	3.33946500e+02
156             	3.33962310e+02
157             	3.33965974e+02
158             	3.33961157e+02
159             	3.33970730e+02
160             	3.33991898e+02
161             	3.34024069e+02
162             	3.34065247e+02
163             	3.34112788e+02
164             	3.34168002e+02
165             	3.34220816e+02
166             	3.34253734e+02
167             	3.34289053e+02
168             	3.34303990e+02
169             	3.34334639e+02
170             	3.34360986e+02
171             	3.34402581e+02
172             	3.34457160e+02
173             	3.34521085e+02
174             	3.34592931e+02
175             	3.34668740e+02
176             	3.34744527e+02
177             	3.34819698e+02
178             	3.34885232e+02
179             	3.34946332e+02
180             	3.35003250e+02
181             	3.35049090e+02
182             	3.35088392e+02
183             	3.35122905e+02
184             	3.35160053e+02
185             	3.35196425e+02
186             	3.35231643e+02
187             	3.35266840e+02
188             	3.35301463e+02
189             	3.35334178e+02
190             	3.35365940e+02
191             	3.35398701e+02
192             	3.35426487e+02
193             	3.35463622e+02
194             	3.35504847e+02
195             	3.35537262e+02
196             	3.35569660e+02
197             	3.35606037e+02
198             	3.35644592e+02
199             	3.35686964e+02
200             	3.35731419e+02
201             	3.35775939e+02
202             	3.35809634e+02
203             	3.35839337e+02
204             	3.35863434e+02
205             	3.35879924e+02
206             	3.35881638e+02
207             	3.35874792e+02
208             	3.35859855e+02
209             	3.35851188e+02
210             	3.35850502e+02
211             	3.35859815e+02
212             	3.35881381e+02
213             	3.35916921e+02
214             	3.35958552e+02
215             	3.36009516e+02
216             	3.36066941e+02
217             	3.36132052e+02
218             	3.36204030e+02
219             	3.36266670e+02
220             	3.36331322e+02
221             	3.36392091e+02
222             	3.36458282e+02
223             	3.36521714e+02
224             	3.36577998e+02
225             	3.36626726e+02
226             	3.36670311e+02
227             	3.36706113e+02
228             	3.36735289e+02
229             	3.36751952e+02
230             	3.36764856e+02
231             	3.36769026e+02
232             	3.36769428e+02
233             	3.36765736e+02
234             	3.36768477e+02
235             	3.36774654e+02
236             	3.36788617e+02
237             	3.36798225e+02
238             	3.36818655e+02
239             	3.36851292e+02
240             	3.36881861e+02
241             	3.36918942e+02
242             	3.36960942e+02
243             	3.37004578e+02
244             	3.37046762e+02
245             	3.37084355e+02
246             	3.37109514e+02
247             	3.37120639e+02
248             	3.37118475e+02
249             	3.37108597e+02
250             	3.37093360e+02
251             	3.37074093e+02
252             	3.37052615e+02
253             	3.37029015e+02
254             	3.37005701e+02
255             	3.36985448e+02
256             	3.36974448e+02
257             	3.36970220e+02
258             	3.36975554e+02
259             	3.36990211e+02
260             	3.37013396e+02
261             	3.37046157e+02
262             	3.37089074e+02
263             	3.37140411e+02
264             	3.37198234e+02
265             	3.37259851e+02
266             	3.37317548e+02
267             	3.37369165e+02
268             	3.37409529e+02
269             	3.37442091e+02
270             	3.37467865e+02
271             	3.37486151e+02
272             	3.37497457e+02
273             	3.37501065e+02
274             	3.37485380e+02
275             	3.37455992e+02
276             	3.37424619e+02
277             	3.37403229e+02
278             	3.37390270e+02
279             	3.37385445e+02
280             	3.37390132e+02
281             	3.37403636e+02
282             	3.37422071e+02
283             	3.37441342e+02
284             	3.37459924e+02
285             	3.37473818e+02
286             	3.37482325e+02
287             	3.37488220e+02
288             	3.37494390e+02
289             	3.37500808e+02
290             	3.37504750e+02
291             	3.37504153e+02
292             	3.37499721e+02
293             	3.37489909e+02
294             	3.37479160e+02
295             	3.37467811e+02
296             	3.37456381e+02
297             	3.37446518e+02
298             	3.37439916e+02
299             	3.37437342e+02
300             	3.37439141e+02
301             	3.37444727e+02
302             	3.37455121e+02
303             	3.37470241e+02
304             	3.37486632e+02
305             	3.37503161e+02
306             	3.37518351e+02
307             	3.37531373e+02
308             	3.37546498e+02
309             	3.37562904e+02
310             	3.37573636e+02
311             	3.37575325e+02
312             	3.37571911e+02
313             	3.37566200e+02
314             	3.37561600e+02
315             	3.37559698e+02
316             	3.37557197e+02
317             	3.37554078e+02
318             	3.37551937e+02
319             	3.37550129e+02
320             	3.37549574e+02
321             	3.37552012e+02
322             	3.37558426e+02
323             	3.37568957e+02
324             	3.37583321e+02
325             	3.37600682e+02
326             	3.37619916e+02
327             	3.37639994e+02
328             	3.37656312e+02
329             	3.37667062e+02
330             	3.37673644e+02
331             	3.37676588e+02
332             	3.37678273e+02
333             	3.37677453e+02
334             	3.37674530e+02
335             	3.37670124e+02
336             	3.37665221e+02
337             	3.37660519e+02
338             	3.37655322e+02
339             	3.37651506e+02
340             	3.37649483e+02
341             	3.37646554e+02
342             	3.37644124e+02
343             	3.37643533e+02
344             	3.37641589e+02
345             	3.37642067e+02
346             	3.37644048e+02
347             	3.37647780e+02
348             	3.37652749e+02
349             	3.37659837e+02
350             	3.37667812e+02
351             	3.37677099e+02
352             	3.37686945e+02
353             	3.37695717e+02
354             	3.37704994e+02
355             	3.37713757e+02
356             	3.37722448e+02
357             	3.37729504e+02
358             	3.37735376e+02
359             	3.37740152e+02
360             	3.37745566e+02
361             	3.37751625e+02
362             	3.37758227e+02
363             	3.37765027e+02
364             	3.37770949e+02
365             	3.37780576e+02
366             	3.37792918e+02
367             	3.37806169e+02
368             	3.37820085e+02
369             	3.37835562e+02
370             	3.37852552e+02
371             	3.37870013e+02
372             	3.37887801e+02
373             	3.37906710e+02
374             	3.37926548e+02
375             	3.37945540e+02
376             	3.37962389e+02
377             	3.37977647e+02
378             	3.37987852e+02
379             	3.37994462e+02
380             	3.37998341e+02
381             	3.37998158e+02
382             	3.37995477e+02
383             	3.37994177e+02
384             	3.37990896e+02
385             	3.37980897e+02
386             	3.37968194e+02
387             	3.37957422e+02
388             	3.37946266e+02
389             	3.37936555e+02
390             	3.37929119e+02
391             	3.37923590e+02
392             	3.37919645e+02
393             	3.37918547e+02
394             	3.37918564e+02
395             	3.37918433e+02
396             	3.37920298e+02
397             	3.37921003e+02
398             	3.37924608e+02
399             	3.37931112e+02
400             	3.37938315e+02
401             	3.37944467e+02
402             	3.37949309e+02
403             	3.37953416e+02
404             	3.37957399e+02
405             	3.37961798e+02
406             	3.37966209e+02
407             	3.37970661e+02
408             	3.37973078e+02
409             	3.37973999e+02
410             	3.37975430e+02
411             	3.37978422e+02
412             	3.37982923e+02
413             	3.37987521e+02
414             	3.37995288e+02
415             	3.38000693e+02
416             	3.38003469e+02
417             	3.38004693e+02
418             	3.38005117e+02
419             	3.38003878e+02
420             	3.38002616e+02
421             	3.38004858e+02
422             	3.38002681e+02
423             	3.37992429e+02
424             	3.37980764e+02
425             	3.37974078e+02
426             	3.37972360e+02
427             	3.37973591e+02
428             	3.37976731e+02
429             	3.37980535e+02
430             	3.37985462e+02
431             	3.37990545e+02
432             	3.37994800e+02
433             	3.37997896e+02
434             	3.37998935e+02
435             	3.37996608e+02
436             	3.37992076e+02
437             	3.37985484e+02
438             	3.37977486e+02
439             	3.37968642e+02
440             	3.37959105e+02
441             	3.37949520e+02
442             	3.37940570e+02
443             	3.37933554e+02
444             	3.37929909e+02
445             	3.37930016e+02
446             	3.37932787e+02
447             	3.37937154e+02
448             	3.37941990e+02
449             	3.37947932e+02
450             	3.37954587e+02
451             	3.37958088e+02
452             	3.37959906e+02
453             	3.37960768e+02
454             	3.37962674e+02
455             	3.37962670e+02
456             	3.37961341e+02
457             	3.37958349e+02
458             	3.37955419e+02
459             	3.37953933e+02
460             	3.37952140e+02
461             	3.37947353e+02
462             	3.37941320e+02
463             	3.37940476e+02
464             	3.37943633e+02
465             	3.37948843e+02
466             	3.37953844e+02
467             	3.37956883e+02
468             	3.37958294e+02
469             	3.37958340e+02
470             	3.37958207e+02
471             	3.37957695e+02
472             	3.37957163e+02
473             	3.37954285e+02
474             	3.37949916e+02
475             	3.37945797e+02
476             	3.37941488e+02
477             	3.37935346e+02
478             	3.37926007e+02
479             	3.37912793e+02
480             	3.37897043e+02
481             	3.37881113e+02
482             	3.37866236e+02
483             	3.37850756e+02
484             	3.37837633e+02
485             	3.37825582e+02
486             	3.37816363e+02
487             	3.37812129e+02
488             	3.37813169e+02
489             	3.37819047e+02
490             	3.37830228e+02
491             	3.37846008e+02
492             	3.37863662e+02
493             	3.37877385e+02
494             	3.37889254e+02
495             	3.37895575e+02
496             	3.37904260e+02
497             	3.37914309e+02
498             	3.37922155e+02
499             	3.37928486e+02
500             	3.37929800e+02
501             	3.37926818e+02
502             	3.37919482e+02
503             	3.37910760e+02
504             	3.37900943e+02
505             	3.37890278e+02
506             	3.37879357e+02
507             	3.37868351e+02
508             	3.37859334e+02
509             	3.37852723e+02
510             	3.37847304e+02
511             	3.37844824e+02
512             	3.37846778e+02
513             	3.37853135e+02
514             	3.37863934e+02
515             	3.37879060e+02
516             	3.37898424e+02
517             	3.37921524e+02
518             	3.37946901e+02
519             	3.37973182e+02
520             	3.38000271e+02
521             	3.38024737e+02
522             	3.38045512e+02
523             	3.38062244e+02
524             	3.38074555e+02
525             	3.38081714e+02
526             	3.38085758e+02
527             	3.38087730e+02
528             	3.38088154e+02
529             	3.38078748e+02
530             	3.38071430e+02
531             	3.38065111e+02
532             	3.38053530e+02
533             	3.38048156e+02
534             	3.38037504e+02
535             	3.38036088e+02
536             	3.38038968e+02
537             	3.38044898e+02
538             	3.38052555e+02
539             	3.38059725e+02
540             	3.38067159e+02
541             	3.38075045e+02
542             	3.38082466e+02
543             	3.38088498e+02
544             	3.38093097e+02
545             	3.38097892e+02
546             	3.38104068e+02
547             	3.38109750e+02
548             	3.38113494e+02
549             	3.38115737e+02
550             	3.38115738e+02
551             	3.38113223e+02
552             	3.38108966e+02
553             	3.38103974e+02
554             	3.38099146e+02
555             	3.38095024e+02
556             	3.38092215e+02
557             	3.38091027e+02
558             	3.38092543e+02
559             	3.38096466e+02
560             	3.38102882e+02
561             	3.38111972e+02
562             	3.38120094e+02
563             	3.38130019e+02
564             	3.38137776e+02
565             	3.38144555e+02
566             	3.38151153e+02
567             	3.38153713e+02
568             	3.38155549e+02
569             	3.38155109e+02
570             	3.38151821e+02
571             	3.38144559e+02
572             	3.38133886e+02
573             	3.38115557e+02
574             	3.38104795e+02
575             	3.38102295e+02
576             	3.38103485e+02
577             	3.38106663e+02
578             	3.38113463e+02
579             	3.38124040e+02
580             	3.38138031e+02
581             	3.38154012e+02
582             	3.38169622e+02
583             	3.38182875e+02
584             	3.38191770e+02
585             	3.38196505e+02
586             	3.38195804e+02
587             	3.38191115e+02
588             	3.38182317e+02
589             	3.38169887e+02
590             	3.38154611e+02
591             	3.38139933e+02
592             	3.38126467e+02
593             	3.38114119e+02
594             	3.38102974e+02
595             	3.38093720e+02
596             	3.38088030e+02
597             	3.38085042e+02
598             	3.38078486e+02
599             	3.38067548e+02
600             	3.38052356e+02
601             	3.38035183e+02
602             	3.38023279e+02
603             	3.38015704e+02
604             	3.38009317e+02
605             	3.38004297e+02
606             	3.38000019e+02
607             	3.37995257e+02
608             	3.37987951e+02
609             	3.37976344e+02
610             	3.37963742e+02
611             	3.37950193e+02
612             	3.37937041e+02
613             	3.37923681e+02
614             	3.37910362e+02
615             	3.37898896e+02
616             	3.37888728e+02
617             	3.37881307e+02
618             	3.37876121e+02
619             	3.37871322e+02
620             	3.37863466e+02
621             	3.37852321e+02
