# Region        : cellZone component_0
# Cells         : 313
# Volume        : 6.10352519e-01
# Time          	volAverage(T)
1               	3.00247882e+02
2               	3.00492108e+02
3               	3.00710416e+02
4               	3.00909611e+02
5               	3.01101035e+02
6               	3.01289224e+02
7               	3.01473856e+02
8               	3.01654186e+02
9               	3.01831494e+02
10              	3.02004912e+02
11              	3.02174234e+02
12              	3.02340046e+02
13              	3.02501693e+02
14              	3.02661601e+02
15              	3.02820233e+02
16              	3.02977305e+02
17              	3.03125835e+02
18              	3.03270670e+02
19              	3.03417391e+02
20              	3.03558909e+02
21              	3.03694520e+02
22              	3.03824868e+02
23              	3.03950996e+02
24              	3.04077495e+02
25              	3.04197289e+02
26              	3.04316041e+02
27              	3.04428958e+02
28              	3.04535090e+02
29              	3.04633886e+02
30              	3.04720698e+02
31              	3.04803041e+02
32              	3.04892478e+02
33              	3.04986470e+02
34              	3.05073507e+02
35              	3.05155934e+02
36              	3.05240138e+02
37              	3.05324253e+02
38              	3.05412181e+02
39              	3.05499480e+02
40              	3.05577606e+02
41              	3.05642889e+02
42              	3.05705182e+02
43              	3.05769859e+02
44              	3.05834315e+02
45              	3.05896030e+02
46              	3.05958211e+02
47              	3.06023350e+02
48              	3.06089837e+02
49              	3.06154238e+02
50              	3.06223121e+02
51              	3.06288381e+02
52              	3.06355756e+02
53              	3.06420299e+02
54              	3.06485468e+02
55              	3.06552352e+02
56              	3.06616620e+02
57              	3.06677885e+02
58              	3.06740034e+02
59              	3.06797749e+02
60              	3.06855309e+02
61              	3.06905160e+02
62              	3.06935466e+02
63              	3.06953083e+02
64              	3.06972928e+02
65              	3.06999128e+02
66              	3.07037566e+02
67              	3.07084538e+02
68              	3.07135026e+02
69              	3.07186755e+02
70              	3.07233329e+02
71              	3.07281966e+02
72              	3.07331868e+02
73              	3.07384930e+02
74              	3.07434589e+02
75              	3.07480242e+02
76              	3.07526544e+02
77              	3.07570434e+02
78              	3.07610831e+02
79              	3.07648878e+02
80              	3.07682229e+02
81              	3.07711360e+02
82              	3.07736691e+02
83              	3.07768969e+02
84              	3.07806493e+02
85              	3.07847081e+02
86              	3.07890507e+02
87              	3.07932211e+02
88              	3.07975497e+02
89              	3.08016174e+02
90              	3.08057044e+02
91              	3.08103086e+02
92              	3.08147405e+02
93              	3.08181253e+02
94              	3.08202914e+02
95              	3.08214729e+02
96              	3.08225800e+02
97              	3.08238769e+02
98              	3.08255282e+02
99              	3.08279121e+02
100             	3.08310385e+02
101             	3.08342397e+02
102             	3.08372295e+02
103             	3.08401077e+02
104             	3.08431580e+02
105             	3.08464933e+02
106             	3.08501117e+02
107             	3.08537913e+02
108             	3.08567037e+02
109             	3.08600795e+02
110             	3.08631490e+02
111             	3.08666240e+02
112             	3.08696267e+02
113             	3.08721698e+02
114             	3.08738724e+02
115             	3.08751354e+02
116             	3.08769112e+02
117             	3.08788423e+02
118             	3.08807412e+02
119             	3.08831069e+02
120             	3.08859423e+02
121             	3.08889529e+02
122             	3.08921006e+02
123             	3.08952315e+02
124             	3.08981576e+02
125             	3.09007426e+02
126             	3.09038760e+02
127             	3.09066783e+02
128             	3.09089433e+02
129             	3.09107198e+02
130             	3.09121856e+02
131             	3.09132276e+02
132             	3.09143170e+02
133             	3.09155032e+02
134             	3.09167189e+02
135             	3.09184031e+02
136             	3.09206000e+02
137             	3.09228065e+02
138             	3.09250322e+02
139             	3.09271295e+02
140             	3.09292286e+02
141             	3.09315926e+02
142             	3.09341874e+02
143             	3.09364222e+02
144             	3.09382018e+02
145             	3.09398066e+02
146             	3.09413670e+02
147             	3.09426893e+02
148             	3.09439003e+02
149             	3.09448855e+02
150             	3.09461267e+02
151             	3.09474038e+02
152             	3.09487684e+02
153             	3.09503683e+02
154             	3.09519410e+02
155             	3.09535709e+02
156             	3.09552302e+02
157             	3.09569689e+02
158             	3.09587623e+02
159             	3.09606403e+02
160             	3.09623324e+02
161             	3.09641576e+02
162             	3.09660051e+02
163             	3.09676880e+02
164             	3.09692361e+02
165             	3.09706795e+02
166             	3.09720164e+02
167             	3.09731751e+02
168             	3.09741335e+02
169             	3.09748894e+02
170             	3.09753178e+02
171             	3.09756392e+02
172             	3.09758247e+02
173             	3.09757434e+02
174             	3.09756920e+02
175             	3.09756482e+02
176             	3.09759292e+02
177             	3.09767100e+02
178             	3.09779164e+02
179             	3.09791490e+02
180             	3.09803058e+02
181             	3.09814990e+02
182             	3.09829391e+02
183             	3.09843487e+02
184             	3.09857698e+02
185             	3.09873319e+02
186             	3.09887022e+02
187             	3.09897975e+02
188             	3.09905757e+02
189             	3.09912004e+02
190             	3.09916708e+02
191             	3.09920309e+02
192             	3.09924399e+02
193             	3.09929633e+02
194             	3.09934893e+02
195             	3.09940254e+02
196             	3.09946098e+02
197             	3.09952718e+02
198             	3.09960335e+02
199             	3.09968572e+02
200             	3.09979138e+02
201             	3.09988071e+02
202             	3.09998340e+02
203             	3.10006611e+02
204             	3.10013736e+02
205             	3.10021273e+02
206             	3.10031555e+02
207             	3.10041887e+02
208             	3.10047828e+02
209             	3.10049335e+02
210             	3.10050679e+02
211             	3.10050730e+02
212             	3.10050823e+02
213             	3.10051149e+02
214             	3.10052842e+02
215             	3.10056446e+02
216             	3.10061794e+02
217             	3.10069075e+02
218             	3.10076679e+02
219             	3.10087192e+02
220             	3.10096535e+02
221             	3.10105769e+02
222             	3.10113078e+02
223             	3.10123723e+02
224             	3.10133352e+02
225             	3.10141477e+02
226             	3.10148516e+02
227             	3.10154852e+02
228             	3.10160151e+02
229             	3.10161908e+02
230             	3.10163192e+02
231             	3.10163699e+02
232             	3.10161336e+02
233             	3.10159047e+02
234             	3.10157022e+02
235             	3.10157537e+02
236             	3.10159048e+02
237             	3.10162372e+02
238             	3.10165782e+02
239             	3.10165975e+02
240             	3.10171906e+02
241             	3.10178971e+02
242             	3.10183571e+02
243             	3.10185933e+02
244             	3.10186576e+02
245             	3.10186766e+02
246             	3.10187020e+02
247             	3.10187251e+02
248             	3.10187310e+02
249             	3.10187029e+02
250             	3.10186696e+02
251             	3.10186769e+02
252             	3.10187185e+02
253             	3.10187753e+02
254             	3.10191031e+02
255             	3.10193188e+02
256             	3.10196356e+02
257             	3.10200515e+02
258             	3.10205717e+02
259             	3.10210205e+02
260             	3.10213417e+02
261             	3.10217925e+02
262             	3.10221994e+02
263             	3.10225247e+02
264             	3.10228192e+02
265             	3.10230979e+02
266             	3.10232644e+02
267             	3.10233392e+02
268             	3.10233171e+02
269             	3.10232546e+02
270             	3.10231447e+02
271             	3.10230441e+02
272             	3.10229926e+02
273             	3.10229993e+02
274             	3.10230055e+02
275             	3.10230124e+02
276             	3.10230415e+02
277             	3.10231484e+02
278             	3.10233297e+02
279             	3.10235286e+02
280             	3.10237303e+02
281             	3.10239207e+02
282             	3.10241537e+02
283             	3.10243709e+02
284             	3.10247001e+02
285             	3.10250343e+02
286             	3.10253971e+02
287             	3.10257037e+02
288             	3.10259052e+02
289             	3.10260602e+02
290             	3.10261615e+02
291             	3.10261099e+02
292             	3.10259908e+02
293             	3.10258838e+02
294             	3.10257962e+02
295             	3.10258047e+02
296             	3.10258711e+02
297             	3.10259595e+02
298             	3.10260935e+02
299             	3.10262714e+02
300             	3.10264839e+02
301             	3.10267572e+02
302             	3.10270816e+02
303             	3.10274238e+02
304             	3.10277777e+02
305             	3.10281613e+02
306             	3.10285445e+02
307             	3.10288277e+02
308             	3.10290314e+02
309             	3.10291546e+02
310             	3.10291850e+02
311             	3.10290936e+02
312             	3.10289577e+02
313             	3.10287630e+02
314             	3.10285587e+02
315             	3.10283862e+02
316             	3.10282712e+02
317             	3.10282741e+02
318             	3.10283600e+02
319             	3.10285050e+02
320             	3.10287304e+02
321             	3.10290494e+02
322             	3.10294549e+02
323             	3.10298331e+02
324             	3.10300066e+02
325             	3.10303263e+02
326             	3.10306892e+02
327             	3.10309603e+02
328             	3.10311589e+02
329             	3.10312686e+02
330             	3.10312621e+02
331             	3.10311548e+02
332             	3.10309352e+02
333             	3.10307602e+02
334             	3.10306759e+02
335             	3.10305742e+02
336             	3.10304854e+02
337             	3.10304844e+02
338             	3.10306001e+02
339             	3.10308673e+02
340             	3.10311727e+02
341             	3.10311890e+02
342             	3.10314423e+02
343             	3.10317939e+02
344             	3.10320979e+02
345             	3.10323290e+02
346             	3.10324466e+02
347             	3.10324535e+02
348             	3.10322297e+02
349             	3.10319482e+02
350             	3.10317285e+02
351             	3.10314665e+02
352             	3.10312059e+02
353             	3.10310606e+02
354             	3.10310414e+02
355             	3.10311039e+02
356             	3.10312749e+02
357             	3.10316324e+02
358             	3.10321113e+02
359             	3.10325056e+02
360             	3.10327273e+02
361             	3.10331479e+02
362             	3.10335810e+02
363             	3.10340148e+02
364             	3.10345413e+02
365             	3.10348894e+02
366             	3.10349671e+02
367             	3.10347848e+02
368             	3.10344835e+02
369             	3.10342595e+02
370             	3.10341239e+02
371             	3.10338995e+02
372             	3.10338652e+02
373             	3.10339415e+02
374             	3.10340723e+02
375             	3.10343071e+02
376             	3.10346818e+02
377             	3.10351307e+02
378             	3.10354789e+02
379             	3.10355368e+02
380             	3.10358375e+02
381             	3.10360655e+02
382             	3.10362050e+02
383             	3.10363619e+02
384             	3.10363316e+02
385             	3.10361993e+02
386             	3.10359460e+02
387             	3.10354848e+02
388             	3.10350902e+02
389             	3.10347387e+02
390             	3.10344111e+02
391             	3.10341010e+02
392             	3.10339694e+02
393             	3.10340354e+02
394             	3.10341412e+02
395             	3.10342313e+02
396             	3.10343870e+02
397             	3.10346001e+02
398             	3.10347719e+02
399             	3.10349535e+02
400             	3.10351454e+02
401             	3.10353640e+02
402             	3.10355710e+02
403             	3.10357719e+02
404             	3.10359713e+02
405             	3.10362143e+02
406             	3.10364547e+02
407             	3.10367355e+02
408             	3.10368875e+02
409             	3.10371261e+02
410             	3.10373747e+02
411             	3.10375080e+02
412             	3.10374983e+02
413             	3.10374063e+02
414             	3.10372589e+02
415             	3.10370606e+02
416             	3.10367485e+02
417             	3.10363838e+02
418             	3.10361944e+02
419             	3.10360982e+02
420             	3.10360341e+02
421             	3.10360614e+02
422             	3.10362017e+02
423             	3.10363967e+02
424             	3.10364456e+02
425             	3.10365087e+02
426             	3.10367000e+02
427             	3.10368804e+02
428             	3.10368855e+02
429             	3.10366734e+02
430             	3.10363674e+02
431             	3.10361346e+02
432             	3.10359167e+02
433             	3.10358062e+02
434             	3.10358530e+02
435             	3.10359473e+02
436             	3.10360936e+02
437             	3.10363043e+02
438             	3.10365731e+02
439             	3.10368911e+02
440             	3.10372397e+02
441             	3.10376092e+02
442             	3.10378582e+02
443             	3.10381349e+02
444             	3.10383753e+02
445             	3.10385190e+02
446             	3.10385736e+02
447             	3.10385342e+02
448             	3.10383431e+02
449             	3.10379223e+02
450             	3.10375930e+02
451             	3.10370198e+02
452             	3.10364942e+02
453             	3.10359013e+02
454             	3.10353009e+02
455             	3.10348584e+02
456             	3.10347325e+02
457             	3.10350214e+02
458             	3.10352888e+02
459             	3.10356855e+02
460             	3.10360727e+02
461             	3.10364472e+02
462             	3.10368799e+02
463             	3.10368857e+02
464             	3.10374336e+02
465             	3.10379251e+02
466             	3.10380533e+02
467             	3.10378057e+02
468             	3.10373883e+02
469             	3.10369987e+02
470             	3.10365306e+02
471             	3.10360165e+02
472             	3.10355894e+02
473             	3.10353393e+02
474             	3.10352130e+02
475             	3.10351040e+02
476             	3.10350088e+02
477             	3.10349720e+02
478             	3.10350521e+02
479             	3.10351552e+02
480             	3.10352433e+02
481             	3.10353104e+02
482             	3.10353504e+02
483             	3.10354328e+02
484             	3.10355546e+02
485             	3.10356768e+02
486             	3.10357215e+02
487             	3.10357564e+02
488             	3.10358242e+02
489             	3.10358794e+02
490             	3.10358699e+02
491             	3.10357890e+02
492             	3.10356827e+02
493             	3.10355456e+02
494             	3.10354030e+02
495             	3.10352558e+02
496             	3.10350713e+02
497             	3.10348864e+02
498             	3.10347266e+02
499             	3.10346298e+02
500             	3.10345404e+02
501             	3.10345001e+02
502             	3.10345349e+02
503             	3.10346338e+02
504             	3.10348001e+02
505             	3.10350168e+02
506             	3.10352539e+02
507             	3.10354818e+02
508             	3.10355144e+02
509             	3.10356803e+02
510             	3.10358646e+02
511             	3.10359736e+02
512             	3.10360302e+02
513             	3.10360038e+02
514             	3.10358911e+02
515             	3.10357281e+02
516             	3.10355644e+02
517             	3.10354404e+02
518             	3.10353291e+02
519             	3.10352412e+02
520             	3.10352076e+02
521             	3.10352477e+02
522             	3.10353646e+02
523             	3.10355256e+02
524             	3.10355463e+02
525             	3.10356235e+02
526             	3.10357391e+02
527             	3.10358306e+02
528             	3.10358772e+02
529             	3.10358711e+02
530             	3.10358181e+02
531             	3.10357142e+02
532             	3.10355580e+02
533             	3.10353528e+02
534             	3.10351369e+02
535             	3.10349809e+02
536             	3.10349043e+02
537             	3.10348637e+02
538             	3.10348334e+02
539             	3.10348362e+02
540             	3.10348828e+02
541             	3.10349721e+02
542             	3.10351009e+02
543             	3.10352547e+02
544             	3.10354245e+02
545             	3.10355926e+02
546             	3.10357503e+02
547             	3.10358971e+02
548             	3.10359923e+02
549             	3.10360874e+02
550             	3.10361804e+02
551             	3.10362021e+02
552             	3.10361773e+02
553             	3.10361104e+02
554             	3.10359723e+02
555             	3.10357972e+02
556             	3.10355797e+02
557             	3.10353147e+02
558             	3.10350499e+02
559             	3.10348284e+02
560             	3.10346540e+02
561             	3.10345220e+02
562             	3.10344534e+02
563             	3.10344551e+02
564             	3.10345287e+02
565             	3.10346417e+02
566             	3.10347226e+02
567             	3.10348663e+02
568             	3.10349966e+02
569             	3.10351608e+02
570             	3.10352737e+02
571             	3.10353869e+02
572             	3.10354693e+02
573             	3.10354790e+02
574             	3.10354140e+02
575             	3.10353038e+02
576             	3.10351706e+02
577             	3.10350177e+02
578             	3.10348444e+02
579             	3.10346553e+02
580             	3.10344630e+02
581             	3.10343326e+02
582             	3.10343098e+02
583             	3.10343015e+02
584             	3.10343010e+02
585             	3.10343014e+02
586             	3.10343657e+02
587             	3.10344733e+02
588             	3.10346071e+02
589             	3.10347532e+02
590             	3.10348906e+02
591             	3.10350282e+02
592             	3.10351494e+02
593             	3.10351776e+02
594             	3.10352557e+02
595             	3.10353473e+02
596             	3.10354011e+02
597             	3.10353964e+02
598             	3.10353241e+02
599             	3.10352103e+02
600             	3.10350706e+02
601             	3.10349852e+02
602             	3.10349341e+02
603             	3.10349435e+02
604             	3.10349569e+02
605             	3.10349915e+02
606             	3.10350796e+02
607             	3.10352379e+02
608             	3.10354003e+02
609             	3.10355729e+02
610             	3.10356614e+02
611             	3.10358032e+02
612             	3.10359162e+02
613             	3.10359405e+02
614             	3.10359023e+02
615             	3.10357784e+02
616             	3.10356059e+02
617             	3.10354701e+02
618             	3.10353571e+02
619             	3.10352268e+02
620             	3.10351363e+02
621             	3.10350882e+02
