# Region        : cellZone component_1
# Cells         : 8
# Volume        : 1.50610326e-02
# Time          	volAverage(T)
1               	3.09401194e+02
2               	3.18529093e+02
3               	3.24693004e+02
4               	3.29521065e+02
5               	3.34405053e+02
6               	3.39510860e+02
7               	3.44688707e+02
8               	3.49852338e+02
9               	3.55079411e+02
10              	3.60254422e+02
11              	3.65356280e+02
12              	3.70071477e+02
13              	3.74711213e+02
14              	3.79035719e+02
15              	3.83016622e+02
16              	3.86797612e+02
17              	3.90333424e+02
18              	3.93848925e+02
19              	3.96921400e+02
20              	3.99852654e+02
21              	4.02731345e+02
22              	4.05506613e+02
23              	4.08237080e+02
24              	4.10724961e+02
25              	4.13084143e+02
26              	4.14691745e+02
27              	4.16286018e+02
28              	4.17510955e+02
29              	4.18754775e+02
30              	4.20043870e+02
31              	4.21483777e+02
32              	4.23020186e+02
33              	4.24488937e+02
34              	4.25835460e+02
35              	4.27186113e+02
36              	4.28468758e+02
37              	4.29663263e+02
38              	4.30886752e+02
39              	4.32170291e+02
40              	4.33499177e+02
41              	4.34926957e+02
42              	4.36360836e+02
43              	4.37191527e+02
44              	4.38096305e+02
45              	4.39143683e+02
46              	4.40113367e+02
47              	4.40962945e+02
48              	4.41508307e+02
49              	4.42144294e+02
50              	4.42828016e+02
51              	4.43394065e+02
52              	4.43837648e+02
53              	4.44424413e+02
54              	4.45082538e+02
55              	4.45421823e+02
56              	4.46025711e+02
57              	4.46269797e+02
58              	4.46799963e+02
59              	4.47260945e+02
60              	4.47888839e+02
61              	4.48247424e+02
62              	4.48495779e+02
63              	4.48709013e+02
64              	4.48940955e+02
65              	4.49112819e+02
66              	4.49335452e+02
67              	4.49378048e+02
68              	4.49683477e+02
69              	4.50102432e+02
70              	4.49929135e+02
71              	4.50060022e+02
72              	4.49513571e+02
73              	4.49287239e+02
74              	4.48387146e+02
75              	4.47645287e+02
76              	4.47084123e+02
77              	4.46589241e+02
78              	4.46072990e+02
79              	4.45677592e+02
80              	4.45355812e+02
81              	4.45047627e+02
82              	4.44203789e+02
83              	4.43642944e+02
84              	4.42727989e+02
85              	4.42184372e+02
86              	4.41212252e+02
87              	4.40601080e+02
88              	4.40195378e+02
89              	4.39512895e+02
90              	4.38882380e+02
91              	4.38423203e+02
92              	4.38018761e+02
93              	4.37586182e+02
94              	4.37263716e+02
95              	4.37121303e+02
96              	4.36319843e+02
97              	4.35845748e+02
98              	4.35056818e+02
99              	4.34567462e+02
100             	4.33773764e+02
101             	4.33292726e+02
102             	4.33010544e+02
103             	4.32907665e+02
104             	4.32666197e+02
105             	4.32300411e+02
106             	4.31955592e+02
107             	4.31184554e+02
108             	4.30724154e+02
109             	4.30568994e+02
110             	4.29851431e+02
111             	4.29417937e+02
112             	4.28637588e+02
113             	4.28149755e+02
114             	4.27882242e+02
115             	4.27613098e+02
116             	4.27254748e+02
117             	4.26849604e+02
118             	4.26495488e+02
119             	4.26232320e+02
120             	4.25600952e+02
121             	4.25249543e+02
122             	4.25085466e+02
123             	4.24413246e+02
124             	4.24021422e+02
125             	4.23880962e+02
126             	4.23711838e+02
127             	4.23686532e+02
128             	4.23060846e+02
129             	4.22636748e+02
130             	4.22407756e+02
131             	4.21749505e+02
132             	4.21350834e+02
133             	4.21129936e+02
134             	4.20541627e+02
135             	4.20228956e+02
136             	4.20105965e+02
137             	4.20162044e+02
138             	4.19716124e+02
139             	4.19494927e+02
140             	4.19565483e+02
141             	4.19159094e+02
142             	4.18978412e+02
143             	4.18990231e+02
144             	4.18510773e+02
145             	4.18279914e+02
146             	4.18324412e+02
147             	4.17770147e+02
148             	4.17457595e+02
149             	4.16920321e+02
150             	4.16663577e+02
151             	4.16562508e+02
152             	4.16441616e+02
153             	4.16443560e+02
154             	4.16472291e+02
155             	4.16440186e+02
156             	4.16415526e+02
157             	4.16445159e+02
158             	4.15997633e+02
159             	4.15805441e+02
160             	4.15842078e+02
161             	4.15394116e+02
162             	4.15209774e+02
163             	4.15320311e+02
164             	4.14908860e+02
165             	4.14763994e+02
166             	4.14901475e+02
167             	4.14544062e+02
168             	4.14424358e+02
169             	4.14478588e+02
170             	4.14626837e+02
171             	4.14252195e+02
172             	4.14092744e+02
173             	4.14099270e+02
174             	4.13643800e+02
175             	4.13414689e+02
176             	4.13376696e+02
177             	4.13395019e+02
178             	4.12980412e+02
179             	4.12814128e+02
180             	4.12817239e+02
181             	4.12988021e+02
182             	4.12601723e+02
183             	4.12428314e+02
184             	4.12467246e+02
185             	4.12617845e+02
186             	4.12288253e+02
187             	4.12188321e+02
188             	4.12312958e+02
189             	4.11980339e+02
190             	4.11888614e+02
191             	4.12022339e+02
192             	4.11656849e+02
193             	4.11522646e+02
194             	4.11575696e+02
195             	4.11660529e+02
196             	4.11800904e+02
197             	4.11423182e+02
198             	4.11273054e+02
199             	4.11303401e+02
200             	4.10957501e+02
201             	4.10854929e+02
202             	4.10931758e+02
203             	4.11161757e+02
204             	4.10816523e+02
205             	4.10708052e+02
206             	4.10811922e+02
207             	4.10507375e+02
208             	4.10429507e+02
209             	4.10543584e+02
210             	4.10198533e+02
211             	4.10082061e+02
212             	4.10159897e+02
213             	4.09844297e+02
214             	4.09747358e+02
215             	4.09827788e+02
216             	4.09935597e+02
217             	4.10084493e+02
218             	4.09713707e+02
219             	4.09573975e+02
220             	4.09609739e+02
221             	4.09738352e+02
222             	4.09950036e+02
223             	4.09585519e+02
224             	4.09463628e+02
225             	4.09561184e+02
226             	4.09245437e+02
227             	4.09165680e+02
228             	4.09306574e+02
229             	4.09002248e+02
230             	4.08919789e+02
231             	4.09027033e+02
232             	4.08748650e+02
233             	4.08692137e+02
234             	4.08809273e+02
235             	4.09077485e+02
236             	4.08775820e+02
237             	4.08698583e+02
238             	4.08820148e+02
239             	4.08557339e+02
240             	4.08524432e+02
241             	4.08676857e+02
242             	4.08428893e+02
243             	4.08399389e+02
244             	4.08549895e+02
245             	4.08294594e+02
246             	4.08255508e+02
247             	4.08383348e+02
248             	4.08642701e+02
249             	4.08322424e+02
250             	4.08213012e+02
251             	4.08284477e+02
252             	4.08496706e+02
253             	4.08178247e+02
254             	4.08080965e+02
255             	4.08176104e+02
256             	4.08356343e+02
257             	4.08067592e+02
258             	4.08010317e+02
259             	4.08131058e+02
260             	4.08337594e+02
261             	4.08073182e+02
262             	4.08033975e+02
263             	4.08170732e+02
264             	4.07919679e+02
265             	4.07894525e+02
266             	4.08055799e+02
267             	4.07776952e+02
268             	4.07721829e+02
269             	4.07851834e+02
270             	4.07593688e+02
271             	4.07560610e+02
272             	4.07702319e+02
273             	4.07981822e+02
274             	4.07689206e+02
275             	4.07608564e+02
276             	4.07713058e+02
277             	4.07892020e+02
278             	4.07617294e+02
279             	4.07566909e+02
280             	4.07695332e+02
281             	4.07950625e+02
282             	4.07676509e+02
283             	4.07629796e+02
284             	4.07782773e+02
285             	4.07557645e+02
286             	4.07560913e+02
287             	4.07751620e+02
288             	4.07532311e+02
289             	4.07533265e+02
290             	4.07715788e+02
291             	4.07486614e+02
292             	4.07473213e+02
293             	4.07637803e+02
294             	4.07392251e+02
295             	4.07364693e+02
296             	4.07512003e+02
297             	4.07794519e+02
298             	4.07496786e+02
299             	4.07418100e+02
300             	4.07526304e+02
301             	4.07777496e+02
302             	4.07493195e+02
303             	4.07430453e+02
304             	4.07557538e+02
305             	4.07787163e+02
306             	4.07512432e+02
307             	4.07463551e+02
308             	4.07603806e+02
309             	4.07899760e+02
310             	4.07617014e+02
311             	4.07555118e+02
312             	4.07690502e+02
313             	4.07436592e+02
314             	4.07408778e+02
315             	4.07557236e+02
316             	4.07843081e+02
317             	4.07546451e+02
318             	4.07465692e+02
319             	4.07572241e+02
320             	4.07804877e+02
321             	4.07499895e+02
322             	4.07410026e+02
323             	4.07501907e+02
324             	4.07718114e+02
325             	4.07403268e+02
326             	4.07311537e+02
327             	4.07409347e+02
328             	4.07650749e+02
329             	4.07344543e+02
330             	4.07259579e+02
331             	4.07353242e+02
332             	4.07582583e+02
333             	4.07298637e+02
334             	4.07231713e+02
335             	4.07344751e+02
336             	4.07583305e+02
337             	4.07286241e+02
338             	4.07210954e+02
339             	4.07330454e+02
340             	4.07073534e+02
341             	4.07042560e+02
342             	4.07193836e+02
343             	4.07485771e+02
344             	4.07200499e+02
345             	4.07136234e+02
346             	4.07269228e+02
347             	4.07548450e+02
348             	4.07269253e+02
349             	4.07207647e+02
350             	4.07337280e+02
351             	4.07626069e+02
352             	4.07336450e+02
353             	4.07264909e+02
354             	4.07388435e+02
355             	4.07659018e+02
356             	4.07370607e+02
357             	4.07301225e+02
358             	4.07419304e+02
359             	4.07667744e+02
360             	4.07388305e+02
361             	4.07326776e+02
362             	4.07311985e+02
363             	4.07304039e+02
364             	4.07422368e+02
365             	4.07678636e+02
366             	4.07383402e+02
367             	4.07307547e+02
368             	4.07429105e+02
369             	4.07697888e+02
370             	4.07388295e+02
371             	4.07300068e+02
372             	4.07405766e+02
373             	4.07659725e+02
374             	4.07359931e+02
375             	4.07282391e+02
376             	4.07400877e+02
377             	4.07666153e+02
378             	4.07384347e+02
379             	4.07322549e+02
380             	4.07452206e+02
381             	4.07715729e+02
382             	4.07438761e+02
383             	4.07383146e+02
384             	4.07521148e+02
385             	4.07808167e+02
386             	4.07515804e+02
387             	4.07442005e+02
388             	4.07562189e+02
389             	4.07838445e+02
390             	4.07532357e+02
391             	4.07441194e+02
392             	4.07545249e+02
393             	4.07270013e+02
394             	4.07214603e+02
395             	4.07331376e+02
396             	4.07551155e+02
397             	4.07263707e+02
398             	4.07196774e+02
399             	4.07314237e+02
400             	4.07549885e+02
401             	4.07276232e+02
402             	4.07222572e+02
403             	4.07354643e+02
404             	4.07611607e+02
405             	4.07352016e+02
406             	4.07314613e+02
407             	4.07465292e+02
408             	4.07771239e+02
409             	4.07498235e+02
410             	4.07443930e+02
411             	4.07594211e+02
412             	4.07344080e+02
413             	4.07316645e+02
414             	4.07469854e+02
415             	4.07764055e+02
416             	4.07478192e+02
417             	4.07408452e+02
418             	4.07515427e+02
419             	4.07729030e+02
420             	4.07454217e+02
421             	4.07396605e+02
422             	4.07517587e+02
423             	4.07634915e+02
424             	4.07361992e+02
425             	4.07091718e+02
426             	4.06870677e+02
427             	4.06684606e+02
428             	4.06519833e+02
429             	4.06370298e+02
430             	4.06233551e+02
431             	4.06108382e+02
432             	4.05993806e+02
433             	4.05889973e+02
434             	4.06150859e+02
435             	4.06545566e+02
436             	4.06393533e+02
437             	4.06436156e+02
438             	4.06653756e+02
439             	4.07018123e+02
440             	4.06807910e+02
441             	4.06808226e+02
442             	4.06997992e+02
443             	4.07338912e+02
444             	4.07100928e+02
445             	4.07076939e+02
446             	4.07245246e+02
447             	4.07566461e+02
448             	4.07310209e+02
449             	4.07269115e+02
450             	4.07419629e+02
451             	4.07724422e+02
452             	4.07457622e+02
453             	4.07406616e+02
454             	4.07545646e+02
455             	4.07829450e+02
456             	4.07555587e+02
457             	4.07498384e+02
458             	4.07630072e+02
459             	4.07905733e+02
460             	4.07623428e+02
461             	4.07557661e+02
462             	4.07681787e+02
463             	4.07954698e+02
464             	4.07662026e+02
465             	4.07586400e+02
466             	4.07701647e+02
467             	4.07960634e+02
468             	4.07666517e+02
469             	4.07590705e+02
470             	4.07703918e+02
471             	4.07927126e+02
472             	4.07644285e+02
473             	4.07582910e+02
474             	4.07706954e+02
475             	4.07967324e+02
476             	4.07683691e+02
477             	4.07620629e+02
478             	4.07762733e+02
479             	4.08041184e+02
480             	4.07739114e+02
481             	4.07422828e+02
482             	4.07549360e+02
483             	4.07851714e+02
484             	4.07600286e+02
485             	4.07551978e+02
486             	4.07680574e+02
487             	4.07926184e+02
488             	4.07649073e+02
489             	4.07591341e+02
490             	4.07719886e+02
491             	4.07982664e+02
492             	4.07700959e+02
493             	4.07639453e+02
494             	4.07768459e+02
495             	4.08047727e+02
496             	4.07764875e+02
497             	4.07700195e+02
498             	4.07829397e+02
499             	4.08111030e+02
500             	4.07814357e+02
501             	4.07736032e+02
502             	4.07847933e+02
503             	4.08090936e+02
504             	4.07805759e+02
505             	4.07738636e+02
506             	4.07856327e+02
507             	4.08108091e+02
508             	4.07817780e+02
509             	4.07746011e+02
510             	4.07863487e+02
511             	4.08128249e+02
512             	4.07839159e+02
513             	4.07770360e+02
514             	4.07895323e+02
515             	4.08176751e+02
516             	4.07883061e+02
517             	4.07808257e+02
518             	4.07927345e+02
519             	4.08184233e+02
520             	4.07895514e+02
521             	4.07824902e+02
522             	4.07941054e+02
523             	4.08200442e+02
524             	4.07906968e+02
525             	4.07831758e+02
526             	4.07945534e+02
527             	4.08199640e+02
528             	4.07909017e+02
529             	4.07838318e+02
530             	4.07955017e+02
531             	4.08215065e+02
532             	4.07933933e+02
533             	4.07870953e+02
534             	4.07999832e+02
535             	4.08282454e+02
536             	4.07984189e+02
537             	4.07905410e+02
538             	4.08022394e+02
539             	4.08301484e+02
540             	4.08006336e+02
541             	4.07928910e+02
542             	4.08036848e+02
543             	4.08286670e+02
544             	4.08002431e+02
545             	4.07935708e+02
546             	4.08056514e+02
547             	4.08335155e+02
548             	4.08027444e+02
549             	4.07704306e+02
550             	4.07444419e+02
551             	4.07229077e+02
552             	4.07040259e+02
553             	4.06870195e+02
554             	4.06715003e+02
555             	4.06571997e+02
556             	4.06440320e+02
557             	4.06319006e+02
558             	4.06207258e+02
559             	4.06104339e+02
560             	4.06009792e+02
561             	4.05923084e+02
562             	4.05843275e+02
563             	4.05770072e+02
564             	4.05702726e+02
565             	4.05641730e+02
566             	4.05585290e+02
567             	4.05533140e+02
568             	4.05485268e+02
569             	4.05441184e+02
570             	4.05400487e+02
571             	4.05362843e+02
572             	4.05328022e+02
573             	4.05295929e+02
574             	4.05266294e+02
575             	4.05238973e+02
576             	4.05213549e+02
577             	4.05190155e+02
578             	4.05168511e+02
579             	4.05148529e+02
580             	4.05129994e+02
581             	4.05112803e+02
582             	4.05096914e+02
583             	4.05082243e+02
584             	4.05068633e+02
585             	4.05056231e+02
586             	4.05044668e+02
587             	4.05033994e+02
588             	4.05024117e+02
589             	4.05014956e+02
590             	4.05006685e+02
591             	4.04999178e+02
592             	4.04992118e+02
593             	4.04985292e+02
594             	4.04978664e+02
595             	4.04972619e+02
596             	4.04966991e+02
597             	4.04961794e+02
598             	4.04956963e+02
599             	4.04952234e+02
600             	4.04947877e+02
601             	4.04943919e+02
602             	4.04940288e+02
603             	4.04936914e+02
604             	4.04933853e+02
605             	4.04931023e+02
606             	4.04928406e+02
607             	4.04926008e+02
608             	4.04923820e+02
609             	4.04921795e+02
610             	4.04919946e+02
611             	4.04917941e+02
612             	4.04916006e+02
613             	4.04914099e+02
614             	4.04912163e+02
615             	4.04910160e+02
616             	4.04908199e+02
617             	4.04906727e+02
618             	4.04905311e+02
619             	4.04904038e+02
620             	4.04903268e+02
621             	4.04902700e+02
