# Region        : cellZone component_2
# Cells         : 120
# Volume        : 2.37529762e-01
# Time          	volAverage(T)
1               	3.00922921e+02
2               	3.01838367e+02
3               	3.02713660e+02
4               	3.03568798e+02
5               	3.04412653e+02
6               	3.05247695e+02
7               	3.06075187e+02
8               	3.06898861e+02
9               	3.07720702e+02
10              	3.08540392e+02
11              	3.09355473e+02
12              	3.10169166e+02
13              	3.10980341e+02
14              	3.11789577e+02
15              	3.12593224e+02
16              	3.13398235e+02
17              	3.14194560e+02
18              	3.14982115e+02
19              	3.15762126e+02
20              	3.16536068e+02
21              	3.17304424e+02
22              	3.18067014e+02
23              	3.18827180e+02
24              	3.19585114e+02
25              	3.20339700e+02
26              	3.21091081e+02
27              	3.21838071e+02
28              	3.22582715e+02
29              	3.23325357e+02
30              	3.24064510e+02
31              	3.24798605e+02
32              	3.25528165e+02
33              	3.26256269e+02
34              	3.26982551e+02
35              	3.27701928e+02
36              	3.28404881e+02
37              	3.29102187e+02
38              	3.29787770e+02
39              	3.30468196e+02
40              	3.31141922e+02
41              	3.31809760e+02
42              	3.32473751e+02
43              	3.33133615e+02
44              	3.33783018e+02
45              	3.34430163e+02
46              	3.35074322e+02
47              	3.35714215e+02
48              	3.36353158e+02
49              	3.36992343e+02
50              	3.37630342e+02
51              	3.38258116e+02
52              	3.38885846e+02
53              	3.39513038e+02
54              	3.40139962e+02
55              	3.40765389e+02
56              	3.41384660e+02
57              	3.41988790e+02
58              	3.42581236e+02
59              	3.43166525e+02
60              	3.43751137e+02
61              	3.44334966e+02
62              	3.44915048e+02
63              	3.45488458e+02
64              	3.46051095e+02
65              	3.46610403e+02
66              	3.47169275e+02
67              	3.47731174e+02
68              	3.48300070e+02
69              	3.48867578e+02
70              	3.49429695e+02
71              	3.49991891e+02
72              	3.50546362e+02
73              	3.51087670e+02
74              	3.51616821e+02
75              	3.52139049e+02
76              	3.52655154e+02
77              	3.53165600e+02
78              	3.53674238e+02
79              	3.54180810e+02
80              	3.54683743e+02
81              	3.55186625e+02
82              	3.55690997e+02
83              	3.56192228e+02
84              	3.56690050e+02
85              	3.57180405e+02
86              	3.57675242e+02
87              	3.58163465e+02
88              	3.58653911e+02
89              	3.59143006e+02
90              	3.59620726e+02
91              	3.60095963e+02
92              	3.60559925e+02
93              	3.61023737e+02
94              	3.61483391e+02
95              	3.61941261e+02
96              	3.62395740e+02
97              	3.62849069e+02
98              	3.63298972e+02
99              	3.63750060e+02
100             	3.64198997e+02
101             	3.64646090e+02
102             	3.65091692e+02
103             	3.65535701e+02
104             	3.65977939e+02
105             	3.66414509e+02
106             	3.66847246e+02
107             	3.67276353e+02
108             	3.67701702e+02
109             	3.68123757e+02
110             	3.68542945e+02
111             	3.68958511e+02
112             	3.69369218e+02
113             	3.69771007e+02
114             	3.70173236e+02
115             	3.70568841e+02
116             	3.70957640e+02
117             	3.71346300e+02
118             	3.71732551e+02
119             	3.72110992e+02
120             	3.72485177e+02
121             	3.72855121e+02
122             	3.73222332e+02
123             	3.73588967e+02
124             	3.73955630e+02
125             	3.74317208e+02
126             	3.74679555e+02
127             	3.75041598e+02
128             	3.75400255e+02
129             	3.75760326e+02
130             	3.76112212e+02
131             	3.76463464e+02
132             	3.76811339e+02
133             	3.77158923e+02
134             	3.77505877e+02
135             	3.77851020e+02
136             	3.78192736e+02
137             	3.78530352e+02
138             	3.78867001e+02
139             	3.79202217e+02
140             	3.79530570e+02
141             	3.79855826e+02
142             	3.80179747e+02
143             	3.80499182e+02
144             	3.80813821e+02
145             	3.81123605e+02
146             	3.81427897e+02
147             	3.81728415e+02
148             	3.82026776e+02
149             	3.82325986e+02
150             	3.82624465e+02
151             	3.82919009e+02
152             	3.83212014e+02
153             	3.83504179e+02
154             	3.83796119e+02
155             	3.84087375e+02
156             	3.84376151e+02
157             	3.84663522e+02
158             	3.84946345e+02
159             	3.85225755e+02
160             	3.85501296e+02
161             	3.85771688e+02
162             	3.86037799e+02
163             	3.86300930e+02
164             	3.86565907e+02
165             	3.86833289e+02
166             	3.87099160e+02
167             	3.87365998e+02
168             	3.87629469e+02
169             	3.87894343e+02
170             	3.88155196e+02
171             	3.88416960e+02
172             	3.88676621e+02
173             	3.88934336e+02
174             	3.89189629e+02
175             	3.89441058e+02
176             	3.89686992e+02
177             	3.89930447e+02
178             	3.90169774e+02
179             	3.90405238e+02
180             	3.90638536e+02
181             	3.90869991e+02
182             	3.91099362e+02
183             	3.91325885e+02
184             	3.91550463e+02
185             	3.91773033e+02
186             	3.91993554e+02
187             	3.92212109e+02
188             	3.92428816e+02
189             	3.92644073e+02
190             	3.92857535e+02
191             	3.93070501e+02
192             	3.93281914e+02
193             	3.93489824e+02
194             	3.93694674e+02
195             	3.93897981e+02
196             	3.94099338e+02
197             	3.94296977e+02
198             	3.94493288e+02
199             	3.94687208e+02
200             	3.94878595e+02
201             	3.95067631e+02
202             	3.95255128e+02
203             	3.95444394e+02
204             	3.95632174e+02
205             	3.95817776e+02
206             	3.96002395e+02
207             	3.96186823e+02
208             	3.96371713e+02
209             	3.96557087e+02
210             	3.96742886e+02
211             	3.96928080e+02
212             	3.97112218e+02
213             	3.97295334e+02
214             	3.97477087e+02
215             	3.97656902e+02
216             	3.97833040e+02
217             	3.98004334e+02
218             	3.98172034e+02
219             	3.98335963e+02
220             	3.98497247e+02
221             	3.98661161e+02
222             	3.98821183e+02
223             	3.98979208e+02
224             	3.99136375e+02
225             	3.99293729e+02
226             	3.99454589e+02
227             	3.99616464e+02
228             	3.99776497e+02
229             	3.99936438e+02
230             	4.00091586e+02
231             	4.00247305e+02
232             	4.00400098e+02
233             	4.00548670e+02
234             	4.00694631e+02
235             	4.00839681e+02
236             	4.00982818e+02
237             	4.01125213e+02
238             	4.01267336e+02
239             	4.01409505e+02
240             	4.01550743e+02
241             	4.01689971e+02
242             	4.01828457e+02
243             	4.01964741e+02
244             	4.02098421e+02
245             	4.02230058e+02
246             	4.02363308e+02
247             	4.02496232e+02
248             	4.02625895e+02
249             	4.02754388e+02
250             	4.02882884e+02
251             	4.03012640e+02
252             	4.03141959e+02
253             	4.03271308e+02
254             	4.03403242e+02
255             	4.03535631e+02
256             	4.03668079e+02
257             	4.03800039e+02
258             	4.03931084e+02
259             	4.04059745e+02
260             	4.04188319e+02
261             	4.04315662e+02
262             	4.04439081e+02
263             	4.04557839e+02
264             	4.04673576e+02
265             	4.04789380e+02
266             	4.04903577e+02
267             	4.05020382e+02
268             	4.05133777e+02
269             	4.05246428e+02
270             	4.05359657e+02
271             	4.05474763e+02
272             	4.05592296e+02
273             	4.05707650e+02
274             	4.05823608e+02
275             	4.05939403e+02
276             	4.06054790e+02
277             	4.06169373e+02
278             	4.06283122e+02
279             	4.06396400e+02
280             	4.06508696e+02
281             	4.06620134e+02
282             	4.06726719e+02
283             	4.06833993e+02
284             	4.06939961e+02
285             	4.07044725e+02
286             	4.07148886e+02
287             	4.07253745e+02
288             	4.07360206e+02
289             	4.07467372e+02
290             	4.07574743e+02
291             	4.07678899e+02
292             	4.07778649e+02
293             	4.07878600e+02
294             	4.07976384e+02
295             	4.08071390e+02
296             	4.08166990e+02
297             	4.08259348e+02
298             	4.08349687e+02
299             	4.08440999e+02
300             	4.08530245e+02
301             	4.08619723e+02
302             	4.08710042e+02
303             	4.08798047e+02
304             	4.08885116e+02
305             	4.08971785e+02
306             	4.09058339e+02
307             	4.09145277e+02
308             	4.09234543e+02
309             	4.09320284e+02
310             	4.09409639e+02
311             	4.09501121e+02
312             	4.09594244e+02
313             	4.09682000e+02
314             	4.09767363e+02
315             	4.09856319e+02
316             	4.09939739e+02
317             	4.10019243e+02
318             	4.10096145e+02
319             	4.10171830e+02
320             	4.10248860e+02
321             	4.10328284e+02
322             	4.10406560e+02
323             	4.10488690e+02
324             	4.10573943e+02
325             	4.10661856e+02
326             	4.10746500e+02
327             	4.10826752e+02
328             	4.10901754e+02
329             	4.10980213e+02
330             	4.11058722e+02
331             	4.11135022e+02
332             	4.11210679e+02
333             	4.11282610e+02
334             	4.11349410e+02
335             	4.11414941e+02
336             	4.11483905e+02
337             	4.11556472e+02
338             	4.11628136e+02
339             	4.11702863e+02
340             	4.11774810e+02
341             	4.11846245e+02
342             	4.11921801e+02
343             	4.12001149e+02
344             	4.12081684e+02
345             	4.12156508e+02
346             	4.12232149e+02
347             	4.12303366e+02
348             	4.12370342e+02
349             	4.12437166e+02
350             	4.12506406e+02
351             	4.12577683e+02
352             	4.12642650e+02
353             	4.12706425e+02
354             	4.12773082e+02
355             	4.12837540e+02
356             	4.12905538e+02
357             	4.12975585e+02
358             	4.13047252e+02
359             	4.13114603e+02
360             	4.13178747e+02
361             	4.13235492e+02
362             	4.13295296e+02
363             	4.13358360e+02
364             	4.13423523e+02
365             	4.13490797e+02
366             	4.13558915e+02
367             	4.13628129e+02
368             	4.13694760e+02
369             	4.13760382e+02
370             	4.13819758e+02
371             	4.13881499e+02
372             	4.13938577e+02
373             	4.13998678e+02
374             	4.14055148e+02
375             	4.14108979e+02
376             	4.14164009e+02
377             	4.14224638e+02
378             	4.14287771e+02
379             	4.14345695e+02
380             	4.14399143e+02
381             	4.14455043e+02
382             	4.14515489e+02
383             	4.14567766e+02
384             	4.14620281e+02
385             	4.14674192e+02
386             	4.14726887e+02
387             	4.14781189e+02
388             	4.14836517e+02
389             	4.14897328e+02
390             	4.14958950e+02
391             	4.15019922e+02
392             	4.15077781e+02
393             	4.15134216e+02
394             	4.15191342e+02
395             	4.15243760e+02
396             	4.15292442e+02
397             	4.15339294e+02
398             	4.15387273e+02
399             	4.15438406e+02
400             	4.15491718e+02
401             	4.15546769e+02
402             	4.15600648e+02
403             	4.15657488e+02
404             	4.15715205e+02
405             	4.15769087e+02
406             	4.15821438e+02
407             	4.15870849e+02
408             	4.15919272e+02
409             	4.15964422e+02
410             	4.16010872e+02
411             	4.16056921e+02
412             	4.16103606e+02
413             	4.16152655e+02
414             	4.16202404e+02
415             	4.16257029e+02
416             	4.16314508e+02
417             	4.16368780e+02
418             	4.16418591e+02
419             	4.16464832e+02
420             	4.16509304e+02
421             	4.16550304e+02
422             	4.16590131e+02
423             	4.16631151e+02
424             	4.16673324e+02
425             	4.16716960e+02
426             	4.16758581e+02
427             	4.16801241e+02
428             	4.16849345e+02
429             	4.16895352e+02
430             	4.16942715e+02
431             	4.16988554e+02
432             	4.17032955e+02
433             	4.17074892e+02
434             	4.17116298e+02
435             	4.17160741e+02
436             	4.17207441e+02
437             	4.17255747e+02
438             	4.17303711e+02
439             	4.17355641e+02
440             	4.17409132e+02
441             	4.17464003e+02
442             	4.17517992e+02
443             	4.17568352e+02
444             	4.17619362e+02
445             	4.17669954e+02
446             	4.17715936e+02
447             	4.17763155e+02
448             	4.17804672e+02
449             	4.17842556e+02
450             	4.17878125e+02
451             	4.17912395e+02
452             	4.17949930e+02
453             	4.17990000e+02
454             	4.18027989e+02
455             	4.18067145e+02
456             	4.18107615e+02
457             	4.18147901e+02
458             	4.18192372e+02
459             	4.18238189e+02
460             	4.18284315e+02
461             	4.18329212e+02
462             	4.18370920e+02
463             	4.18409305e+02
464             	4.18445538e+02
465             	4.18480981e+02
466             	4.18517091e+02
467             	4.18555378e+02
468             	4.18596394e+02
469             	4.18639222e+02
470             	4.18685409e+02
471             	4.18733558e+02
472             	4.18779708e+02
473             	4.18827876e+02
474             	4.18872927e+02
475             	4.18919509e+02
476             	4.18965480e+02
477             	4.19008323e+02
478             	4.19046679e+02
479             	4.19084163e+02
480             	4.19122973e+02
481             	4.19159543e+02
482             	4.19195251e+02
483             	4.19231238e+02
484             	4.19268766e+02
485             	4.19307657e+02
486             	4.19347991e+02
487             	4.19390819e+02
488             	4.19435250e+02
489             	4.19480327e+02
490             	4.19524770e+02
491             	4.19568711e+02
492             	4.19613316e+02
493             	4.19658024e+02
494             	4.19702106e+02
495             	4.19744701e+02
496             	4.19784937e+02
497             	4.19823404e+02
498             	4.19860471e+02
499             	4.19895916e+02
500             	4.19930158e+02
501             	4.19963477e+02
502             	4.19995650e+02
503             	4.20026303e+02
504             	4.20059595e+02
505             	4.20091103e+02
506             	4.20121538e+02
507             	4.20151702e+02
508             	4.20181874e+02
509             	4.20212310e+02
510             	4.20243016e+02
511             	4.20274062e+02
512             	4.20306062e+02
513             	4.20339731e+02
514             	4.20378563e+02
515             	4.20419273e+02
516             	4.20461417e+02
517             	4.20504212e+02
518             	4.20547297e+02
519             	4.20587482e+02
520             	4.20629430e+02
521             	4.20671761e+02
522             	4.20712866e+02
523             	4.20750807e+02
524             	4.20784752e+02
525             	4.20818266e+02
526             	4.20851525e+02
527             	4.20881945e+02
528             	4.20911137e+02
529             	4.20940104e+02
530             	4.20968840e+02
531             	4.20997512e+02
532             	4.21026223e+02
533             	4.21055155e+02
534             	4.21084148e+02
535             	4.21113124e+02
536             	4.21142064e+02
537             	4.21171075e+02
538             	4.21200345e+02
539             	4.21229895e+02
540             	4.21260048e+02
541             	4.21291319e+02
542             	4.21324379e+02
543             	4.21359034e+02
544             	4.21395016e+02
545             	4.21432175e+02
546             	4.21470200e+02
547             	4.21508831e+02
548             	4.21546004e+02
549             	4.21583977e+02
550             	4.21622343e+02
551             	4.21660719e+02
552             	4.21698830e+02
553             	4.21736430e+02
554             	4.21773330e+02
555             	4.21809236e+02
556             	4.21843817e+02
557             	4.21876897e+02
558             	4.21908411e+02
559             	4.21938303e+02
560             	4.21966614e+02
561             	4.21993390e+02
562             	4.22019044e+02
563             	4.22043686e+02
564             	4.22068131e+02
565             	4.22092672e+02
566             	4.22117150e+02
567             	4.22141450e+02
568             	4.22166272e+02
569             	4.22192070e+02
570             	4.22219417e+02
571             	4.22249421e+02
572             	4.22282790e+02
573             	4.22318208e+02
574             	4.22354994e+02
575             	4.22392726e+02
576             	4.22431016e+02
577             	4.22466007e+02
578             	4.22499920e+02
579             	4.22536449e+02
580             	4.22573922e+02
581             	4.22610861e+02
582             	4.22646471e+02
583             	4.22679953e+02
584             	4.22711933e+02
585             	4.22742787e+02
586             	4.22772322e+02
587             	4.22799891e+02
588             	4.22825537e+02
589             	4.22852483e+02
590             	4.22878027e+02
591             	4.22902364e+02
592             	4.22926662e+02
593             	4.22950191e+02
594             	4.22973341e+02
595             	4.22996547e+02
596             	4.23020059e+02
597             	4.23044119e+02
598             	4.23068690e+02
599             	4.23093790e+02
600             	4.23119675e+02
601             	4.23146666e+02
602             	4.23175133e+02
603             	4.23205077e+02
604             	4.23236094e+02
605             	4.23267662e+02
606             	4.23299423e+02
607             	4.23331063e+02
608             	4.23362152e+02
609             	4.23392128e+02
610             	4.23420465e+02
611             	4.23447099e+02
612             	4.23472646e+02
613             	4.23497742e+02
614             	4.23522876e+02
615             	4.23547818e+02
616             	4.23573299e+02
617             	4.23599856e+02
618             	4.23629120e+02
619             	4.23661216e+02
620             	4.23695376e+02
621             	4.23730153e+02
