# Region        : cellZone component_1
# Cells         : 84
# Volume        : 1.30553511e-01
# Time          	volAverage(T)
1               	3.06760808e+02
2               	3.13360709e+02
3               	3.18486702e+02
4               	3.22923787e+02
5               	3.27461259e+02
6               	3.32158998e+02
7               	3.36804801e+02
8               	3.41312486e+02
9               	3.45756035e+02
10              	3.50158246e+02
11              	3.54479853e+02
12              	3.58725465e+02
13              	3.62954006e+02
14              	3.67144483e+02
15              	3.71305906e+02
16              	3.75421111e+02
17              	3.79433755e+02
18              	3.83308007e+02
19              	3.87002141e+02
20              	3.90511337e+02
21              	3.93859006e+02
22              	3.97058893e+02
23              	4.00146189e+02
24              	4.03136532e+02
25              	4.06048931e+02
26              	4.08881823e+02
27              	4.11640714e+02
28              	4.14335927e+02
29              	4.16975948e+02
30              	4.19569413e+02
31              	4.22103718e+02
32              	4.24566591e+02
33              	4.26964848e+02
34              	4.29334333e+02
35              	4.31659923e+02
36              	4.33948135e+02
37              	4.36183422e+02
38              	4.38409640e+02
39              	4.40634242e+02
40              	4.42850535e+02
41              	4.45054051e+02
42              	4.47214446e+02
43              	4.49314165e+02
44              	4.51343949e+02
45              	4.53302632e+02
46              	4.55235606e+02
47              	4.56909091e+02
48              	4.58358522e+02
49              	4.59744490e+02
50              	4.61145972e+02
51              	4.62542555e+02
52              	4.64007604e+02
53              	4.65502652e+02
54              	4.66989233e+02
55              	4.68417258e+02
56              	4.69926838e+02
57              	4.71466277e+02
58              	4.72942813e+02
59              	4.74240240e+02
60              	4.75505484e+02
61              	4.76728416e+02
62              	4.77801801e+02
63              	4.78788702e+02
64              	4.79653523e+02
65              	4.80513116e+02
66              	4.81307281e+02
67              	4.82079572e+02
68              	4.82895181e+02
69              	4.83711252e+02
70              	4.84478006e+02
71              	4.85151786e+02
72              	4.85723033e+02
73              	4.86228020e+02
74              	4.86715363e+02
75              	4.87170822e+02
76              	4.87532078e+02
77              	4.87891744e+02
78              	4.88255613e+02
79              	4.88599668e+02
80              	4.88903577e+02
81              	4.89170771e+02
82              	4.89435962e+02
83              	4.89672776e+02
84              	4.89848190e+02
85              	4.89980719e+02
86              	4.90123069e+02
87              	4.90230220e+02
88              	4.90343229e+02
89              	4.90457670e+02
90              	4.90560458e+02
91              	4.90678792e+02
92              	4.90680970e+02
93              	4.90724588e+02
94              	4.90774537e+02
95              	4.90780327e+02
96              	4.90808264e+02
97              	4.90803338e+02
98              	4.90792621e+02
99              	4.90763637e+02
100             	4.90742459e+02
101             	4.90715158e+02
102             	4.90626832e+02
103             	4.90553477e+02
104             	4.90503596e+02
105             	4.90443328e+02
106             	4.90335440e+02
107             	4.90211835e+02
108             	4.90099103e+02
109             	4.90000319e+02
110             	4.89887505e+02
111             	4.89760854e+02
112             	4.89637791e+02
113             	4.89563002e+02
114             	4.89433303e+02
115             	4.89250884e+02
116             	4.89076454e+02
117             	4.88925660e+02
118             	4.88785574e+02
119             	4.88607094e+02
120             	4.88436553e+02
121             	4.88286219e+02
122             	4.88133652e+02
123             	4.87978684e+02
124             	4.87821009e+02
125             	4.87669915e+02
126             	4.87530063e+02
127             	4.87367569e+02
128             	4.87165185e+02
129             	4.86961280e+02
130             	4.86789687e+02
131             	4.86624117e+02
132             	4.86475058e+02
133             	4.86311688e+02
134             	4.86151148e+02
135             	4.86001815e+02
136             	4.85863383e+02
137             	4.85722465e+02
138             	4.85560641e+02
139             	4.85404449e+02
140             	4.85269330e+02
141             	4.85159369e+02
142             	4.85051652e+02
143             	4.84944108e+02
144             	4.84835544e+02
145             	4.84724664e+02
146             	4.84599346e+02
147             	4.84476464e+02
148             	4.84352181e+02
149             	4.84220179e+02
150             	4.84082743e+02
151             	4.83936642e+02
152             	4.83773799e+02
153             	4.83613469e+02
154             	4.83462113e+02
155             	4.83327313e+02
156             	4.83194334e+02
157             	4.83060366e+02
158             	4.82939487e+02
159             	4.82825589e+02
160             	4.82704232e+02
161             	4.82581679e+02
162             	4.82464067e+02
163             	4.82333915e+02
164             	4.82180669e+02
165             	4.82036989e+02
166             	4.81912345e+02
167             	4.81780964e+02
168             	4.81639003e+02
169             	4.81504680e+02
170             	4.81374674e+02
171             	4.81244634e+02
172             	4.81111602e+02
173             	4.80976238e+02
174             	4.80844275e+02
175             	4.80721848e+02
176             	4.80594359e+02
177             	4.80471022e+02
178             	4.80349960e+02
179             	4.80230577e+02
180             	4.80113269e+02
181             	4.79990539e+02
182             	4.79867858e+02
183             	4.79755854e+02
184             	4.79652885e+02
185             	4.79539407e+02
186             	4.79428031e+02
187             	4.79326504e+02
188             	4.79216994e+02
189             	4.79096747e+02
190             	4.78974959e+02
191             	4.78864193e+02
192             	4.78756666e+02
193             	4.78654612e+02
194             	4.78541643e+02
195             	4.78432497e+02
196             	4.78313150e+02
197             	4.78191143e+02
198             	4.78079693e+02
199             	4.77973255e+02
200             	4.77863824e+02
201             	4.77757764e+02
202             	4.77663167e+02
203             	4.77573631e+02
204             	4.77472476e+02
205             	4.77376568e+02
206             	4.77289855e+02
207             	4.77199934e+02
208             	4.77114288e+02
209             	4.77030185e+02
210             	4.76942217e+02
211             	4.76845836e+02
212             	4.76741480e+02
213             	4.76645830e+02
214             	4.76555333e+02
215             	4.76470930e+02
216             	4.76385046e+02
217             	4.76293251e+02
218             	4.76198897e+02
219             	4.76111637e+02
220             	4.76028711e+02
221             	4.75948788e+02
222             	4.75870803e+02
223             	4.75793794e+02
224             	4.75717638e+02
225             	4.75642493e+02
226             	4.75572537e+02
227             	4.75499564e+02
228             	4.75424545e+02
229             	4.75349552e+02
230             	4.75275368e+02
231             	4.75200847e+02
232             	4.75126162e+02
233             	4.75055062e+02
234             	4.74987255e+02
235             	4.74918631e+02
236             	4.74852161e+02
237             	4.74788293e+02
238             	4.74722047e+02
239             	4.74658475e+02
240             	4.74598150e+02
241             	4.74540216e+02
242             	4.74484211e+02
243             	4.74429665e+02
244             	4.74374694e+02
245             	4.74321543e+02
246             	4.74270453e+02
247             	4.74220905e+02
248             	4.74172585e+02
249             	4.74125628e+02
250             	4.74080008e+02
251             	4.74035621e+02
252             	4.73992480e+02
253             	4.73950458e+02
254             	4.73909594e+02
255             	4.73869887e+02
256             	4.73831234e+02
257             	4.73793610e+02
258             	4.73757009e+02
259             	4.73721390e+02
260             	4.73686946e+02
261             	4.73653481e+02
262             	4.73620820e+02
263             	4.73589014e+02
264             	4.73558069e+02
265             	4.73527840e+02
266             	4.73498260e+02
267             	4.73469526e+02
268             	4.73441624e+02
269             	4.73414442e+02
270             	4.73387896e+02
271             	4.73362012e+02
272             	4.73336901e+02
273             	4.73312577e+02
274             	4.73288824e+02
275             	4.73265543e+02
276             	4.73242936e+02
277             	4.73220969e+02
278             	4.73199547e+02
279             	4.73178683e+02
280             	4.73158435e+02
281             	4.73138728e+02
282             	4.73119619e+02
283             	4.73101102e+02
284             	4.73082967e+02
285             	4.73065227e+02
286             	4.73047926e+02
287             	4.73030970e+02
288             	4.73014395e+02
289             	4.72998309e+02
290             	4.72982629e+02
291             	4.72967265e+02
292             	4.72952388e+02
293             	4.72937924e+02
294             	4.72923857e+02
295             	4.72910200e+02
296             	4.72896991e+02
297             	4.72884225e+02
298             	4.72871710e+02
299             	4.72859385e+02
300             	4.72847214e+02
301             	4.72835066e+02
302             	4.72823330e+02
303             	4.72811976e+02
304             	4.72800880e+02
305             	4.72790017e+02
306             	4.72779376e+02
307             	4.72769008e+02
308             	4.72758964e+02
309             	4.72749195e+02
310             	4.72739880e+02
311             	4.72730925e+02
312             	4.72722150e+02
313             	4.72713473e+02
314             	4.72704828e+02
315             	4.72696201e+02
316             	4.72687728e+02
317             	4.72679610e+02
318             	4.72671730e+02
319             	4.72664046e+02
320             	4.72656577e+02
321             	4.72649392e+02
322             	4.72642527e+02
323             	4.72635699e+02
324             	4.72628920e+02
325             	4.72622233e+02
326             	4.72615584e+02
327             	4.72609078e+02
328             	4.72602750e+02
329             	4.72596618e+02
330             	4.72590627e+02
331             	4.72584775e+02
332             	4.72579093e+02
333             	4.72573617e+02
334             	4.72568351e+02
335             	4.72563299e+02
336             	4.72558284e+02
337             	4.72553327e+02
338             	4.72548361e+02
339             	4.72543511e+02
340             	4.72538641e+02
341             	4.72533922e+02
342             	4.72529363e+02
343             	4.72524873e+02
344             	4.72520485e+02
345             	4.72516193e+02
346             	4.72512051e+02
347             	4.72508029e+02
348             	4.72504144e+02
349             	4.72500352e+02
350             	4.72496655e+02
351             	4.72493048e+02
352             	4.72489561e+02
353             	4.72486158e+02
354             	4.72482816e+02
355             	4.72479551e+02
356             	4.72476365e+02
357             	4.72473264e+02
358             	4.72470236e+02
359             	4.72467276e+02
360             	4.72464374e+02
361             	4.72461524e+02
362             	4.72458702e+02
363             	4.72455867e+02
364             	4.72453094e+02
365             	4.72450311e+02
366             	4.72447583e+02
367             	4.72444950e+02
368             	4.72442419e+02
369             	4.72439924e+02
370             	4.72437486e+02
371             	4.72435131e+02
372             	4.72432851e+02
373             	4.72430639e+02
374             	4.72428525e+02
375             	4.72426453e+02
376             	4.72424401e+02
377             	4.72422376e+02
378             	4.72420407e+02
379             	4.72418486e+02
380             	4.72416608e+02
381             	4.72414770e+02
382             	4.72412956e+02
383             	4.72411186e+02
384             	4.72409460e+02
385             	4.72407774e+02
386             	4.72406133e+02
387             	4.72404496e+02
388             	4.72402874e+02
389             	4.72401274e+02
390             	4.72399687e+02
391             	4.72398109e+02
392             	4.72396560e+02
393             	4.72395055e+02
394             	4.72393592e+02
395             	4.72392161e+02
396             	4.72390745e+02
397             	4.72389361e+02
398             	4.72388022e+02
399             	4.72386731e+02
400             	4.72385475e+02
401             	4.72384301e+02
402             	4.72383158e+02
403             	4.72382042e+02
404             	4.72380953e+02
405             	4.72379881e+02
406             	4.72378814e+02
407             	4.72377749e+02
408             	4.72376706e+02
409             	4.72375678e+02
410             	4.72374649e+02
411             	4.72373610e+02
412             	4.72372600e+02
413             	4.72371584e+02
414             	4.72370567e+02
415             	4.72369570e+02
416             	4.72368580e+02
417             	4.72367635e+02
418             	4.72366742e+02
419             	4.72365861e+02
420             	4.72365011e+02
421             	4.72364187e+02
422             	4.72363376e+02
423             	4.72362579e+02
424             	4.72361799e+02
425             	4.72361040e+02
426             	4.72360379e+02
427             	4.72359711e+02
428             	4.72359036e+02
429             	4.72358380e+02
430             	4.72357749e+02
431             	4.72357132e+02
432             	4.72356516e+02
433             	4.72355915e+02
434             	4.72355295e+02
435             	4.72354646e+02
436             	4.72353975e+02
437             	4.72353316e+02
438             	4.72352675e+02
439             	4.72352072e+02
440             	4.72351474e+02
441             	4.72350890e+02
442             	4.72350315e+02
443             	4.72349738e+02
444             	4.72349165e+02
445             	4.72348583e+02
446             	4.72348010e+02
447             	4.72347449e+02
448             	4.72346920e+02
449             	4.72346416e+02
450             	4.72345984e+02
451             	4.72345552e+02
452             	4.72345126e+02
453             	4.72344721e+02
454             	4.72344340e+02
455             	4.72343984e+02
456             	4.72343629e+02
457             	4.72343232e+02
458             	4.72342841e+02
459             	4.72342449e+02
460             	4.72342047e+02
461             	4.72341634e+02
462             	4.72341224e+02
463             	4.72340820e+02
464             	4.72340422e+02
465             	4.72340030e+02
466             	4.72339648e+02
467             	4.72339281e+02
468             	4.72338913e+02
469             	4.72338547e+02
470             	4.72338192e+02
471             	4.72337881e+02
472             	4.72337570e+02
473             	4.72337273e+02
474             	4.72337005e+02
475             	4.72336768e+02
476             	4.72336542e+02
477             	4.72336326e+02
478             	4.72336119e+02
479             	4.72335874e+02
480             	4.72335586e+02
481             	4.72335323e+02
482             	4.72335072e+02
483             	4.72334858e+02
484             	4.72334653e+02
485             	4.72334431e+02
486             	4.72334212e+02
487             	4.72333984e+02
488             	4.72333754e+02
489             	4.72333515e+02
490             	4.72333288e+02
491             	4.72333056e+02
492             	4.72332844e+02
493             	4.72332611e+02
494             	4.72332418e+02
495             	4.72332264e+02
496             	4.72332157e+02
497             	4.72332052e+02
498             	4.72331954e+02
499             	4.72331873e+02
500             	4.72331816e+02
501             	4.72331760e+02
502             	4.72331698e+02
503             	4.72331636e+02
504             	4.72331621e+02
505             	4.72331570e+02
506             	4.72331487e+02
507             	4.72331354e+02
508             	4.72331218e+02
509             	4.72331076e+02
510             	4.72330917e+02
511             	4.72330750e+02
512             	4.72330556e+02
513             	4.72330303e+02
514             	4.72330061e+02
515             	4.72329836e+02
516             	4.72329623e+02
517             	4.72329444e+02
518             	4.72329308e+02
519             	4.72329234e+02
520             	4.72329224e+02
521             	4.72329193e+02
522             	4.72329140e+02
523             	4.72329062e+02
524             	4.72328968e+02
525             	4.72328851e+02
526             	4.72328699e+02
527             	4.72328515e+02
528             	4.72328387e+02
529             	4.72328292e+02
530             	4.72328192e+02
531             	4.72328096e+02
532             	4.72328039e+02
533             	4.72328040e+02
534             	4.72327998e+02
535             	4.72327910e+02
536             	4.72327804e+02
537             	4.72327694e+02
538             	4.72327572e+02
539             	4.72327420e+02
540             	4.72327249e+02
541             	4.72327059e+02
542             	4.72326893e+02
543             	4.72326784e+02
544             	4.72326700e+02
545             	4.72326661e+02
546             	4.72326639e+02
547             	4.72326672e+02
548             	4.72326695e+02
549             	4.72326701e+02
550             	4.72326715e+02
551             	4.72326726e+02
552             	4.72326744e+02
553             	4.72326752e+02
554             	4.72326743e+02
555             	4.72326719e+02
556             	4.72326637e+02
557             	4.72326549e+02
558             	4.72326425e+02
559             	4.72326282e+02
560             	4.72326129e+02
561             	4.72325971e+02
562             	4.72325831e+02
563             	4.72325710e+02
564             	4.72325563e+02
565             	4.72325425e+02
566             	4.72325309e+02
567             	4.72325206e+02
568             	4.72325110e+02
569             	4.72325008e+02
570             	4.72324903e+02
571             	4.72324812e+02
572             	4.72324727e+02
573             	4.72324654e+02
574             	4.72324584e+02
575             	4.72324522e+02
576             	4.72324450e+02
577             	4.72324373e+02
578             	4.72324292e+02
579             	4.72324202e+02
580             	4.72324113e+02
581             	4.72324031e+02
582             	4.72323959e+02
583             	4.72323903e+02
584             	4.72323872e+02
585             	4.72323853e+02
586             	4.72323857e+02
587             	4.72323869e+02
588             	4.72323887e+02
589             	4.72323898e+02
590             	4.72323901e+02
591             	4.72323903e+02
592             	4.72323905e+02
593             	4.72323894e+02
594             	4.72323860e+02
595             	4.72323811e+02
596             	4.72323765e+02
597             	4.72323717e+02
598             	4.72323648e+02
599             	4.72323586e+02
600             	4.72323544e+02
601             	4.72323508e+02
602             	4.72323465e+02
603             	4.72323424e+02
604             	4.72323379e+02
605             	4.72323326e+02
606             	4.72323273e+02
607             	4.72323211e+02
608             	4.72323158e+02
609             	4.72323123e+02
610             	4.72323107e+02
611             	4.72323104e+02
612             	4.72323121e+02
613             	4.72323172e+02
614             	4.72323214e+02
615             	4.72323266e+02
616             	4.72323304e+02
617             	4.72323347e+02
618             	4.72323398e+02
619             	4.72323445e+02
620             	4.72323499e+02
621             	4.72323537e+02
