# Region        : cellZone fluid
# Cells         : 8647
# Volume        : 1.69108462e+01
# Time          	volAverage(T)
1               	3.00000289e+02
2               	3.00000443e+02
3               	3.00001702e+02
4               	3.00003306e+02
5               	3.00004210e+02
6               	3.00005451e+02
7               	3.00006759e+02
8               	3.00008748e+02
9               	3.00010520e+02
10              	3.00013922e+02
11              	3.00016205e+02
12              	3.00018713e+02
13              	3.00021769e+02
14              	3.00025197e+02
15              	3.00027755e+02
16              	3.00030968e+02
17              	3.00034034e+02
18              	3.00039312e+02
19              	3.00041507e+02
20              	3.00042613e+02
21              	3.00048160e+02
22              	3.00052026e+02
23              	3.00055248e+02
24              	3.00059474e+02
25              	3.00065112e+02
26              	3.00068886e+02
27              	3.00072012e+02
28              	3.00075215e+02
29              	3.00079317e+02
30              	3.00084539e+02
31              	3.00088375e+02
32              	3.00093761e+02
33              	3.00098819e+02
34              	3.00103642e+02
35              	3.00107759e+02
36              	3.00112663e+02
37              	3.00118966e+02
38              	3.00121806e+02
39              	3.00128324e+02
40              	3.00134555e+02
41              	3.00143784e+02
42              	3.00150439e+02
43              	3.00154508e+02
44              	3.00158573e+02
45              	3.00161800e+02
46              	3.00164545e+02
47              	3.00169256e+02
48              	3.00174588e+02
49              	3.00180519e+02
50              	3.00186928e+02
51              	3.00191914e+02
52              	3.00198443e+02
53              	3.00202673e+02
54              	3.00209767e+02
55              	3.00216685e+02
56              	3.00223115e+02
57              	3.00228072e+02
58              	3.00233311e+02
59              	3.00236773e+02
60              	3.00239300e+02
61              	3.00242268e+02
62              	3.00247648e+02
63              	3.00251881e+02
64              	3.00253074e+02
65              	3.00255791e+02
66              	3.00260863e+02
67              	3.00263573e+02
68              	3.00270834e+02
69              	3.00276929e+02
70              	3.00283459e+02
71              	3.00289943e+02
72              	3.00293189e+02
73              	3.00295903e+02
74              	3.00301937e+02
75              	3.00305575e+02
76              	3.00309284e+02
77              	3.00312637e+02
78              	3.00317094e+02
79              	3.00320427e+02
80              	3.00324990e+02
81              	3.00329365e+02
82              	3.00331734e+02
83              	3.00334981e+02
84              	3.00338357e+02
85              	3.00342126e+02
86              	3.00346811e+02
87              	3.00351751e+02
88              	3.00356583e+02
89              	3.00361149e+02
90              	3.00365569e+02
91              	3.00370226e+02
92              	3.00374037e+02
93              	3.00377842e+02
94              	3.00382235e+02
95              	3.00385905e+02
96              	3.00389838e+02
97              	3.00392367e+02
98              	3.00395346e+02
99              	3.00399699e+02
100             	3.00406387e+02
101             	3.00408580e+02
102             	3.00411648e+02
103             	3.00413652e+02
104             	3.00416418e+02
105             	3.00420379e+02
106             	3.00424050e+02
107             	3.00427866e+02
108             	3.00429885e+02
109             	3.00432325e+02
110             	3.00435622e+02
111             	3.00438193e+02
112             	3.00440478e+02
113             	3.00444113e+02
114             	3.00446995e+02
115             	3.00449784e+02
116             	3.00451578e+02
117             	3.00452705e+02
118             	3.00455303e+02
119             	3.00458560e+02
120             	3.00459846e+02
121             	3.00462237e+02
122             	3.00465947e+02
123             	3.00467884e+02
124             	3.00469997e+02
125             	3.00471199e+02
126             	3.00475274e+02
127             	3.00477870e+02
128             	3.00479757e+02
129             	3.00485134e+02
130             	3.00486384e+02
131             	3.00487844e+02
132             	3.00488646e+02
133             	3.00491405e+02
134             	3.00493586e+02
135             	3.00495837e+02
136             	3.00496850e+02
137             	3.00498342e+02
138             	3.00501006e+02
139             	3.00503472e+02
140             	3.00505793e+02
141             	3.00507656e+02
142             	3.00509145e+02
143             	3.00510142e+02
144             	3.00512211e+02
145             	3.00513551e+02
146             	3.00514566e+02
147             	3.00515296e+02
148             	3.00516354e+02
149             	3.00517721e+02
150             	3.00519129e+02
151             	3.00520027e+02
152             	3.00521037e+02
153             	3.00522436e+02
154             	3.00523949e+02
155             	3.00525522e+02
156             	3.00526860e+02
157             	3.00528318e+02
158             	3.00528933e+02
159             	3.00529800e+02
160             	3.00530682e+02
161             	3.00531799e+02
162             	3.00532681e+02
163             	3.00533011e+02
164             	3.00533421e+02
165             	3.00534090e+02
166             	3.00535396e+02
167             	3.00536168e+02
168             	3.00536744e+02
169             	3.00537492e+02
170             	3.00538289e+02
171             	3.00539136e+02
172             	3.00539775e+02
173             	3.00540553e+02
174             	3.00541244e+02
175             	3.00541922e+02
176             	3.00542465e+02
177             	3.00543042e+02
178             	3.00543562e+02
179             	3.00544085e+02
180             	3.00544595e+02
181             	3.00545115e+02
182             	3.00545523e+02
183             	3.00545836e+02
184             	3.00545974e+02
185             	3.00546122e+02
186             	3.00546430e+02
187             	3.00546732e+02
188             	3.00547065e+02
189             	3.00547449e+02
190             	3.00547878e+02
191             	3.00548323e+02
192             	3.00548756e+02
193             	3.00549110e+02
194             	3.00549458e+02
195             	3.00549859e+02
196             	3.00550239e+02
197             	3.00550677e+02
198             	3.00551190e+02
199             	3.00551741e+02
200             	3.00552254e+02
201             	3.00552839e+02
202             	3.00553327e+02
203             	3.00554017e+02
204             	3.00554582e+02
205             	3.00555108e+02
206             	3.00555619e+02
207             	3.00556083e+02
208             	3.00556561e+02
209             	3.00557067e+02
210             	3.00557559e+02
211             	3.00558044e+02
212             	3.00558536e+02
213             	3.00559044e+02
214             	3.00559588e+02
215             	3.00560143e+02
216             	3.00560711e+02
217             	3.00561268e+02
218             	3.00561805e+02
219             	3.00562318e+02
220             	3.00562814e+02
221             	3.00563311e+02
222             	3.00563822e+02
223             	3.00564303e+02
224             	3.00564803e+02
225             	3.00565315e+02
226             	3.00565848e+02
227             	3.00566375e+02
228             	3.00566906e+02
229             	3.00567444e+02
230             	3.00567921e+02
231             	3.00568431e+02
232             	3.00568958e+02
233             	3.00569449e+02
234             	3.00569946e+02
235             	3.00570422e+02
236             	3.00570910e+02
237             	3.00571397e+02
238             	3.00571879e+02
239             	3.00572367e+02
240             	3.00572856e+02
241             	3.00573343e+02
242             	3.00573805e+02
243             	3.00574289e+02
244             	3.00574749e+02
245             	3.00575208e+02
246             	3.00575664e+02
247             	3.00576134e+02
248             	3.00576578e+02
249             	3.00577017e+02
250             	3.00577462e+02
251             	3.00577898e+02
252             	3.00578322e+02
253             	3.00578737e+02
254             	3.00579151e+02
255             	3.00579580e+02
256             	3.00579998e+02
257             	3.00580399e+02
258             	3.00580815e+02
259             	3.00581232e+02
260             	3.00581647e+02
261             	3.00582051e+02
262             	3.00582463e+02
263             	3.00582854e+02
264             	3.00583231e+02
265             	3.00583638e+02
266             	3.00584023e+02
267             	3.00584418e+02
268             	3.00584785e+02
269             	3.00585154e+02
270             	3.00585519e+02
271             	3.00585878e+02
272             	3.00586233e+02
273             	3.00586597e+02
274             	3.00586956e+02
275             	3.00587312e+02
276             	3.00587667e+02
277             	3.00588013e+02
278             	3.00588368e+02
279             	3.00588717e+02
280             	3.00589063e+02
281             	3.00589406e+02
282             	3.00589747e+02
283             	3.00590080e+02
284             	3.00590416e+02
285             	3.00590745e+02
286             	3.00591069e+02
287             	3.00591400e+02
288             	3.00591728e+02
289             	3.00592050e+02
290             	3.00592369e+02
291             	3.00592685e+02
292             	3.00593002e+02
293             	3.00593313e+02
294             	3.00593626e+02
295             	3.00593938e+02
296             	3.00594246e+02
297             	3.00594554e+02
298             	3.00594857e+02
299             	3.00595161e+02
300             	3.00595462e+02
301             	3.00595763e+02
302             	3.00596062e+02
303             	3.00596362e+02
304             	3.00596661e+02
305             	3.00596956e+02
306             	3.00597249e+02
307             	3.00597537e+02
308             	3.00597828e+02
309             	3.00598117e+02
310             	3.00598404e+02
311             	3.00598688e+02
312             	3.00598969e+02
313             	3.00599247e+02
314             	3.00599523e+02
315             	3.00599797e+02
316             	3.00600068e+02
317             	3.00600337e+02
318             	3.00600606e+02
319             	3.00600872e+02
320             	3.00601137e+02
321             	3.00601401e+02
322             	3.00601663e+02
323             	3.00601926e+02
324             	3.00602184e+02
325             	3.00602439e+02
326             	3.00602694e+02
327             	3.00602949e+02
328             	3.00603201e+02
329             	3.00603452e+02
330             	3.00603699e+02
331             	3.00603944e+02
332             	3.00604190e+02
333             	3.00604433e+02
334             	3.00604675e+02
335             	3.00604913e+02
336             	3.00605148e+02
337             	3.00605381e+02
338             	3.00605612e+02
339             	3.00605842e+02
340             	3.00606071e+02
341             	3.00606297e+02
342             	3.00606520e+02
343             	3.00606743e+02
344             	3.00606963e+02
345             	3.00607182e+02
346             	3.00607399e+02
347             	3.00607614e+02
348             	3.00607828e+02
349             	3.00608040e+02
350             	3.00608251e+02
351             	3.00608459e+02
352             	3.00608667e+02
353             	3.00608871e+02
354             	3.00609074e+02
355             	3.00609273e+02
356             	3.00609471e+02
357             	3.00609668e+02
358             	3.00609863e+02
359             	3.00610055e+02
360             	3.00610245e+02
361             	3.00610434e+02
362             	3.00610621e+02
363             	3.00610806e+02
364             	3.00610990e+02
365             	3.00611172e+02
366             	3.00611353e+02
367             	3.00611533e+02
368             	3.00611709e+02
369             	3.00611885e+02
370             	3.00612059e+02
371             	3.00612232e+02
372             	3.00612403e+02
373             	3.00612572e+02
374             	3.00612740e+02
375             	3.00612908e+02
376             	3.00613074e+02
377             	3.00613239e+02
378             	3.00613402e+02
379             	3.00613561e+02
380             	3.00613719e+02
381             	3.00613877e+02
382             	3.00614031e+02
383             	3.00614183e+02
384             	3.00614335e+02
385             	3.00614485e+02
386             	3.00614634e+02
387             	3.00614783e+02
388             	3.00614930e+02
389             	3.00615079e+02
390             	3.00615223e+02
391             	3.00615367e+02
392             	3.00615511e+02
393             	3.00615650e+02
394             	3.00615791e+02
395             	3.00615929e+02
396             	3.00616067e+02
397             	3.00616204e+02
398             	3.00616338e+02
399             	3.00616471e+02
400             	3.00616603e+02
401             	3.00616734e+02
402             	3.00616863e+02
403             	3.00616992e+02
404             	3.00617118e+02
405             	3.00617245e+02
406             	3.00617371e+02
407             	3.00617495e+02
408             	3.00617616e+02
409             	3.00617737e+02
410             	3.00617856e+02
411             	3.00617975e+02
412             	3.00618093e+02
413             	3.00618208e+02
414             	3.00618323e+02
415             	3.00618437e+02
416             	3.00618550e+02
417             	3.00618662e+02
418             	3.00618773e+02
419             	3.00618884e+02
420             	3.00618993e+02
421             	3.00619102e+02
422             	3.00619211e+02
423             	3.00619317e+02
424             	3.00619422e+02
425             	3.00619527e+02
426             	3.00619630e+02
427             	3.00619732e+02
428             	3.00619832e+02
429             	3.00619932e+02
430             	3.00620029e+02
431             	3.00620126e+02
432             	3.00620222e+02
433             	3.00620318e+02
434             	3.00620414e+02
435             	3.00620509e+02
436             	3.00620603e+02
437             	3.00620696e+02
438             	3.00620787e+02
439             	3.00620879e+02
440             	3.00620969e+02
441             	3.00621058e+02
442             	3.00621146e+02
443             	3.00621232e+02
444             	3.00621318e+02
445             	3.00621404e+02
446             	3.00621490e+02
447             	3.00621574e+02
448             	3.00621657e+02
449             	3.00621740e+02
450             	3.00621822e+02
451             	3.00621903e+02
452             	3.00621982e+02
453             	3.00622061e+02
454             	3.00622139e+02
455             	3.00622215e+02
456             	3.00622292e+02
457             	3.00622367e+02
458             	3.00622443e+02
459             	3.00622518e+02
460             	3.00622590e+02
461             	3.00622664e+02
462             	3.00622736e+02
463             	3.00622809e+02
464             	3.00622880e+02
465             	3.00622950e+02
466             	3.00623021e+02
467             	3.00623090e+02
468             	3.00623158e+02
469             	3.00623226e+02
470             	3.00623292e+02
471             	3.00623358e+02
472             	3.00623424e+02
473             	3.00623488e+02
474             	3.00623552e+02
475             	3.00623615e+02
476             	3.00623677e+02
477             	3.00623740e+02
478             	3.00623802e+02
479             	3.00623863e+02
480             	3.00623923e+02
481             	3.00623983e+02
482             	3.00624043e+02
483             	3.00624103e+02
484             	3.00624161e+02
485             	3.00624219e+02
486             	3.00624275e+02
487             	3.00624333e+02
488             	3.00624388e+02
489             	3.00624443e+02
490             	3.00624498e+02
491             	3.00624552e+02
492             	3.00624605e+02
493             	3.00624657e+02
494             	3.00624710e+02
495             	3.00624761e+02
496             	3.00624813e+02
497             	3.00624864e+02
498             	3.00624915e+02
499             	3.00624965e+02
500             	3.00625015e+02
501             	3.00625064e+02
502             	3.00625113e+02
503             	3.00625162e+02
504             	3.00625210e+02
505             	3.00625257e+02
506             	3.00625303e+02
507             	3.00625351e+02
508             	3.00625397e+02
509             	3.00625442e+02
510             	3.00625487e+02
511             	3.00625531e+02
512             	3.00625575e+02
513             	3.00625619e+02
514             	3.00625662e+02
515             	3.00625705e+02
516             	3.00625747e+02
517             	3.00625788e+02
518             	3.00625830e+02
519             	3.00625871e+02
520             	3.00625911e+02
521             	3.00625951e+02
522             	3.00625991e+02
523             	3.00626030e+02
524             	3.00626069e+02
525             	3.00626109e+02
526             	3.00626147e+02
527             	3.00626185e+02
528             	3.00626223e+02
529             	3.00626260e+02
530             	3.00626297e+02
531             	3.00626334e+02
532             	3.00626370e+02
533             	3.00626406e+02
534             	3.00626440e+02
535             	3.00626475e+02
536             	3.00626509e+02
537             	3.00626544e+02
538             	3.00626577e+02
539             	3.00626611e+02
540             	3.00626644e+02
541             	3.00626678e+02
542             	3.00626711e+02
543             	3.00626743e+02
544             	3.00626776e+02
545             	3.00626808e+02
546             	3.00626839e+02
547             	3.00626871e+02
548             	3.00626902e+02
549             	3.00626932e+02
550             	3.00626963e+02
551             	3.00626992e+02
552             	3.00627021e+02
553             	3.00627050e+02
554             	3.00627079e+02
555             	3.00627107e+02
556             	3.00627136e+02
557             	3.00627164e+02
558             	3.00627192e+02
559             	3.00627220e+02
560             	3.00627248e+02
561             	3.00627276e+02
562             	3.00627302e+02
563             	3.00627328e+02
564             	3.00627354e+02
565             	3.00627381e+02
566             	3.00627407e+02
567             	3.00627432e+02
568             	3.00627457e+02
569             	3.00627481e+02
570             	3.00627505e+02
571             	3.00627530e+02
572             	3.00627554e+02
573             	3.00627578e+02
574             	3.00627602e+02
575             	3.00627625e+02
576             	3.00627649e+02
577             	3.00627672e+02
578             	3.00627696e+02
579             	3.00627718e+02
580             	3.00627741e+02
581             	3.00627763e+02
582             	3.00627786e+02
583             	3.00627808e+02
584             	3.00627829e+02
585             	3.00627850e+02
586             	3.00627871e+02
587             	3.00627891e+02
588             	3.00627912e+02
589             	3.00627931e+02
590             	3.00627951e+02
591             	3.00627971e+02
592             	3.00627991e+02
593             	3.00628011e+02
594             	3.00628030e+02
595             	3.00628050e+02
596             	3.00628069e+02
597             	3.00628089e+02
598             	3.00628108e+02
599             	3.00628126e+02
600             	3.00628144e+02
601             	3.00628162e+02
602             	3.00628180e+02
603             	3.00628198e+02
604             	3.00628216e+02
605             	3.00628233e+02
606             	3.00628250e+02
607             	3.00628267e+02
608             	3.00628284e+02
609             	3.00628301e+02
610             	3.00628317e+02
611             	3.00628334e+02
612             	3.00628350e+02
613             	3.00628365e+02
614             	3.00628381e+02
615             	3.00628397e+02
616             	3.00628412e+02
617             	3.00628428e+02
618             	3.00628443e+02
619             	3.00628458e+02
620             	3.00628473e+02
621             	3.00628488e+02
