# Region        : cellZone component_3
# Cells         : 75
# Volume        : 1.21166919e-01
# Time          	volAverage(T)
1               	3.01340740e+02
2               	3.02649865e+02
3               	3.03713777e+02
4               	3.04617148e+02
5               	3.05475749e+02
6               	3.06326766e+02
7               	3.07160405e+02
8               	3.07977376e+02
9               	3.08783828e+02
10              	3.09558633e+02
11              	3.10288093e+02
12              	3.10943898e+02
13              	3.11503996e+02
14              	3.12006476e+02
15              	3.12515523e+02
16              	3.13023579e+02
17              	3.13549910e+02
18              	3.14102344e+02
19              	3.14652035e+02
20              	3.15189420e+02
21              	3.15745157e+02
22              	3.16298717e+02
23              	3.16853569e+02
24              	3.17389160e+02
25              	3.17909551e+02
26              	3.18401775e+02
27              	3.18848901e+02
28              	3.19233490e+02
29              	3.19565428e+02
30              	3.19924093e+02
31              	3.20121018e+02
32              	3.20149553e+02
33              	3.20108367e+02
34              	3.20085366e+02
35              	3.20098057e+02
36              	3.20104493e+02
37              	3.20044299e+02
38              	3.20115248e+02
39              	3.20314565e+02
40              	3.20500787e+02
41              	3.20663558e+02
42              	3.20805454e+02
43              	3.20955837e+02
44              	3.21103839e+02
45              	3.21239649e+02
46              	3.21349915e+02
47              	3.21445350e+02
48              	3.21537039e+02
49              	3.21642439e+02
50              	3.21789807e+02
51              	3.21959698e+02
52              	3.22051130e+02
53              	3.22031448e+02
54              	3.21918570e+02
55              	3.21932945e+02
56              	3.22004901e+02
57              	3.22113681e+02
58              	3.22245368e+02
59              	3.22365244e+02
60              	3.22465205e+02
61              	3.22545801e+02
62              	3.22613310e+02
63              	3.22659571e+02
64              	3.22694674e+02
65              	3.22716712e+02
66              	3.22744982e+02
67              	3.22785445e+02
68              	3.22839392e+02
69              	3.22900170e+02
70              	3.22970297e+02
71              	3.23038957e+02
72              	3.23098968e+02
73              	3.23151010e+02
74              	3.23193688e+02
75              	3.23207079e+02
76              	3.23219410e+02
77              	3.23253442e+02
78              	3.23278649e+02
79              	3.23290835e+02
80              	3.23295085e+02
81              	3.23304724e+02
82              	3.23315452e+02
83              	3.23348477e+02
84              	3.23392810e+02
85              	3.23464590e+02
86              	3.23542172e+02
87              	3.23627183e+02
88              	3.23709864e+02
89              	3.23792237e+02
90              	3.23871924e+02
91              	3.23932566e+02
92              	3.23979536e+02
93              	3.24028937e+02
94              	3.24081441e+02
95              	3.24140322e+02
96              	3.24212081e+02
97              	3.24289133e+02
98              	3.24366763e+02
99              	3.24454445e+02
100             	3.24536846e+02
101             	3.24615453e+02
102             	3.24672364e+02
103             	3.24717267e+02
104             	3.24755914e+02
105             	3.24784763e+02
106             	3.24807423e+02
107             	3.24834105e+02
108             	3.24857431e+02
109             	3.24886123e+02
110             	3.24919704e+02
111             	3.24954802e+02
112             	3.24985007e+02
113             	3.25007968e+02
114             	3.25022765e+02
115             	3.25041816e+02
116             	3.25065440e+02
117             	3.25095764e+02
118             	3.25132663e+02
119             	3.25172785e+02
120             	3.25225065e+02
121             	3.25280317e+02
122             	3.25331016e+02
123             	3.25374923e+02
124             	3.25412774e+02
125             	3.25445773e+02
126             	3.25474483e+02
127             	3.25500501e+02
128             	3.25524417e+02
129             	3.25546948e+02
130             	3.25569652e+02
131             	3.25584883e+02
132             	3.25602863e+02
133             	3.25620317e+02
134             	3.25642888e+02
135             	3.25667928e+02
136             	3.25693928e+02
137             	3.25720002e+02
138             	3.25745924e+02
139             	3.25765232e+02
140             	3.25784557e+02
141             	3.25805866e+02
142             	3.25828731e+02
143             	3.25852556e+02
144             	3.25875864e+02
145             	3.25900652e+02
146             	3.25929105e+02
147             	3.25957122e+02
148             	3.25986175e+02
149             	3.26015779e+02
150             	3.26042648e+02
151             	3.26066780e+02
152             	3.26088741e+02
153             	3.26108548e+02
154             	3.26127545e+02
155             	3.26149614e+02
156             	3.26173550e+02
157             	3.26191654e+02
158             	3.26209585e+02
159             	3.26228328e+02
160             	3.26243594e+02
161             	3.26262159e+02
162             	3.26280776e+02
163             	3.26300112e+02
164             	3.26317653e+02
165             	3.26331982e+02
166             	3.26343717e+02
167             	3.26354873e+02
168             	3.26367539e+02
169             	3.26381406e+02
170             	3.26395556e+02
171             	3.26410994e+02
172             	3.26429342e+02
173             	3.26446126e+02
174             	3.26460965e+02
175             	3.26476684e+02
176             	3.26491934e+02
177             	3.26505445e+02
178             	3.26519442e+02
179             	3.26532992e+02
180             	3.26546323e+02
181             	3.26558579e+02
182             	3.26570495e+02
183             	3.26580752e+02
184             	3.26590221e+02
185             	3.26597753e+02
186             	3.26605552e+02
187             	3.26612917e+02
188             	3.26619831e+02
189             	3.26625732e+02
190             	3.26630591e+02
191             	3.26634795e+02
192             	3.26638388e+02
193             	3.26641755e+02
194             	3.26646002e+02
195             	3.26653124e+02
196             	3.26659549e+02
197             	3.26666043e+02
198             	3.26675758e+02
199             	3.26686385e+02
200             	3.26693852e+02
201             	3.26701319e+02
202             	3.26709563e+02
203             	3.26718533e+02
204             	3.26728706e+02
205             	3.26736319e+02
206             	3.26742429e+02
207             	3.26748563e+02
208             	3.26755023e+02
209             	3.26761493e+02
210             	3.26767956e+02
211             	3.26774841e+02
212             	3.26781532e+02
213             	3.26787850e+02
214             	3.26792117e+02
215             	3.26796973e+02
216             	3.26801273e+02
217             	3.26804816e+02
218             	3.26808195e+02
219             	3.26811521e+02
220             	3.26814892e+02
221             	3.26818676e+02
222             	3.26823028e+02
223             	3.26827959e+02
224             	3.26833578e+02
225             	3.26839024e+02
226             	3.26844275e+02
227             	3.26849515e+02
228             	3.26854696e+02
229             	3.26859946e+02
230             	3.26865282e+02
231             	3.26870627e+02
232             	3.26876044e+02
233             	3.26881537e+02
234             	3.26887091e+02
235             	3.26892635e+02
236             	3.26898015e+02
237             	3.26902759e+02
238             	3.26907504e+02
239             	3.26912069e+02
240             	3.26916270e+02
241             	3.26919229e+02
242             	3.26922893e+02
243             	3.26927038e+02
244             	3.26930618e+02
245             	3.26933971e+02
246             	3.26937215e+02
247             	3.26940320e+02
248             	3.26943304e+02
249             	3.26946206e+02
250             	3.26948902e+02
251             	3.26951323e+02
252             	3.26953589e+02
253             	3.26955683e+02
254             	3.26957555e+02
255             	3.26959208e+02
256             	3.26960649e+02
257             	3.26962037e+02
258             	3.26963501e+02
259             	3.26965358e+02
260             	3.26967274e+02
261             	3.26969298e+02
262             	3.26971596e+02
263             	3.26973814e+02
264             	3.26975933e+02
265             	3.26977930e+02
266             	3.26979859e+02
267             	3.26981943e+02
268             	3.26984074e+02
269             	3.26985976e+02
270             	3.26987944e+02
271             	3.26989817e+02
272             	3.26991499e+02
273             	3.26993087e+02
274             	3.26994556e+02
275             	3.26995912e+02
276             	3.26997283e+02
277             	3.26998788e+02
278             	3.27000414e+02
279             	3.27002205e+02
280             	3.27004102e+02
281             	3.27006205e+02
282             	3.27008477e+02
283             	3.27010781e+02
284             	3.27013070e+02
285             	3.27015387e+02
286             	3.27017718e+02
287             	3.27020135e+02
288             	3.27022448e+02
289             	3.27024683e+02
290             	3.27026897e+02
291             	3.27029092e+02
292             	3.27031247e+02
293             	3.27033122e+02
294             	3.27034941e+02
295             	3.27036681e+02
296             	3.27038276e+02
297             	3.27039728e+02
298             	3.27041075e+02
299             	3.27042406e+02
300             	3.27043674e+02
301             	3.27044910e+02
302             	3.27046148e+02
303             	3.27047295e+02
304             	3.27048408e+02
305             	3.27049561e+02
306             	3.27050774e+02
307             	3.27052025e+02
308             	3.27053262e+02
309             	3.27054627e+02
310             	3.27056052e+02
311             	3.27057439e+02
312             	3.27058773e+02
313             	3.27060067e+02
314             	3.27061304e+02
315             	3.27062466e+02
316             	3.27063564e+02
317             	3.27064574e+02
318             	3.27065472e+02
319             	3.27066292e+02
320             	3.27067044e+02
321             	3.27067731e+02
322             	3.27068323e+02
323             	3.27068816e+02
324             	3.27069233e+02
325             	3.27069620e+02
326             	3.27069946e+02
327             	3.27070234e+02
328             	3.27070507e+02
329             	3.27070948e+02
330             	3.27071352e+02
331             	3.27071829e+02
332             	3.27072340e+02
333             	3.27072894e+02
334             	3.27073503e+02
335             	3.27074140e+02
336             	3.27074776e+02
337             	3.27075430e+02
338             	3.27076105e+02
339             	3.27076779e+02
340             	3.27077437e+02
341             	3.27078068e+02
342             	3.27078671e+02
343             	3.27079249e+02
344             	3.27079820e+02
345             	3.27080390e+02
346             	3.27080922e+02
347             	3.27081458e+02
348             	3.27082021e+02
349             	3.27082604e+02
350             	3.27083226e+02
351             	3.27083899e+02
352             	3.27084598e+02
353             	3.27085294e+02
354             	3.27086025e+02
355             	3.27086777e+02
356             	3.27087531e+02
357             	3.27088328e+02
358             	3.27089186e+02
359             	3.27090064e+02
360             	3.27090980e+02
361             	3.27091870e+02
362             	3.27092714e+02
363             	3.27093559e+02
364             	3.27094373e+02
365             	3.27095115e+02
366             	3.27095776e+02
367             	3.27096356e+02
368             	3.27096850e+02
369             	3.27097273e+02
370             	3.27097634e+02
371             	3.27097938e+02
372             	3.27098189e+02
373             	3.27098395e+02
374             	3.27098553e+02
375             	3.27098666e+02
376             	3.27098772e+02
377             	3.27098861e+02
378             	3.27098941e+02
379             	3.27099025e+02
380             	3.27099095e+02
381             	3.27099075e+02
382             	3.27098966e+02
383             	3.27098868e+02
384             	3.27098755e+02
385             	3.27098579e+02
386             	3.27098420e+02
387             	3.27098285e+02
388             	3.27098094e+02
389             	3.27097876e+02
390             	3.27097672e+02
391             	3.27097507e+02
392             	3.27097373e+02
393             	3.27097260e+02
394             	3.27097177e+02
395             	3.27097169e+02
396             	3.27097240e+02
397             	3.27097412e+02
398             	3.27097649e+02
399             	3.27097928e+02
400             	3.27098229e+02
401             	3.27098535e+02
402             	3.27098855e+02
403             	3.27099186e+02
404             	3.27099540e+02
405             	3.27099901e+02
406             	3.27100285e+02
407             	3.27100692e+02
408             	3.27101149e+02
409             	3.27101662e+02
410             	3.27102190e+02
411             	3.27102742e+02
412             	3.27103200e+02
413             	3.27103700e+02
414             	3.27104229e+02
415             	3.27104726e+02
416             	3.27105171e+02
417             	3.27105573e+02
418             	3.27105946e+02
419             	3.27106288e+02
420             	3.27106615e+02
421             	3.27106925e+02
422             	3.27107209e+02
423             	3.27107477e+02
424             	3.27107724e+02
425             	3.27107947e+02
426             	3.27108157e+02
427             	3.27108354e+02
428             	3.27108566e+02
429             	3.27108769e+02
430             	3.27108904e+02
431             	3.27109078e+02
432             	3.27109276e+02
433             	3.27109445e+02
434             	3.27109489e+02
435             	3.27109513e+02
436             	3.27109603e+02
437             	3.27109616e+02
438             	3.27109557e+02
439             	3.27109464e+02
440             	3.27109360e+02
441             	3.27109250e+02
442             	3.27109139e+02
443             	3.27109037e+02
444             	3.27108951e+02
445             	3.27108884e+02
446             	3.27108836e+02
447             	3.27108806e+02
448             	3.27108800e+02
449             	3.27108819e+02
450             	3.27108843e+02
451             	3.27108900e+02
452             	3.27108991e+02
453             	3.27109077e+02
454             	3.27109162e+02
455             	3.27109253e+02
456             	3.27109354e+02
457             	3.27109461e+02
458             	3.27109573e+02
459             	3.27109698e+02
460             	3.27109824e+02
461             	3.27109935e+02
462             	3.27110043e+02
463             	3.27110146e+02
464             	3.27110250e+02
465             	3.27110339e+02
466             	3.27110413e+02
467             	3.27110575e+02
468             	3.27110722e+02
469             	3.27110883e+02
470             	3.27111064e+02
471             	3.27111262e+02
472             	3.27111479e+02
473             	3.27111640e+02
474             	3.27111839e+02
475             	3.27111999e+02
476             	3.27112168e+02
477             	3.27112333e+02
478             	3.27112474e+02
479             	3.27112599e+02
480             	3.27112716e+02
481             	3.27112829e+02
482             	3.27112945e+02
483             	3.27113060e+02
484             	3.27113168e+02
485             	3.27113275e+02
486             	3.27113356e+02
487             	3.27113425e+02
488             	3.27113484e+02
489             	3.27113540e+02
490             	3.27113612e+02
491             	3.27113678e+02
492             	3.27113748e+02
493             	3.27113799e+02
494             	3.27113862e+02
495             	3.27113914e+02
496             	3.27113934e+02
497             	3.27113961e+02
498             	3.27113960e+02
499             	3.27113967e+02
500             	3.27113974e+02
501             	3.27113967e+02
502             	3.27113949e+02
503             	3.27113925e+02
504             	3.27113901e+02
505             	3.27113878e+02
506             	3.27113867e+02
507             	3.27113844e+02
508             	3.27113809e+02
509             	3.27113770e+02
510             	3.27113728e+02
511             	3.27113694e+02
512             	3.27113672e+02
513             	3.27113643e+02
514             	3.27113614e+02
515             	3.27113582e+02
516             	3.27113546e+02
517             	3.27113513e+02
518             	3.27113479e+02
519             	3.27113442e+02
520             	3.27113404e+02
521             	3.27113368e+02
522             	3.27113338e+02
523             	3.27113342e+02
524             	3.27113372e+02
525             	3.27113403e+02
526             	3.27113444e+02
527             	3.27113497e+02
528             	3.27113563e+02
529             	3.27113706e+02
530             	3.27113848e+02
531             	3.27113985e+02
532             	3.27114136e+02
533             	3.27114298e+02
534             	3.27114483e+02
535             	3.27114656e+02
536             	3.27114776e+02
537             	3.27114911e+02
538             	3.27115048e+02
539             	3.27115157e+02
540             	3.27115242e+02
541             	3.27115304e+02
542             	3.27115349e+02
543             	3.27115406e+02
544             	3.27115451e+02
545             	3.27115490e+02
546             	3.27115531e+02
547             	3.27115579e+02
548             	3.27115630e+02
549             	3.27115686e+02
550             	3.27115734e+02
551             	3.27115795e+02
552             	3.27115847e+02
553             	3.27115904e+02
554             	3.27115967e+02
555             	3.27116024e+02
556             	3.27116069e+02
557             	3.27116103e+02
558             	3.27116097e+02
559             	3.27116077e+02
560             	3.27116084e+02
561             	3.27116060e+02
562             	3.27116049e+02
563             	3.27116018e+02
564             	3.27115993e+02
565             	3.27115978e+02
566             	3.27115966e+02
567             	3.27115916e+02
568             	3.27115878e+02
569             	3.27115848e+02
570             	3.27115812e+02
571             	3.27115767e+02
572             	3.27115706e+02
573             	3.27115642e+02
574             	3.27115567e+02
575             	3.27115508e+02
576             	3.27115473e+02
577             	3.27115431e+02
578             	3.27115395e+02
579             	3.27115374e+02
580             	3.27115381e+02
581             	3.27115412e+02
582             	3.27115460e+02
583             	3.27115516e+02
584             	3.27115593e+02
585             	3.27115668e+02
586             	3.27115750e+02
587             	3.27115838e+02
588             	3.27115926e+02
589             	3.27116015e+02
590             	3.27116107e+02
591             	3.27116226e+02
592             	3.27116323e+02
593             	3.27116395e+02
594             	3.27116463e+02
595             	3.27116531e+02
596             	3.27116590e+02
597             	3.27116631e+02
598             	3.27116641e+02
599             	3.27116623e+02
600             	3.27116601e+02
601             	3.27116584e+02
602             	3.27116567e+02
603             	3.27116552e+02
604             	3.27116553e+02
605             	3.27116575e+02
606             	3.27116615e+02
607             	3.27116670e+02
608             	3.27116738e+02
609             	3.27116808e+02
610             	3.27116869e+02
611             	3.27116949e+02
612             	3.27117037e+02
613             	3.27117119e+02
614             	3.27117192e+02
615             	3.27117256e+02
616             	3.27117299e+02
617             	3.27117324e+02
618             	3.27117331e+02
619             	3.27117319e+02
620             	3.27117305e+02
621             	3.27117276e+02
