# Region        : cellZone component_2
# Cells         : 96
# Volume        : 1.83885434e-01
# Time          	volAverage(T)
1               	3.02693645e+02
2               	3.05276921e+02
3               	3.07027524e+02
4               	3.08226945e+02
5               	3.09424662e+02
6               	3.10761276e+02
7               	3.12078960e+02
8               	3.13227908e+02
9               	3.14212878e+02
10              	3.15153569e+02
11              	3.16050645e+02
12              	3.16925232e+02
13              	3.17780121e+02
14              	3.18602184e+02
15              	3.19397290e+02
16              	3.20147417e+02
17              	3.20831743e+02
18              	3.21444858e+02
19              	3.22008637e+02
20              	3.22549484e+02
21              	3.23108861e+02
22              	3.23689925e+02
23              	3.24236625e+02
24              	3.24732966e+02
25              	3.25247890e+02
26              	3.25772441e+02
27              	3.26296780e+02
28              	3.26758487e+02
29              	3.27147458e+02
30              	3.27461064e+02
31              	3.27757553e+02
32              	3.28010216e+02
33              	3.28226985e+02
34              	3.28440639e+02
35              	3.28667158e+02
36              	3.28897390e+02
37              	3.29091704e+02
38              	3.29273378e+02
39              	3.29481009e+02
40              	3.29744824e+02
41              	3.30033031e+02
42              	3.30313837e+02
43              	3.30558664e+02
44              	3.30769941e+02
45              	3.30963515e+02
46              	3.31119139e+02
47              	3.31220787e+02
48              	3.31277268e+02
49              	3.31274724e+02
50              	3.31251210e+02
51              	3.31242971e+02
52              	3.31251232e+02
53              	3.31296435e+02
54              	3.31397182e+02
55              	3.31552682e+02
56              	3.31726779e+02
57              	3.31876607e+02
58              	3.32033736e+02
59              	3.32199387e+02
60              	3.32334461e+02
61              	3.32425404e+02
62              	3.32493582e+02
63              	3.32493056e+02
64              	3.32466077e+02
65              	3.32443436e+02
66              	3.32447805e+02
67              	3.32449243e+02
68              	3.32475107e+02
69              	3.32563748e+02
70              	3.32686026e+02
71              	3.32794840e+02
72              	3.32864288e+02
73              	3.32937030e+02
74              	3.33023571e+02
75              	3.33074470e+02
76              	3.33105188e+02
77              	3.33090770e+02
78              	3.33092114e+02
79              	3.33079996e+02
80              	3.33094920e+02
81              	3.33127417e+02
82              	3.33183075e+02
83              	3.33252486e+02
84              	3.33353403e+02
85              	3.33445939e+02
86              	3.33539930e+02
87              	3.33647009e+02
88              	3.33765215e+02
89              	3.33846442e+02
90              	3.33891909e+02
91              	3.33935653e+02
92              	3.33995447e+02
93              	3.34049400e+02
94              	3.34098652e+02
95              	3.34144515e+02
96              	3.34199673e+02
97              	3.34236423e+02
98              	3.34264553e+02
99              	3.34251851e+02
100             	3.34218795e+02
101             	3.34199800e+02
102             	3.34205963e+02
103             	3.34216383e+02
104             	3.34242929e+02
105             	3.34301591e+02
106             	3.34365472e+02
107             	3.34422270e+02
108             	3.34476572e+02
109             	3.34496894e+02
110             	3.34495647e+02
111             	3.34481914e+02
112             	3.34459965e+02
113             	3.34446834e+02
114             	3.34433994e+02
115             	3.34420624e+02
116             	3.34413248e+02
117             	3.34414914e+02
118             	3.34445365e+02
119             	3.34470201e+02
120             	3.34492559e+02
121             	3.34520507e+02
122             	3.34566457e+02
123             	3.34624711e+02
124             	3.34661733e+02
125             	3.34681682e+02
126             	3.34679679e+02
127             	3.34687658e+02
128             	3.34703121e+02
129             	3.34705491e+02
130             	3.34696284e+02
131             	3.34690294e+02
132             	3.34701574e+02
133             	3.34720176e+02
134             	3.34738216e+02
135             	3.34766134e+02
136             	3.34801432e+02
137             	3.34842297e+02
138             	3.34870767e+02
139             	3.34891757e+02
140             	3.34900408e+02
141             	3.34901863e+02
142             	3.34900696e+02
143             	3.34900772e+02
144             	3.34900970e+02
145             	3.34907619e+02
146             	3.34921809e+02
147             	3.34934413e+02
148             	3.34946356e+02
149             	3.34960713e+02
150             	3.34973812e+02
151             	3.34985257e+02
152             	3.35000750e+02
153             	3.35018378e+02
154             	3.35024286e+02
155             	3.35030627e+02
156             	3.35032016e+02
157             	3.35032182e+02
158             	3.35031943e+02
159             	3.35038695e+02
160             	3.35055640e+02
161             	3.35080022e+02
162             	3.35098163e+02
163             	3.35108906e+02
164             	3.35119001e+02
165             	3.35133264e+02
166             	3.35151993e+02
167             	3.35166630e+02
168             	3.35173624e+02
169             	3.35176100e+02
170             	3.35180949e+02
171             	3.35183756e+02
172             	3.35185195e+02
173             	3.35183736e+02
174             	3.35182148e+02
175             	3.35184399e+02
176             	3.35184068e+02
177             	3.35184183e+02
178             	3.35186690e+02
179             	3.35190553e+02
180             	3.35198301e+02
181             	3.35207858e+02
182             	3.35221690e+02
183             	3.35241381e+02
184             	3.35262982e+02
185             	3.35283267e+02
186             	3.35298913e+02
187             	3.35313494e+02
188             	3.35324031e+02
189             	3.35330988e+02
190             	3.35335612e+02
191             	3.35339491e+02
192             	3.35341833e+02
193             	3.35342322e+02
194             	3.35342291e+02
195             	3.35345630e+02
196             	3.35347251e+02
197             	3.35346457e+02
198             	3.35345598e+02
199             	3.35346591e+02
200             	3.35349152e+02
201             	3.35352625e+02
202             	3.35355456e+02
203             	3.35360344e+02
204             	3.35367282e+02
205             	3.35374574e+02
206             	3.35379811e+02
207             	3.35384826e+02
208             	3.35391813e+02
209             	3.35400781e+02
210             	3.35408777e+02
211             	3.35414902e+02
212             	3.35420355e+02
213             	3.35422884e+02
214             	3.35423529e+02
215             	3.35423419e+02
216             	3.35422481e+02
217             	3.35421874e+02
218             	3.35420926e+02
219             	3.35420243e+02
220             	3.35419645e+02
221             	3.35418414e+02
222             	3.35417835e+02
223             	3.35420109e+02
224             	3.35422472e+02
225             	3.35427247e+02
226             	3.35431420e+02
227             	3.35436567e+02
228             	3.35442481e+02
229             	3.35447569e+02
230             	3.35452104e+02
231             	3.35455755e+02
232             	3.35457860e+02
233             	3.35460289e+02
234             	3.35460628e+02
235             	3.35460371e+02
236             	3.35459026e+02
237             	3.35457009e+02
238             	3.35455285e+02
239             	3.35453195e+02
240             	3.35452123e+02
241             	3.35452849e+02
242             	3.35454228e+02
243             	3.35456795e+02
244             	3.35460759e+02
245             	3.35465836e+02
246             	3.35468445e+02
247             	3.35469629e+02
248             	3.35470588e+02
249             	3.35470880e+02
250             	3.35470926e+02
251             	3.35469893e+02
252             	3.35468324e+02
253             	3.35467949e+02
254             	3.35468988e+02
255             	3.35471663e+02
256             	3.35475119e+02
257             	3.35477202e+02
258             	3.35479820e+02
259             	3.35483052e+02
260             	3.35486270e+02
261             	3.35489043e+02
262             	3.35491300e+02
263             	3.35491688e+02
264             	3.35491324e+02
265             	3.35491061e+02
266             	3.35490097e+02
267             	3.35488331e+02
268             	3.35486807e+02
269             	3.35485532e+02
270             	3.35483250e+02
271             	3.35482147e+02
272             	3.35482654e+02
273             	3.35483652e+02
274             	3.35484739e+02
275             	3.35485506e+02
276             	3.35485644e+02
277             	3.35485995e+02
278             	3.35485304e+02
279             	3.35484738e+02
280             	3.35484748e+02
281             	3.35484717e+02
282             	3.35484845e+02
283             	3.35485454e+02
284             	3.35485971e+02
285             	3.35486481e+02
286             	3.35488103e+02
287             	3.35489786e+02
288             	3.35491743e+02
289             	3.35491801e+02
290             	3.35493770e+02
291             	3.35496989e+02
292             	3.35500578e+02
293             	3.35504076e+02
294             	3.35507815e+02
295             	3.35512379e+02
296             	3.35516845e+02
297             	3.35521148e+02
298             	3.35525954e+02
299             	3.35530291e+02
300             	3.35534311e+02
301             	3.35538898e+02
302             	3.35543669e+02
303             	3.35548635e+02
304             	3.35554174e+02
305             	3.35559634e+02
306             	3.35564843e+02
307             	3.35570031e+02
308             	3.35574181e+02
309             	3.35577134e+02
310             	3.35579124e+02
311             	3.35579431e+02
312             	3.35578372e+02
313             	3.35576856e+02
314             	3.35574238e+02
315             	3.35570728e+02
316             	3.35567044e+02
317             	3.35562714e+02
318             	3.35558031e+02
319             	3.35553653e+02
320             	3.35548770e+02
321             	3.35543539e+02
322             	3.35539351e+02
323             	3.35535649e+02
324             	3.35532027e+02
325             	3.35528943e+02
326             	3.35525931e+02
327             	3.35523348e+02
328             	3.35521591e+02
329             	3.35520018e+02
330             	3.35518198e+02
331             	3.35517224e+02
332             	3.35516666e+02
333             	3.35516407e+02
334             	3.35516800e+02
335             	3.35516706e+02
336             	3.35516833e+02
337             	3.35517697e+02
338             	3.35518564e+02
339             	3.35519279e+02
340             	3.35520246e+02
341             	3.35520796e+02
342             	3.35521385e+02
343             	3.35521955e+02
344             	3.35521888e+02
345             	3.35521508e+02
346             	3.35521496e+02
347             	3.35520794e+02
348             	3.35520192e+02
349             	3.35520145e+02
350             	3.35519297e+02
351             	3.35518337e+02
352             	3.35518014e+02
353             	3.35517719e+02
354             	3.35517510e+02
355             	3.35517813e+02
356             	3.35518094e+02
357             	3.35518492e+02
358             	3.35519416e+02
359             	3.35520126e+02
360             	3.35520590e+02
361             	3.35521234e+02
362             	3.35521409e+02
363             	3.35521209e+02
364             	3.35521233e+02
365             	3.35520846e+02
366             	3.35520317e+02
367             	3.35520034e+02
368             	3.35519273e+02
369             	3.35518627e+02
370             	3.35518564e+02
371             	3.35518479e+02
372             	3.35518627e+02
373             	3.35519588e+02
374             	3.35520500e+02
375             	3.35521286e+02
376             	3.35522389e+02
377             	3.35523475e+02
378             	3.35524805e+02
379             	3.35526804e+02
380             	3.35528601e+02
381             	3.35530272e+02
382             	3.35532095e+02
383             	3.35533728e+02
384             	3.35535309e+02
385             	3.35537186e+02
386             	3.35538502e+02
387             	3.35539183e+02
388             	3.35539653e+02
389             	3.35539327e+02
390             	3.35538738e+02
391             	3.35538125e+02
392             	3.35536738e+02
393             	3.35534760e+02
394             	3.35532980e+02
395             	3.35531044e+02
396             	3.35529010e+02
397             	3.35527393e+02
398             	3.35525694e+02
399             	3.35524220e+02
400             	3.35523509e+02
401             	3.35522992e+02
402             	3.35522829e+02
403             	3.35523611e+02
404             	3.35524322e+02
405             	3.35525607e+02
406             	3.35527810e+02
407             	3.35529960e+02
408             	3.35531809e+02
409             	3.35533917e+02
410             	3.35535605e+02
411             	3.35536936e+02
412             	3.35538290e+02
413             	3.35538904e+02
414             	3.35539342e+02
415             	3.35539475e+02
416             	3.35538692e+02
417             	3.35537253e+02
418             	3.35535802e+02
419             	3.35533914e+02
420             	3.35532361e+02
421             	3.35531148e+02
422             	3.35529423e+02
423             	3.35528227e+02
424             	3.35527554e+02
425             	3.35526683e+02
426             	3.35526098e+02
427             	3.35526532e+02
428             	3.35527407e+02
429             	3.35528764e+02
430             	3.35530989e+02
431             	3.35533288e+02
432             	3.35535766e+02
433             	3.35538487e+02
434             	3.35540995e+02
435             	3.35543368e+02
436             	3.35545926e+02
437             	3.35547839e+02
438             	3.35549003e+02
439             	3.35549954e+02
440             	3.35550056e+02
441             	3.35549494e+02
442             	3.35548976e+02
443             	3.35548205e+02
444             	3.35546867e+02
445             	3.35545256e+02
446             	3.35542776e+02
447             	3.35539862e+02
448             	3.35537904e+02
449             	3.35536207e+02
450             	3.35533769e+02
451             	3.35531534e+02
452             	3.35529711e+02
453             	3.35528861e+02
454             	3.35529487e+02
455             	3.35530770e+02
456             	3.35532297e+02
457             	3.35534717e+02
458             	3.35537436e+02
459             	3.35540249e+02
460             	3.35543213e+02
461             	3.35545313e+02
462             	3.35546956e+02
463             	3.35548041e+02
464             	3.35548186e+02
465             	3.35547489e+02
466             	3.35546598e+02
467             	3.35545022e+02
468             	3.35542971e+02
469             	3.35541014e+02
470             	3.35538561e+02
471             	3.35535920e+02
472             	3.35533494e+02
473             	3.35530824e+02
474             	3.35528394e+02
475             	3.35526992e+02
476             	3.35526025e+02
477             	3.35525423e+02
478             	3.35525740e+02
479             	3.35526541e+02
480             	3.35527956e+02
481             	3.35530343e+02
482             	3.35533108e+02
483             	3.35535491e+02
484             	3.35538494e+02
485             	3.35541472e+02
486             	3.35544160e+02
487             	3.35546499e+02
488             	3.35547693e+02
489             	3.35547985e+02
490             	3.35548545e+02
491             	3.35547710e+02
492             	3.35546505e+02
493             	3.35545267e+02
494             	3.35543321e+02
495             	3.35541066e+02
496             	3.35539777e+02
497             	3.35538550e+02
498             	3.35537473e+02
499             	3.35536962e+02
500             	3.35536679e+02
501             	3.35536163e+02
502             	3.35536883e+02
503             	3.35538295e+02
504             	3.35540189e+02
505             	3.35542935e+02
506             	3.35545774e+02
507             	3.35548634e+02
508             	3.35551741e+02
509             	3.35554334e+02
510             	3.35555920e+02
511             	3.35557224e+02
512             	3.35557705e+02
513             	3.35557262e+02
514             	3.35556184e+02
515             	3.35553778e+02
516             	3.35549846e+02
517             	3.35546817e+02
518             	3.35543284e+02
519             	3.35539386e+02
520             	3.35535810e+02
521             	3.35531595e+02
522             	3.35526688e+02
523             	3.35522136e+02
524             	3.35517836e+02
525             	3.35514383e+02
526             	3.35512386e+02
527             	3.35511230e+02
528             	3.35510948e+02
529             	3.35512070e+02
530             	3.35513939e+02
531             	3.35516456e+02
532             	3.35519934e+02
533             	3.35523714e+02
534             	3.35525740e+02
535             	3.35528171e+02
536             	3.35530612e+02
537             	3.35532398e+02
538             	3.35534087e+02
539             	3.35534295e+02
540             	3.35533201e+02
541             	3.35531570e+02
542             	3.35528742e+02
543             	3.35526050e+02
544             	3.35522650e+02
545             	3.35518541e+02
546             	3.35514432e+02
547             	3.35511105e+02
548             	3.35508306e+02
549             	3.35506815e+02
550             	3.35506408e+02
551             	3.35506281e+02
552             	3.35506789e+02
553             	3.35508821e+02
554             	3.35511674e+02
555             	3.35515022e+02
556             	3.35519508e+02
557             	3.35523413e+02
558             	3.35527910e+02
559             	3.35533073e+02
560             	3.35538208e+02
561             	3.35543061e+02
562             	3.35547934e+02
563             	3.35551898e+02
564             	3.35554886e+02
565             	3.35557772e+02
566             	3.35558984e+02
567             	3.35559084e+02
568             	3.35558285e+02
569             	3.35556151e+02
570             	3.35553181e+02
571             	3.35550067e+02
572             	3.35546425e+02
573             	3.35542430e+02
574             	3.35538689e+02
575             	3.35535176e+02
576             	3.35532084e+02
577             	3.35529839e+02
578             	3.35527929e+02
579             	3.35526581e+02
580             	3.35526390e+02
581             	3.35526637e+02
582             	3.35527224e+02
583             	3.35528667e+02
584             	3.35529967e+02
585             	3.35531349e+02
586             	3.35533099e+02
587             	3.35534307e+02
588             	3.35535199e+02
589             	3.35536433e+02
590             	3.35537319e+02
591             	3.35537412e+02
592             	3.35537857e+02
593             	3.35537612e+02
594             	3.35536830e+02
595             	3.35536007e+02
596             	3.35534698e+02
597             	3.35533518e+02
598             	3.35533191e+02
599             	3.35532936e+02
600             	3.35532911e+02
601             	3.35533753e+02
602             	3.35534997e+02
603             	3.35536865e+02
604             	3.35539014e+02
605             	3.35541021e+02
606             	3.35543067e+02
607             	3.35545648e+02
608             	3.35548167e+02
609             	3.35551081e+02
610             	3.35553029e+02
611             	3.35554061e+02
612             	3.35555079e+02
613             	3.35556024e+02
614             	3.35555897e+02
615             	3.35554043e+02
616             	3.35553281e+02
617             	3.35552189e+02
618             	3.35550057e+02
619             	3.35547315e+02
620             	3.35543982e+02
621             	3.35540690e+02
