# Region        : cellZone component_4
# Cells         : 144
# Volume        : 2.77188490e-01
# Time          	volAverage(T)
1               	3.00403119e+02
2               	3.00800678e+02
3               	3.01174779e+02
4               	3.01535635e+02
5               	3.01891204e+02
6               	3.02243074e+02
7               	3.02591203e+02
8               	3.02936069e+02
9               	3.03277839e+02
10              	3.03617175e+02
11              	3.03954238e+02
12              	3.04289127e+02
13              	3.04622122e+02
14              	3.04953180e+02
15              	3.05282611e+02
16              	3.05609653e+02
17              	3.05934480e+02
18              	3.06256637e+02
19              	3.06576781e+02
20              	3.06894942e+02
21              	3.07210561e+02
22              	3.07521488e+02
23              	3.07828682e+02
24              	3.08132754e+02
25              	3.08435034e+02
26              	3.08733190e+02
27              	3.09030607e+02
28              	3.09325315e+02
29              	3.09618776e+02
30              	3.09911128e+02
31              	3.10202875e+02
32              	3.10494847e+02
33              	3.10786051e+02
34              	3.11074369e+02
35              	3.11360385e+02
36              	3.11644739e+02
37              	3.11927365e+02
38              	3.12207021e+02
39              	3.12483658e+02
40              	3.12757317e+02
41              	3.13027950e+02
42              	3.13296073e+02
43              	3.13560270e+02
44              	3.13822593e+02
45              	3.14084334e+02
46              	3.14344719e+02
47              	3.14603634e+02
48              	3.14861093e+02
49              	3.15119265e+02
50              	3.15377152e+02
51              	3.15633042e+02
52              	3.15886723e+02
53              	3.16138756e+02
54              	3.16387028e+02
55              	3.16630689e+02
56              	3.16872824e+02
57              	3.17114933e+02
58              	3.17355203e+02
59              	3.17594559e+02
60              	3.17833618e+02
61              	3.18072962e+02
62              	3.18312629e+02
63              	3.18553568e+02
64              	3.18793429e+02
65              	3.19029162e+02
66              	3.19261251e+02
67              	3.19487558e+02
68              	3.19711385e+02
69              	3.19931854e+02
70              	3.20148741e+02
71              	3.20362596e+02
72              	3.20575995e+02
73              	3.20787644e+02
74              	3.21000608e+02
75              	3.21215244e+02
76              	3.21431214e+02
77              	3.21646295e+02
78              	3.21855023e+02
79              	3.22061399e+02
80              	3.22263582e+02
81              	3.22461076e+02
82              	3.22656454e+02
83              	3.22851318e+02
84              	3.23047326e+02
85              	3.23242304e+02
86              	3.23437910e+02
87              	3.23632990e+02
88              	3.23825898e+02
89              	3.24017921e+02
90              	3.24206896e+02
91              	3.24395244e+02
92              	3.24581377e+02
93              	3.24764342e+02
94              	3.24946391e+02
95              	3.25123760e+02
96              	3.25299023e+02
97              	3.25473056e+02
98              	3.25646957e+02
99              	3.25821569e+02
100             	3.25997256e+02
101             	3.26172906e+02
102             	3.26348069e+02
103             	3.26518977e+02
104             	3.26689402e+02
105             	3.26857255e+02
106             	3.27023029e+02
107             	3.27184212e+02
108             	3.27345719e+02
109             	3.27505529e+02
110             	3.27663347e+02
111             	3.27821880e+02
112             	3.27979794e+02
113             	3.28137208e+02
114             	3.28294324e+02
115             	3.28450001e+02
116             	3.28604939e+02
117             	3.28757223e+02
118             	3.28908005e+02
119             	3.29057328e+02
120             	3.29204185e+02
121             	3.29348006e+02
122             	3.29491093e+02
123             	3.29632539e+02
124             	3.29774566e+02
125             	3.29914205e+02
126             	3.30053701e+02
127             	3.30192186e+02
128             	3.30328748e+02
129             	3.30467618e+02
130             	3.30605441e+02
131             	3.30742521e+02
132             	3.30877885e+02
133             	3.31008609e+02
134             	3.31137110e+02
135             	3.31264501e+02
136             	3.31389338e+02
137             	3.31511601e+02
138             	3.31631498e+02
139             	3.31749119e+02
140             	3.31865896e+02
141             	3.31981167e+02
142             	3.32096629e+02
143             	3.32209926e+02
144             	3.32322535e+02
145             	3.32435820e+02
146             	3.32546587e+02
147             	3.32656381e+02
148             	3.32767242e+02
149             	3.32877004e+02
150             	3.32986247e+02
151             	3.33094391e+02
152             	3.33202858e+02
153             	3.33311102e+02
154             	3.33419181e+02
155             	3.33526944e+02
156             	3.33634752e+02
157             	3.33739090e+02
158             	3.33838109e+02
159             	3.33937350e+02
160             	3.34033942e+02
161             	3.34128920e+02
162             	3.34224448e+02
163             	3.34317302e+02
164             	3.34408563e+02
165             	3.34500053e+02
166             	3.34588271e+02
167             	3.34674568e+02
168             	3.34761191e+02
169             	3.34846130e+02
170             	3.34930023e+02
171             	3.35012994e+02
172             	3.35097018e+02
173             	3.35180535e+02
174             	3.35264670e+02
175             	3.35349586e+02
176             	3.35433090e+02
177             	3.35517742e+02
178             	3.35599540e+02
179             	3.35681283e+02
180             	3.35761086e+02
181             	3.35838927e+02
182             	3.35915013e+02
183             	3.35990359e+02
184             	3.36064513e+02
185             	3.36137284e+02
186             	3.36208470e+02
187             	3.36280042e+02
188             	3.36349328e+02
189             	3.36417182e+02
190             	3.36484301e+02
191             	3.36550785e+02
192             	3.36616764e+02
193             	3.36684165e+02
194             	3.36750658e+02
195             	3.36818914e+02
196             	3.36887010e+02
197             	3.36952731e+02
198             	3.37019029e+02
199             	3.37083549e+02
200             	3.37146890e+02
201             	3.37211253e+02
202             	3.37273811e+02
203             	3.37335387e+02
204             	3.37396179e+02
205             	3.37457514e+02
206             	3.37517131e+02
207             	3.37575906e+02
208             	3.37634992e+02
209             	3.37692224e+02
210             	3.37748821e+02
211             	3.37804838e+02
212             	3.37859010e+02
213             	3.37912235e+02
214             	3.37965694e+02
215             	3.38018131e+02
216             	3.38070056e+02
217             	3.38121715e+02
218             	3.38172051e+02
219             	3.38222478e+02
220             	3.38271831e+02
221             	3.38320264e+02
222             	3.38368043e+02
223             	3.38415631e+02
224             	3.38463630e+02
225             	3.38510882e+02
226             	3.38558096e+02
227             	3.38605792e+02
228             	3.38652376e+02
229             	3.38698560e+02
230             	3.38744849e+02
231             	3.38789633e+02
232             	3.38833353e+02
233             	3.38876831e+02
234             	3.38918922e+02
235             	3.38960197e+02
236             	3.39000732e+02
237             	3.39041024e+02
238             	3.39079847e+02
239             	3.39117791e+02
240             	3.39155502e+02
241             	3.39192218e+02
242             	3.39228284e+02
243             	3.39263414e+02
244             	3.39298570e+02
245             	3.39333667e+02
246             	3.39369071e+02
247             	3.39404118e+02
248             	3.39439628e+02
249             	3.39475840e+02
250             	3.39512022e+02
251             	3.39547809e+02
252             	3.39583735e+02
253             	3.39619357e+02
254             	3.39655067e+02
255             	3.39689849e+02
256             	3.39723756e+02
257             	3.39757340e+02
258             	3.39790707e+02
259             	3.39822993e+02
260             	3.39854180e+02
261             	3.39885211e+02
262             	3.39915538e+02
263             	3.39945522e+02
264             	3.39975273e+02
265             	3.40004708e+02
266             	3.40033547e+02
267             	3.40062019e+02
268             	3.40090172e+02
269             	3.40117649e+02
270             	3.40144570e+02
271             	3.40171452e+02
272             	3.40197298e+02
273             	3.40222643e+02
274             	3.40247654e+02
275             	3.40272601e+02
276             	3.40297017e+02
277             	3.40320941e+02
278             	3.40345249e+02
279             	3.40369847e+02
280             	3.40394432e+02
281             	3.40419133e+02
282             	3.40443921e+02
283             	3.40468760e+02
284             	3.40493147e+02
285             	3.40517168e+02
286             	3.40540718e+02
287             	3.40563658e+02
288             	3.40585670e+02
289             	3.40606994e+02
290             	3.40627712e+02
291             	3.40647962e+02
292             	3.40667638e+02
293             	3.40686956e+02
294             	3.40706009e+02
295             	3.40724606e+02
296             	3.40742808e+02
297             	3.40760612e+02
298             	3.40778269e+02
299             	3.40795864e+02
300             	3.40813283e+02
301             	3.40830685e+02
302             	3.40848106e+02
303             	3.40865612e+02
304             	3.40883135e+02
305             	3.40900925e+02
306             	3.40918914e+02
307             	3.40937158e+02
308             	3.40955579e+02
309             	3.40974144e+02
310             	3.40992790e+02
311             	3.41011528e+02
312             	3.41030073e+02
313             	3.41048371e+02
314             	3.41066146e+02
315             	3.41083369e+02
316             	3.41100046e+02
317             	3.41116241e+02
318             	3.41132017e+02
319             	3.41147362e+02
320             	3.41162408e+02
321             	3.41177194e+02
322             	3.41191782e+02
323             	3.41206092e+02
324             	3.41220141e+02
325             	3.41233996e+02
326             	3.41247659e+02
327             	3.41261318e+02
328             	3.41274951e+02
329             	3.41288555e+02
330             	3.41302174e+02
331             	3.41316000e+02
332             	3.41329699e+02
333             	3.41343567e+02
334             	3.41357304e+02
335             	3.41371037e+02
336             	3.41384775e+02
337             	3.41398457e+02
338             	3.41412108e+02
339             	3.41425624e+02
340             	3.41438902e+02
341             	3.41452016e+02
342             	3.41464803e+02
343             	3.41477261e+02
344             	3.41489166e+02
345             	3.41500629e+02
346             	3.41511550e+02
347             	3.41522193e+02
348             	3.41532521e+02
349             	3.41542585e+02
350             	3.41552426e+02
351             	3.41562038e+02
352             	3.41571436e+02
353             	3.41580738e+02
354             	3.41589965e+02
355             	3.41599202e+02
356             	3.41608482e+02
357             	3.41617864e+02
358             	3.41627311e+02
359             	3.41636989e+02
360             	3.41646848e+02
361             	3.41656871e+02
362             	3.41666813e+02
363             	3.41676805e+02
364             	3.41686886e+02
365             	3.41697426e+02
366             	3.41707426e+02
367             	3.41717149e+02
368             	3.41726580e+02
369             	3.41735925e+02
370             	3.41745129e+02
371             	3.41754020e+02
372             	3.41762757e+02
373             	3.41771243e+02
374             	3.41779358e+02
375             	3.41787247e+02
376             	3.41794719e+02
377             	3.41801914e+02
378             	3.41808862e+02
379             	3.41815688e+02
380             	3.41822460e+02
381             	3.41829147e+02
382             	3.41835832e+02
383             	3.41842499e+02
384             	3.41849113e+02
385             	3.41855927e+02
386             	3.41863108e+02
387             	3.41870640e+02
388             	3.41878504e+02
389             	3.41886682e+02
390             	3.41895069e+02
391             	3.41903611e+02
392             	3.41912175e+02
393             	3.41920955e+02
394             	3.41929122e+02
395             	3.41936884e+02
396             	3.41944384e+02
397             	3.41951570e+02
398             	3.41958431e+02
399             	3.41965028e+02
400             	3.41971343e+02
401             	3.41977349e+02
402             	3.41983100e+02
403             	3.41988635e+02
404             	3.41993952e+02
405             	3.41998894e+02
406             	3.42004102e+02
407             	3.42009402e+02
408             	3.42014704e+02
409             	3.42019956e+02
410             	3.42025386e+02
411             	3.42030890e+02
412             	3.42036311e+02
413             	3.42041765e+02
414             	3.42047184e+02
415             	3.42052834e+02
416             	3.42058607e+02
417             	3.42064452e+02
418             	3.42070241e+02
419             	3.42076161e+02
420             	3.42082157e+02
421             	3.42088177e+02
422             	3.42094376e+02
423             	3.42100493e+02
424             	3.42106465e+02
425             	3.42112402e+02
426             	3.42118353e+02
427             	3.42124293e+02
428             	3.42130162e+02
429             	3.42135954e+02
430             	3.42141664e+02
431             	3.42147288e+02
432             	3.42152820e+02
433             	3.42158196e+02
434             	3.42162791e+02
435             	3.42166927e+02
436             	3.42170769e+02
437             	3.42174574e+02
438             	3.42178406e+02
439             	3.42182283e+02
440             	3.42186217e+02
441             	3.42190220e+02
442             	3.42194375e+02
443             	3.42198612e+02
444             	3.42202871e+02
445             	3.42207116e+02
446             	3.42211390e+02
447             	3.42215622e+02
448             	3.42219758e+02
449             	3.42223790e+02
450             	3.42227731e+02
451             	3.42231532e+02
452             	3.42235179e+02
453             	3.42238678e+02
454             	3.42242070e+02
455             	3.42245359e+02
456             	3.42248547e+02
457             	3.42251675e+02
458             	3.42254776e+02
459             	3.42257873e+02
460             	3.42260975e+02
461             	3.42264129e+02
462             	3.42267344e+02
463             	3.42270645e+02
464             	3.42274031e+02
465             	3.42277524e+02
466             	3.42281114e+02
467             	3.42284836e+02
468             	3.42288657e+02
469             	3.42292589e+02
470             	3.42296581e+02
471             	3.42300730e+02
472             	3.42304713e+02
473             	3.42308622e+02
474             	3.42312459e+02
475             	3.42316206e+02
476             	3.42319816e+02
477             	3.42323276e+02
478             	3.42326565e+02
479             	3.42329746e+02
480             	3.42332757e+02
481             	3.42335731e+02
482             	3.42338687e+02
483             	3.42341561e+02
484             	3.42344314e+02
485             	3.42347027e+02
486             	3.42349686e+02
487             	3.42352351e+02
488             	3.42355019e+02
489             	3.42357733e+02
490             	3.42360522e+02
491             	3.42363247e+02
492             	3.42365952e+02
493             	3.42368671e+02
494             	3.42371392e+02
495             	3.42374064e+02
496             	3.42376717e+02
497             	3.42379438e+02
498             	3.42382246e+02
499             	3.42385117e+02
500             	3.42388082e+02
501             	3.42391153e+02
502             	3.42394316e+02
503             	3.42397501e+02
504             	3.42400587e+02
505             	3.42403558e+02
506             	3.42406495e+02
507             	3.42409290e+02
508             	3.42411938e+02
509             	3.42414531e+02
510             	3.42417042e+02
511             	3.42419467e+02
512             	3.42421783e+02
513             	3.42423995e+02
514             	3.42426112e+02
515             	3.42428108e+02
516             	3.42430091e+02
517             	3.42432128e+02
518             	3.42434216e+02
519             	3.42436379e+02
520             	3.42438627e+02
521             	3.42440976e+02
522             	3.42443484e+02
523             	3.42446191e+02
524             	3.42449013e+02
525             	3.42451927e+02
526             	3.42454762e+02
527             	3.42457587e+02
528             	3.42460383e+02
529             	3.42463122e+02
530             	3.42465773e+02
531             	3.42468340e+02
532             	3.42470782e+02
533             	3.42473133e+02
534             	3.42475347e+02
535             	3.42477473e+02
536             	3.42479489e+02
537             	3.42481561e+02
538             	3.42483627e+02
539             	3.42485696e+02
540             	3.42487760e+02
541             	3.42489906e+02
542             	3.42492058e+02
543             	3.42494124e+02
544             	3.42496140e+02
545             	3.42498167e+02
546             	3.42500139e+02
547             	3.42502077e+02
548             	3.42503999e+02
549             	3.42505909e+02
550             	3.42507813e+02
551             	3.42509715e+02
552             	3.42511605e+02
553             	3.42513465e+02
554             	3.42515301e+02
555             	3.42517158e+02
556             	3.42519028e+02
557             	3.42520908e+02
558             	3.42522801e+02
559             	3.42524707e+02
560             	3.42526630e+02
561             	3.42528514e+02
562             	3.42530362e+02
563             	3.42532179e+02
564             	3.42533986e+02
565             	3.42535724e+02
566             	3.42537483e+02
567             	3.42539241e+02
568             	3.42540973e+02
569             	3.42542682e+02
570             	3.42544366e+02
571             	3.42546022e+02
572             	3.42547649e+02
573             	3.42549248e+02
574             	3.42550824e+02
575             	3.42552376e+02
576             	3.42553904e+02
577             	3.42555427e+02
578             	3.42556950e+02
579             	3.42558461e+02
580             	3.42559967e+02
581             	3.42561467e+02
582             	3.42562960e+02
583             	3.42564447e+02
584             	3.42565923e+02
585             	3.42567383e+02
586             	3.42568855e+02
587             	3.42570319e+02
588             	3.42571778e+02
589             	3.42573231e+02
590             	3.42574667e+02
591             	3.42576118e+02
592             	3.42577553e+02
593             	3.42579007e+02
594             	3.42580456e+02
595             	3.42581871e+02
596             	3.42583274e+02
597             	3.42584643e+02
598             	3.42585992e+02
599             	3.42587329e+02
600             	3.42588639e+02
601             	3.42589936e+02
602             	3.42591224e+02
603             	3.42592481e+02
604             	3.42593723e+02
605             	3.42594960e+02
606             	3.42596194e+02
607             	3.42597418e+02
608             	3.42598631e+02
609             	3.42599837e+02
610             	3.42601036e+02
611             	3.42602218e+02
612             	3.42603390e+02
613             	3.42604576e+02
614             	3.42605760e+02
615             	3.42606938e+02
616             	3.42608120e+02
617             	3.42609326e+02
618             	3.42610523e+02
619             	3.42611689e+02
620             	3.42612832e+02
621             	3.42613972e+02
