# Region        : cellZone component_3
# Cells         : 112
# Volume        : 2.21491694e-01
# Time          	volAverage(T)
1               	3.00358809e+02
2               	3.00714059e+02
3               	3.01047643e+02
4               	3.01368836e+02
5               	3.01684436e+02
6               	3.01995679e+02
7               	3.02303263e+02
8               	3.02607804e+02
9               	3.02909494e+02
10              	3.03208202e+02
11              	3.03494060e+02
12              	3.03782718e+02
13              	3.04068702e+02
14              	3.04353078e+02
15              	3.04634179e+02
16              	3.04911134e+02
17              	3.05185906e+02
18              	3.05456253e+02
19              	3.05722537e+02
20              	3.05986124e+02
21              	3.06246789e+02
22              	3.06504930e+02
23              	3.06758936e+02
24              	3.07009417e+02
25              	3.07255382e+02
26              	3.07497787e+02
27              	3.07734991e+02
28              	3.07969033e+02
29              	3.08200069e+02
30              	3.08427432e+02
31              	3.08651552e+02
32              	3.08873415e+02
33              	3.09091594e+02
34              	3.09305649e+02
35              	3.09516798e+02
36              	3.09725322e+02
37              	3.09930606e+02
38              	3.10134856e+02
39              	3.10339113e+02
40              	3.10543087e+02
41              	3.10748372e+02
42              	3.10953207e+02
43              	3.11158201e+02
44              	3.11361914e+02
45              	3.11563659e+02
46              	3.11762960e+02
47              	3.11963111e+02
48              	3.12161558e+02
49              	3.12362092e+02
50              	3.12563280e+02
51              	3.12764890e+02
52              	3.12965891e+02
53              	3.13165196e+02
54              	3.13362402e+02
55              	3.13556791e+02
56              	3.13748869e+02
57              	3.13937989e+02
58              	3.14122842e+02
59              	3.14305575e+02
60              	3.14486871e+02
61              	3.14668007e+02
62              	3.14846250e+02
63              	3.15021602e+02
64              	3.15194508e+02
65              	3.15366086e+02
66              	3.15538136e+02
67              	3.15709358e+02
68              	3.15880820e+02
69              	3.16053424e+02
70              	3.16226542e+02
71              	3.16401399e+02
72              	3.16576308e+02
73              	3.16752495e+02
74              	3.16928326e+02
75              	3.17101546e+02
76              	3.17269249e+02
77              	3.17431021e+02
78              	3.17587837e+02
79              	3.17738796e+02
80              	3.17885266e+02
81              	3.18028962e+02
82              	3.18170749e+02
83              	3.18309746e+02
84              	3.18447802e+02
85              	3.18583480e+02
86              	3.18720903e+02
87              	3.18858604e+02
88              	3.18997969e+02
89              	3.19138189e+02
90              	3.19279538e+02
91              	3.19418490e+02
92              	3.19556628e+02
93              	3.19692955e+02
94              	3.19827320e+02
95              	3.19959228e+02
96              	3.20090033e+02
97              	3.20219286e+02
98              	3.20347082e+02
99              	3.20472009e+02
100             	3.20596009e+02
101             	3.20716855e+02
102             	3.20834715e+02
103             	3.20946220e+02
104             	3.21057842e+02
105             	3.21167376e+02
106             	3.21275330e+02
107             	3.21380984e+02
108             	3.21486552e+02
109             	3.21592398e+02
110             	3.21697685e+02
111             	3.21801942e+02
112             	3.21904122e+02
113             	3.22006855e+02
114             	3.22109611e+02
115             	3.22211554e+02
116             	3.22311833e+02
117             	3.22410447e+02
118             	3.22507619e+02
119             	3.22601118e+02
120             	3.22694864e+02
121             	3.22785965e+02
122             	3.22873811e+02
123             	3.22960012e+02
124             	3.23042379e+02
125             	3.23125901e+02
126             	3.23211133e+02
127             	3.23296358e+02
128             	3.23381256e+02
129             	3.23465552e+02
130             	3.23548720e+02
131             	3.23631525e+02
132             	3.23713716e+02
133             	3.23793831e+02
134             	3.23873198e+02
135             	3.23950549e+02
136             	3.24026522e+02
137             	3.24101213e+02
138             	3.24178277e+02
139             	3.24256073e+02
140             	3.24334170e+02
141             	3.24411743e+02
142             	3.24487533e+02
143             	3.24561946e+02
144             	3.24635393e+02
145             	3.24706265e+02
146             	3.24774006e+02
147             	3.24841607e+02
148             	3.24908696e+02
149             	3.24973615e+02
150             	3.25038477e+02
151             	3.25102098e+02
152             	3.25164296e+02
153             	3.25224656e+02
154             	3.25282848e+02
155             	3.25339258e+02
156             	3.25394236e+02
157             	3.25448497e+02
158             	3.25502593e+02
159             	3.25557404e+02
160             	3.25612567e+02
161             	3.25667129e+02
162             	3.25722212e+02
163             	3.25777195e+02
164             	3.25832298e+02
165             	3.25886212e+02
166             	3.25939701e+02
167             	3.25991608e+02
168             	3.26042101e+02
169             	3.26090980e+02
170             	3.26138801e+02
171             	3.26186021e+02
172             	3.26232572e+02
173             	3.26278361e+02
174             	3.26323048e+02
175             	3.26366466e+02
176             	3.26409686e+02
177             	3.26448489e+02
178             	3.26487728e+02
179             	3.26527241e+02
180             	3.26567034e+02
181             	3.26606817e+02
182             	3.26646807e+02
183             	3.26687218e+02
184             	3.26727700e+02
185             	3.26768036e+02
186             	3.26808289e+02
187             	3.26847657e+02
188             	3.26886284e+02
189             	3.26923308e+02
190             	3.26959602e+02
191             	3.26994592e+02
192             	3.27029534e+02
193             	3.27063140e+02
194             	3.27096875e+02
195             	3.27129990e+02
196             	3.27163057e+02
197             	3.27195816e+02
198             	3.27228312e+02
199             	3.27260441e+02
200             	3.27292003e+02
201             	3.27322953e+02
202             	3.27352385e+02
203             	3.27380602e+02
204             	3.27408089e+02
205             	3.27436245e+02
206             	3.27464376e+02
207             	3.27491292e+02
208             	3.27518221e+02
209             	3.27545240e+02
210             	3.27572090e+02
211             	3.27598805e+02
212             	3.27624396e+02
213             	3.27650063e+02
214             	3.27675056e+02
215             	3.27699754e+02
216             	3.27725549e+02
217             	3.27752233e+02
218             	3.27779479e+02
219             	3.27808285e+02
220             	3.27837234e+02
221             	3.27865619e+02
222             	3.27893330e+02
223             	3.27920005e+02
224             	3.27946734e+02
225             	3.27973473e+02
226             	3.27999190e+02
227             	3.28024297e+02
228             	3.28049562e+02
229             	3.28073466e+02
230             	3.28096517e+02
231             	3.28119235e+02
232             	3.28140904e+02
233             	3.28161963e+02
234             	3.28182943e+02
235             	3.28203216e+02
236             	3.28223176e+02
237             	3.28243333e+02
238             	3.28263593e+02
239             	3.28283874e+02
240             	3.28304508e+02
241             	3.28324656e+02
242             	3.28344852e+02
243             	3.28364913e+02
244             	3.28383836e+02
245             	3.28402840e+02
246             	3.28422413e+02
247             	3.28442379e+02
248             	3.28462144e+02
249             	3.28481627e+02
250             	3.28501454e+02
251             	3.28520330e+02
252             	3.28538713e+02
253             	3.28556653e+02
254             	3.28575151e+02
255             	3.28592402e+02
256             	3.28609362e+02
257             	3.28626328e+02
258             	3.28642908e+02
259             	3.28659278e+02
260             	3.28675358e+02
261             	3.28691007e+02
262             	3.28706242e+02
263             	3.28721524e+02
264             	3.28736225e+02
265             	3.28750710e+02
266             	3.28764890e+02
267             	3.28777909e+02
268             	3.28791270e+02
269             	3.28804776e+02
270             	3.28818546e+02
271             	3.28832334e+02
272             	3.28846085e+02
273             	3.28859758e+02
274             	3.28873766e+02
275             	3.28887834e+02
276             	3.28901816e+02
277             	3.28915678e+02
278             	3.28929202e+02
279             	3.28942812e+02
280             	3.28956382e+02
281             	3.28969806e+02
282             	3.28983098e+02
283             	3.28996227e+02
284             	3.29009179e+02
285             	3.29022011e+02
286             	3.29034708e+02
287             	3.29047252e+02
288             	3.29059657e+02
289             	3.29071932e+02
290             	3.29084064e+02
291             	3.29096071e+02
292             	3.29107934e+02
293             	3.29119654e+02
294             	3.29131228e+02
295             	3.29142670e+02
296             	3.29154026e+02
297             	3.29165280e+02
298             	3.29176429e+02
299             	3.29187458e+02
300             	3.29198350e+02
301             	3.29209126e+02
302             	3.29219758e+02
303             	3.29230284e+02
304             	3.29240688e+02
305             	3.29250990e+02
306             	3.29261200e+02
307             	3.29271316e+02
308             	3.29281340e+02
309             	3.29291287e+02
310             	3.29301173e+02
311             	3.29310945e+02
312             	3.29320631e+02
313             	3.29330215e+02
314             	3.29339643e+02
315             	3.29349048e+02
316             	3.29358351e+02
317             	3.29367604e+02
318             	3.29376772e+02
319             	3.29385869e+02
320             	3.29394704e+02
321             	3.29403543e+02
322             	3.29412323e+02
323             	3.29421037e+02
324             	3.29429612e+02
325             	3.29437975e+02
326             	3.29446313e+02
327             	3.29454582e+02
328             	3.29462769e+02
329             	3.29470883e+02
330             	3.29478870e+02
331             	3.29486806e+02
332             	3.29494663e+02
333             	3.29502453e+02
334             	3.29510176e+02
335             	3.29517839e+02
336             	3.29525426e+02
337             	3.29532982e+02
338             	3.29540483e+02
339             	3.29547881e+02
340             	3.29555255e+02
341             	3.29562571e+02
342             	3.29569811e+02
343             	3.29576977e+02
344             	3.29584038e+02
345             	3.29591049e+02
346             	3.29597996e+02
347             	3.29604884e+02
348             	3.29611693e+02
349             	3.29618447e+02
350             	3.29625127e+02
351             	3.29631732e+02
352             	3.29638255e+02
353             	3.29644561e+02
354             	3.29650874e+02
355             	3.29657110e+02
356             	3.29663268e+02
357             	3.29669323e+02
358             	3.29675329e+02
359             	3.29681280e+02
360             	3.29687182e+02
361             	3.29693009e+02
362             	3.29698806e+02
363             	3.29704569e+02
364             	3.29710275e+02
365             	3.29715929e+02
366             	3.29721526e+02
367             	3.29727055e+02
368             	3.29732519e+02
369             	3.29737934e+02
370             	3.29743317e+02
371             	3.29748650e+02
372             	3.29753955e+02
373             	3.29759223e+02
374             	3.29764395e+02
375             	3.29769534e+02
376             	3.29774607e+02
377             	3.29779579e+02
378             	3.29784466e+02
379             	3.29789210e+02
380             	3.29793937e+02
381             	3.29798498e+02
382             	3.29803101e+02
383             	3.29807672e+02
384             	3.29812235e+02
385             	3.29816796e+02
386             	3.29821352e+02
387             	3.29825872e+02
388             	3.29830349e+02
389             	3.29834775e+02
390             	3.29839143e+02
391             	3.29843445e+02
392             	3.29847702e+02
393             	3.29851920e+02
394             	3.29856106e+02
395             	3.29860265e+02
396             	3.29864395e+02
397             	3.29868492e+02
398             	3.29872551e+02
399             	3.29876562e+02
400             	3.29880521e+02
401             	3.29884426e+02
402             	3.29888279e+02
403             	3.29892083e+02
404             	3.29895846e+02
405             	3.29899572e+02
406             	3.29903264e+02
407             	3.29906928e+02
408             	3.29910562e+02
409             	3.29914169e+02
410             	3.29917749e+02
411             	3.29921300e+02
412             	3.29924821e+02
413             	3.29928317e+02
414             	3.29931788e+02
415             	3.29935235e+02
416             	3.29938658e+02
417             	3.29942056e+02
418             	3.29945426e+02
419             	3.29948766e+02
420             	3.29952075e+02
421             	3.29955348e+02
422             	3.29958586e+02
423             	3.29961786e+02
424             	3.29964947e+02
425             	3.29968071e+02
426             	3.29971157e+02
427             	3.29974206e+02
428             	3.29977220e+02
429             	3.29980200e+02
430             	3.29983146e+02
431             	3.29986059e+02
432             	3.29988938e+02
433             	3.29991784e+02
434             	3.29994598e+02
435             	3.29997380e+02
436             	3.30000130e+02
437             	3.30002849e+02
438             	3.30005542e+02
439             	3.30008197e+02
440             	3.30010834e+02
441             	3.30013449e+02
442             	3.30016043e+02
443             	3.30018616e+02
444             	3.30021166e+02
445             	3.30023693e+02
446             	3.30026196e+02
447             	3.30028672e+02
448             	3.30031122e+02
449             	3.30033546e+02
450             	3.30035943e+02
451             	3.30038316e+02
452             	3.30040664e+02
453             	3.30042989e+02
454             	3.30045287e+02
455             	3.30047561e+02
456             	3.30049807e+02
457             	3.30052026e+02
458             	3.30054219e+02
459             	3.30056387e+02
460             	3.30058529e+02
461             	3.30060649e+02
462             	3.30062746e+02
463             	3.30064822e+02
464             	3.30066878e+02
465             	3.30068913e+02
466             	3.30070930e+02
467             	3.30072929e+02
468             	3.30074909e+02
469             	3.30076853e+02
470             	3.30078789e+02
471             	3.30080705e+02
472             	3.30082603e+02
473             	3.30084485e+02
474             	3.30086348e+02
475             	3.30088191e+02
476             	3.30090006e+02
477             	3.30091808e+02
478             	3.30093587e+02
479             	3.30095352e+02
480             	3.30097101e+02
481             	3.30098834e+02
482             	3.30100551e+02
483             	3.30102234e+02
484             	3.30103909e+02
485             	3.30105568e+02
486             	3.30107209e+02
487             	3.30108826e+02
488             	3.30110421e+02
489             	3.30112001e+02
490             	3.30113561e+02
491             	3.30115109e+02
492             	3.30116642e+02
493             	3.30118172e+02
494             	3.30119675e+02
495             	3.30121172e+02
496             	3.30122649e+02
497             	3.30124112e+02
498             	3.30125559e+02
499             	3.30127036e+02
500             	3.30128436e+02
501             	3.30129850e+02
502             	3.30131254e+02
503             	3.30132646e+02
504             	3.30134019e+02
505             	3.30135339e+02
506             	3.30136636e+02
507             	3.30137906e+02
508             	3.30139193e+02
509             	3.30140528e+02
510             	3.30141809e+02
511             	3.30143099e+02
512             	3.30144362e+02
513             	3.30145623e+02
514             	3.30146825e+02
515             	3.30148045e+02
516             	3.30149249e+02
517             	3.30150441e+02
518             	3.30151637e+02
519             	3.30152842e+02
520             	3.30154055e+02
521             	3.30155260e+02
522             	3.30156457e+02
523             	3.30157601e+02
524             	3.30158728e+02
525             	3.30159821e+02
526             	3.30160881e+02
527             	3.30161905e+02
528             	3.30162893e+02
529             	3.30163869e+02
530             	3.30164855e+02
531             	3.30165842e+02
532             	3.30166831e+02
533             	3.30167802e+02
534             	3.30168794e+02
535             	3.30169778e+02
536             	3.30170754e+02
537             	3.30171716e+02
538             	3.30172654e+02
539             	3.30173578e+02
540             	3.30174491e+02
541             	3.30175444e+02
542             	3.30176390e+02
543             	3.30177326e+02
544             	3.30178270e+02
545             	3.30179217e+02
546             	3.30180155e+02
547             	3.30181088e+02
548             	3.30181983e+02
549             	3.30182863e+02
550             	3.30183707e+02
551             	3.30184532e+02
552             	3.30185311e+02
553             	3.30186094e+02
554             	3.30186877e+02
555             	3.30187646e+02
556             	3.30188399e+02
557             	3.30189160e+02
558             	3.30189927e+02
559             	3.30190693e+02
560             	3.30191461e+02
561             	3.30192224e+02
562             	3.30192984e+02
563             	3.30193741e+02
564             	3.30194489e+02
565             	3.30195231e+02
566             	3.30195976e+02
567             	3.30196716e+02
568             	3.30197451e+02
569             	3.30198181e+02
570             	3.30198903e+02
571             	3.30199618e+02
572             	3.30200327e+02
573             	3.30201030e+02
574             	3.30201726e+02
575             	3.30202412e+02
576             	3.30203081e+02
577             	3.30203746e+02
578             	3.30204404e+02
579             	3.30205055e+02
580             	3.30205700e+02
581             	3.30206339e+02
582             	3.30206975e+02
583             	3.30207607e+02
584             	3.30208266e+02
585             	3.30208882e+02
586             	3.30209507e+02
587             	3.30210128e+02
588             	3.30210736e+02
589             	3.30211311e+02
590             	3.30211880e+02
591             	3.30212442e+02
592             	3.30213007e+02
593             	3.30213576e+02
594             	3.30214139e+02
595             	3.30214702e+02
596             	3.30215260e+02
597             	3.30215816e+02
598             	3.30216353e+02
599             	3.30216882e+02
600             	3.30217401e+02
601             	3.30217890e+02
602             	3.30218387e+02
603             	3.30218889e+02
604             	3.30219429e+02
605             	3.30219954e+02
606             	3.30220488e+02
607             	3.30221024e+02
608             	3.30221559e+02
609             	3.30222070e+02
610             	3.30222568e+02
611             	3.30223063e+02
612             	3.30223536e+02
613             	3.30224000e+02
614             	3.30224455e+02
615             	3.30224913e+02
616             	3.30225368e+02
617             	3.30225826e+02
618             	3.30226285e+02
619             	3.30226741e+02
620             	3.30227201e+02
621             	3.30227644e+02
