# Region        : cellZone component_1
# Cells         : 94
# Volume        : 1.71898979e-01
# Time          	volAverage(T)
1               	3.00370179e+02
2               	3.00732652e+02
3               	3.01062679e+02
4               	3.01370204e+02
5               	3.01663996e+02
6               	3.01947342e+02
7               	3.02221254e+02
8               	3.02486477e+02
9               	3.02744619e+02
10              	3.02996557e+02
11              	3.03243480e+02
12              	3.03485462e+02
13              	3.03727568e+02
14              	3.03969741e+02
15              	3.04208936e+02
16              	3.04445700e+02
17              	3.04668884e+02
18              	3.04868212e+02
19              	3.05055823e+02
20              	3.05246158e+02
21              	3.05431825e+02
22              	3.05602689e+02
23              	3.05758419e+02
24              	3.05901862e+02
25              	3.06034119e+02
26              	3.06157068e+02
27              	3.06279351e+02
28              	3.06409361e+02
29              	3.06547629e+02
30              	3.06681870e+02
31              	3.06779205e+02
32              	3.06872591e+02
33              	3.06948752e+02
34              	3.07026403e+02
35              	3.07122516e+02
36              	3.07223510e+02
37              	3.07331091e+02
38              	3.07440818e+02
39              	3.07543270e+02
40              	3.07638504e+02
41              	3.07725531e+02
42              	3.07809392e+02
43              	3.07895294e+02
44              	3.07992883e+02
45              	3.08058386e+02
46              	3.08092913e+02
47              	3.08104581e+02
48              	3.08118399e+02
49              	3.08133212e+02
50              	3.08155899e+02
51              	3.08192625e+02
52              	3.08231988e+02
53              	3.08267554e+02
54              	3.08300173e+02
55              	3.08330322e+02
56              	3.08364787e+02
57              	3.08411610e+02
58              	3.08459947e+02
59              	3.08516541e+02
60              	3.08572688e+02
61              	3.08623595e+02
62              	3.08667159e+02
63              	3.08704842e+02
64              	3.08734997e+02
65              	3.08756855e+02
66              	3.08766750e+02
67              	3.08773264e+02
68              	3.08785140e+02
69              	3.08797253e+02
70              	3.08812193e+02
71              	3.08831470e+02
72              	3.08855450e+02
73              	3.08883034e+02
74              	3.08916226e+02
75              	3.08965125e+02
76              	3.09023933e+02
77              	3.09085370e+02
78              	3.09137746e+02
79              	3.09180758e+02
80              	3.09210553e+02
81              	3.09241869e+02
82              	3.09274754e+02
83              	3.09306930e+02
84              	3.09337788e+02
85              	3.09366608e+02
86              	3.09393785e+02
87              	3.09419284e+02
88              	3.09443940e+02
89              	3.09467088e+02
90              	3.09489297e+02
91              	3.09510217e+02
92              	3.09530260e+02
93              	3.09549554e+02
94              	3.09568151e+02
95              	3.09586129e+02
96              	3.09604185e+02
97              	3.09622190e+02
98              	3.09639436e+02
99              	3.09655986e+02
100             	3.09671496e+02
101             	3.09685527e+02
102             	3.09698815e+02
103             	3.09710714e+02
104             	3.09721476e+02
105             	3.09731286e+02
106             	3.09740443e+02
107             	3.09749189e+02
108             	3.09757681e+02
109             	3.09765994e+02
110             	3.09773883e+02
111             	3.09781871e+02
112             	3.09789966e+02
113             	3.09798060e+02
114             	3.09806078e+02
115             	3.09813970e+02
116             	3.09821774e+02
117             	3.09829518e+02
118             	3.09837275e+02
119             	3.09844975e+02
120             	3.09852696e+02
121             	3.09860268e+02
122             	3.09867699e+02
123             	3.09874974e+02
124             	3.09881919e+02
125             	3.09888761e+02
126             	3.09895497e+02
127             	3.09901972e+02
128             	3.09908231e+02
129             	3.09914269e+02
130             	3.09920073e+02
131             	3.09925516e+02
132             	3.09897135e+02
133             	3.09863080e+02
134             	3.09834354e+02
135             	3.09811407e+02
136             	3.09789117e+02
137             	3.09766798e+02
138             	3.09743035e+02
139             	3.09718062e+02
140             	3.09692279e+02
141             	3.09665739e+02
142             	3.09640476e+02
143             	3.09617119e+02
144             	3.09594681e+02
145             	3.09574417e+02
146             	3.09557586e+02
147             	3.09544406e+02
148             	3.09534973e+02
149             	3.09528451e+02
150             	3.09523583e+02
151             	3.09521374e+02
152             	3.09521913e+02
153             	3.09523858e+02
154             	3.09525743e+02
155             	3.09526624e+02
156             	3.09529572e+02
157             	3.09535876e+02
158             	3.09544813e+02
159             	3.09556473e+02
160             	3.09571840e+02
161             	3.09591908e+02
162             	3.09615583e+02
163             	3.09643866e+02
164             	3.09674870e+02
165             	3.09706856e+02
166             	3.09739968e+02
167             	3.09773590e+02
168             	3.09806309e+02
169             	3.09837558e+02
170             	3.09867145e+02
171             	3.09892959e+02
172             	3.09917435e+02
173             	3.09941827e+02
174             	3.09966472e+02
175             	3.09990017e+02
176             	3.10013305e+02
177             	3.10038128e+02
178             	3.10063577e+02
179             	3.10090317e+02
180             	3.10118146e+02
181             	3.10146920e+02
182             	3.10175347e+02
183             	3.10201747e+02
184             	3.10227041e+02
185             	3.10248349e+02
186             	3.10267377e+02
187             	3.10283776e+02
188             	3.10299533e+02
189             	3.10314656e+02
190             	3.10331281e+02
191             	3.10348040e+02
192             	3.10365936e+02
193             	3.10385848e+02
194             	3.10404830e+02
195             	3.10426730e+02
196             	3.10448620e+02
197             	3.10470170e+02
198             	3.10491349e+02
199             	3.10510945e+02
200             	3.10528888e+02
201             	3.10544762e+02
202             	3.10558206e+02
203             	3.10569752e+02
204             	3.10579915e+02
205             	3.10589700e+02
206             	3.10599536e+02
207             	3.10607054e+02
208             	3.10612628e+02
209             	3.10619826e+02
210             	3.10627721e+02
211             	3.10636380e+02
212             	3.10643648e+02
213             	3.10652180e+02
214             	3.10662854e+02
215             	3.10674391e+02
216             	3.10686366e+02
217             	3.10697663e+02
218             	3.10710109e+02
219             	3.10723467e+02
220             	3.10735801e+02
221             	3.10746621e+02
222             	3.10755070e+02
223             	3.10760644e+02
224             	3.10765190e+02
225             	3.10768808e+02
226             	3.10771853e+02
227             	3.10775322e+02
228             	3.10780194e+02
229             	3.10785806e+02
230             	3.10793246e+02
231             	3.10802113e+02
232             	3.10812075e+02
233             	3.10824206e+02
234             	3.10836824e+02
235             	3.10848703e+02
236             	3.10860367e+02
237             	3.10871197e+02
238             	3.10879995e+02
239             	3.10886636e+02
240             	3.10891362e+02
241             	3.10894155e+02
242             	3.10893554e+02
243             	3.10893313e+02
244             	3.10893077e+02
245             	3.10892368e+02
246             	3.10891532e+02
247             	3.10891155e+02
248             	3.10893678e+02
249             	3.10895638e+02
250             	3.10899738e+02
251             	3.10904851e+02
252             	3.10911950e+02
253             	3.10918909e+02
254             	3.10926226e+02
255             	3.10933697e+02
256             	3.10940294e+02
257             	3.10944957e+02
258             	3.10947207e+02
259             	3.10947051e+02
260             	3.10944865e+02
261             	3.10941374e+02
262             	3.10936996e+02
263             	3.10932167e+02
264             	3.10928622e+02
265             	3.10925570e+02
266             	3.10923998e+02
267             	3.10924217e+02
268             	3.10925940e+02
269             	3.10930158e+02
270             	3.10935831e+02
271             	3.10941870e+02
272             	3.10947805e+02
273             	3.10953574e+02
274             	3.10958721e+02
275             	3.10961639e+02
276             	3.10961606e+02
277             	3.10961541e+02
278             	3.10960771e+02
279             	3.10958854e+02
280             	3.10956441e+02
281             	3.10954358e+02
282             	3.10953863e+02
283             	3.10955056e+02
284             	3.10957534e+02
285             	3.10957287e+02
286             	3.10959727e+02
287             	3.10963557e+02
288             	3.10966272e+02
289             	3.10966464e+02
290             	3.10965691e+02
291             	3.10964038e+02
292             	3.10961641e+02
293             	3.10958485e+02
294             	3.10955275e+02
295             	3.10953169e+02
296             	3.10952598e+02
297             	3.10952747e+02
298             	3.10953347e+02
299             	3.10955557e+02
300             	3.10959092e+02
301             	3.10963397e+02
302             	3.10966911e+02
303             	3.10969663e+02
304             	3.10970803e+02
305             	3.10970927e+02
306             	3.10970608e+02
307             	3.10970178e+02
308             	3.10969286e+02
309             	3.10968213e+02
310             	3.10967259e+02
311             	3.10966382e+02
312             	3.10964288e+02
313             	3.10962594e+02
314             	3.10960664e+02
315             	3.10958951e+02
316             	3.10957233e+02
317             	3.10954740e+02
318             	3.10952613e+02
319             	3.10951234e+02
320             	3.10950404e+02
321             	3.10949216e+02
322             	3.10948675e+02
323             	3.10948262e+02
324             	3.10947869e+02
325             	3.10947019e+02
326             	3.10946039e+02
327             	3.10945047e+02
328             	3.10943982e+02
329             	3.10942760e+02
330             	3.10941338e+02
331             	3.10940299e+02
332             	3.10939383e+02
333             	3.10938533e+02
334             	3.10938055e+02
335             	3.10938066e+02
336             	3.10938523e+02
337             	3.10939305e+02
338             	3.10940620e+02
339             	3.10942221e+02
340             	3.10943943e+02
341             	3.10945744e+02
342             	3.10947566e+02
343             	3.10949519e+02
344             	3.10951678e+02
345             	3.10953753e+02
346             	3.10955830e+02
347             	3.10957883e+02
348             	3.10959813e+02
349             	3.10961511e+02
350             	3.10962944e+02
351             	3.10964075e+02
352             	3.10964947e+02
353             	3.10965513e+02
354             	3.10965840e+02
355             	3.10965901e+02
356             	3.10965839e+02
357             	3.10965470e+02
358             	3.10965268e+02
359             	3.10965193e+02
360             	3.10965194e+02
361             	3.10965197e+02
362             	3.10965248e+02
363             	3.10965413e+02
364             	3.10965661e+02
365             	3.10966078e+02
366             	3.10966705e+02
367             	3.10967551e+02
368             	3.10968382e+02
369             	3.10968997e+02
370             	3.10969253e+02
371             	3.10969548e+02
372             	3.10969932e+02
373             	3.10970154e+02
374             	3.10970192e+02
375             	3.10970053e+02
376             	3.10969724e+02
377             	3.10969018e+02
378             	3.10968223e+02
379             	3.10967221e+02
380             	3.10966142e+02
381             	3.10965037e+02
382             	3.10963867e+02
383             	3.10963009e+02
384             	3.10962339e+02
385             	3.10961808e+02
386             	3.10961604e+02
387             	3.10961481e+02
388             	3.10961903e+02
389             	3.10963035e+02
390             	3.10964424e+02
391             	3.10965854e+02
392             	3.10967035e+02
393             	3.10968120e+02
394             	3.10968838e+02
395             	3.10969381e+02
396             	3.10969567e+02
397             	3.10969347e+02
398             	3.10968918e+02
399             	3.10968326e+02
400             	3.10967416e+02
401             	3.10966672e+02
402             	3.10966026e+02
403             	3.10965364e+02
404             	3.10965247e+02
405             	3.10965414e+02
406             	3.10965688e+02
407             	3.10966208e+02
408             	3.10966913e+02
409             	3.10967667e+02
410             	3.10968173e+02
411             	3.10968285e+02
412             	3.10967940e+02
413             	3.10967493e+02
414             	3.10966877e+02
415             	3.10966149e+02
416             	3.10965281e+02
417             	3.10964258e+02
418             	3.10963496e+02
419             	3.10962920e+02
420             	3.10962558e+02
421             	3.10962501e+02
422             	3.10962753e+02
423             	3.10963321e+02
424             	3.10964162e+02
425             	3.10965092e+02
426             	3.10966287e+02
427             	3.10967633e+02
428             	3.10968998e+02
429             	3.10970345e+02
430             	3.10971719e+02
431             	3.10972848e+02
432             	3.10973827e+02
433             	3.10974675e+02
434             	3.10975358e+02
435             	3.10975783e+02
436             	3.10975888e+02
437             	3.10975791e+02
438             	3.10975494e+02
439             	3.10974995e+02
440             	3.10974391e+02
441             	3.10973674e+02
442             	3.10972897e+02
443             	3.10972105e+02
444             	3.10971502e+02
445             	3.10970947e+02
446             	3.10970603e+02
447             	3.10970536e+02
448             	3.10970835e+02
449             	3.10971343e+02
450             	3.10972017e+02
451             	3.10972856e+02
452             	3.10973951e+02
453             	3.10975081e+02
454             	3.10975998e+02
455             	3.10976614e+02
456             	3.10977186e+02
457             	3.10977586e+02
458             	3.10977867e+02
459             	3.10977935e+02
460             	3.10977896e+02
461             	3.10977719e+02
462             	3.10977247e+02
463             	3.10976725e+02
464             	3.10976347e+02
465             	3.10976102e+02
466             	3.10975996e+02
467             	3.10976005e+02
468             	3.10976232e+02
469             	3.10976590e+02
470             	3.10976941e+02
471             	3.10976975e+02
472             	3.10977025e+02
473             	3.10977209e+02
474             	3.10977403e+02
475             	3.10977427e+02
476             	3.10977303e+02
477             	3.10977030e+02
478             	3.10976740e+02
479             	3.10976399e+02
480             	3.10976142e+02
481             	3.10975960e+02
482             	3.10975860e+02
483             	3.10975905e+02
484             	3.10976162e+02
485             	3.10976567e+02
486             	3.10977186e+02
487             	3.10978068e+02
488             	3.10978770e+02
489             	3.10979421e+02
490             	3.10980084e+02
491             	3.10980677e+02
492             	3.10981133e+02
493             	3.10981452e+02
494             	3.10981596e+02
495             	3.10981517e+02
496             	3.10981250e+02
497             	3.10980851e+02
498             	3.10980459e+02
499             	3.10980046e+02
500             	3.10979622e+02
501             	3.10979230e+02
502             	3.10978933e+02
503             	3.10978779e+02
504             	3.10978714e+02
505             	3.10978809e+02
506             	3.10979072e+02
507             	3.10979502e+02
508             	3.10979843e+02
509             	3.10980129e+02
510             	3.10980422e+02
511             	3.10980656e+02
512             	3.10980768e+02
513             	3.10980771e+02
514             	3.10980608e+02
515             	3.10980255e+02
516             	3.10979920e+02
517             	3.10979490e+02
518             	3.10979062e+02
519             	3.10978689e+02
520             	3.10978375e+02
521             	3.10978154e+02
522             	3.10978061e+02
523             	3.10978181e+02
524             	3.10978432e+02
525             	3.10978701e+02
526             	3.10979051e+02
527             	3.10979475e+02
528             	3.10979935e+02
529             	3.10980301e+02
530             	3.10980526e+02
531             	3.10980621e+02
532             	3.10980646e+02
533             	3.10980589e+02
534             	3.10980455e+02
535             	3.10980094e+02
536             	3.10979817e+02
537             	3.10979658e+02
538             	3.10979582e+02
539             	3.10979536e+02
540             	3.10979544e+02
541             	3.10979635e+02
542             	3.10979905e+02
543             	3.10980147e+02
544             	3.10980464e+02
545             	3.10980833e+02
546             	3.10981258e+02
547             	3.10981683e+02
548             	3.10982022e+02
549             	3.10982320e+02
550             	3.10982559e+02
551             	3.10982736e+02
552             	3.10982864e+02
553             	3.10982947e+02
554             	3.10982999e+02
555             	3.10983034e+02
556             	3.10983070e+02
557             	3.10983067e+02
558             	3.10983012e+02
559             	3.10982941e+02
560             	3.10982941e+02
561             	3.10982963e+02
562             	3.10982984e+02
563             	3.10982991e+02
564             	3.10983071e+02
565             	3.10983261e+02
566             	3.10983422e+02
567             	3.10983573e+02
568             	3.10983773e+02
569             	3.10983960e+02
570             	3.10984062e+02
571             	3.10984093e+02
572             	3.10984029e+02
573             	3.10983931e+02
574             	3.10983790e+02
575             	3.10983720e+02
576             	3.10983594e+02
577             	3.10983446e+02
578             	3.10983249e+02
579             	3.10983074e+02
580             	3.10982964e+02
581             	3.10982927e+02
582             	3.10982966e+02
583             	3.10983075e+02
584             	3.10983216e+02
585             	3.10983359e+02
586             	3.10983528e+02
587             	3.10983744e+02
588             	3.10983949e+02
589             	3.10984133e+02
590             	3.10984293e+02
591             	3.10984418e+02
592             	3.10984502e+02
593             	3.10984554e+02
594             	3.10984568e+02
595             	3.10984536e+02
596             	3.10984479e+02
597             	3.10984385e+02
598             	3.10984260e+02
599             	3.10984152e+02
600             	3.10984057e+02
601             	3.10983968e+02
602             	3.10983887e+02
603             	3.10983827e+02
604             	3.10983803e+02
605             	3.10983822e+02
606             	3.10983885e+02
607             	3.10983974e+02
608             	3.10984105e+02
609             	3.10984271e+02
610             	3.10984454e+02
611             	3.10984621e+02
612             	3.10984779e+02
613             	3.10984928e+02
614             	3.10985064e+02
615             	3.10985191e+02
616             	3.10985273e+02
617             	3.10985317e+02
618             	3.10985342e+02
619             	3.10985345e+02
620             	3.10985325e+02
621             	3.10985282e+02
