# Region        : cellZone component_4
# Cells         : 313
# Volume        : 5.78874805e-01
# Time          	volAverage(T)
1               	3.00170300e+02
2               	3.00339481e+02
3               	3.00502318e+02
4               	3.00660683e+02
5               	3.00816097e+02
6               	3.00969185e+02
7               	3.01120273e+02
8               	3.01269940e+02
9               	3.01418572e+02
10              	3.01566195e+02
11              	3.01712562e+02
12              	3.01857997e+02
13              	3.02002350e+02
14              	3.02145716e+02
15              	3.02287562e+02
16              	3.02426489e+02
17              	3.02562299e+02
18              	3.02695247e+02
19              	3.02825092e+02
20              	3.02952246e+02
21              	3.03081769e+02
22              	3.03206215e+02
23              	3.03328352e+02
24              	3.03447748e+02
25              	3.03564648e+02
26              	3.03679500e+02
27              	3.03790186e+02
28              	3.03898543e+02
29              	3.04006087e+02
30              	3.04114191e+02
31              	3.04223069e+02
32              	3.04332969e+02
33              	3.04444549e+02
34              	3.04556386e+02
35              	3.04668022e+02
36              	3.04776852e+02
37              	3.04882120e+02
38              	3.04982857e+02
39              	3.05082858e+02
40              	3.05180127e+02
41              	3.05277812e+02
42              	3.05378747e+02
43              	3.05479304e+02
44              	3.05578114e+02
45              	3.05676547e+02
46              	3.05773552e+02
47              	3.05870388e+02
48              	3.05966927e+02
49              	3.06062894e+02
50              	3.06158633e+02
51              	3.06255762e+02
52              	3.06353563e+02
53              	3.06450974e+02
54              	3.06549285e+02
55              	3.06644964e+02
56              	3.06737207e+02
57              	3.06828077e+02
58              	3.06911560e+02
59              	3.06990699e+02
60              	3.07069878e+02
61              	3.07148726e+02
62              	3.07229735e+02
63              	3.07309494e+02
64              	3.07385336e+02
65              	3.07458807e+02
66              	3.07529301e+02
67              	3.07598509e+02
68              	3.07666132e+02
69              	3.07733299e+02
70              	3.07801738e+02
71              	3.07869392e+02
72              	3.07938853e+02
73              	3.08010502e+02
74              	3.08080913e+02
75              	3.08152094e+02
76              	3.08221176e+02
77              	3.08283501e+02
78              	3.08341828e+02
79              	3.08401917e+02
80              	3.08461979e+02
81              	3.08521582e+02
82              	3.08580110e+02
83              	3.08638061e+02
84              	3.08694554e+02
85              	3.08747904e+02
86              	3.08801599e+02
87              	3.08854876e+02
88              	3.08905131e+02
89              	3.08955457e+02
90              	3.09006799e+02
91              	3.09057686e+02
92              	3.09110937e+02
93              	3.09164225e+02
94              	3.09215390e+02
95              	3.09265521e+02
96              	3.09315478e+02
97              	3.09360209e+02
98              	3.09401539e+02
99              	3.09442241e+02
100             	3.09485026e+02
101             	3.09530747e+02
102             	3.09572741e+02
103             	3.09609847e+02
104             	3.09643356e+02
105             	3.09676697e+02
106             	3.09713012e+02
107             	3.09752762e+02
108             	3.09798956e+02
109             	3.09849441e+02
110             	3.09896209e+02
111             	3.09935501e+02
112             	3.09970278e+02
113             	3.10007540e+02
114             	3.10040960e+02
115             	3.10068783e+02
116             	3.10090079e+02
117             	3.10112044e+02
118             	3.10133893e+02
119             	3.10159940e+02
120             	3.10189634e+02
121             	3.10225007e+02
122             	3.10263082e+02
123             	3.10299796e+02
124             	3.10319879e+02
125             	3.10330291e+02
126             	3.10341698e+02
127             	3.10358184e+02
128             	3.10382979e+02
129             	3.10407563e+02
130             	3.10428591e+02
131             	3.10449754e+02
132             	3.10472473e+02
133             	3.10496167e+02
134             	3.10519615e+02
135             	3.10545405e+02
136             	3.10569443e+02
137             	3.10598515e+02
138             	3.10631012e+02
139             	3.10664932e+02
140             	3.10694880e+02
141             	3.10723291e+02
142             	3.10752460e+02
143             	3.10779317e+02
144             	3.10808700e+02
145             	3.10838677e+02
146             	3.10866846e+02
147             	3.10892437e+02
148             	3.10917446e+02
149             	3.10941150e+02
150             	3.10964489e+02
151             	3.10987310e+02
152             	3.11011231e+02
153             	3.11038086e+02
154             	3.11067226e+02
155             	3.11097501e+02
156             	3.11131001e+02
157             	3.11167109e+02
158             	3.11205792e+02
159             	3.11244930e+02
160             	3.11282050e+02
161             	3.11317123e+02
162             	3.11349170e+02
163             	3.11379050e+02
164             	3.11407765e+02
165             	3.11434824e+02
166             	3.11461467e+02
167             	3.11487881e+02
168             	3.11514490e+02
169             	3.11541247e+02
170             	3.11568022e+02
171             	3.11594920e+02
172             	3.11622461e+02
173             	3.11650375e+02
174             	3.11678514e+02
175             	3.11706974e+02
176             	3.11735336e+02
177             	3.11764697e+02
178             	3.11794476e+02
179             	3.11824695e+02
180             	3.11855468e+02
181             	3.11886509e+02
182             	3.11918615e+02
183             	3.11951857e+02
184             	3.11985731e+02
185             	3.12019729e+02
186             	3.12053405e+02
187             	3.12086305e+02
188             	3.12118203e+02
189             	3.12149079e+02
190             	3.12178749e+02
191             	3.12206265e+02
192             	3.12232826e+02
193             	3.12259043e+02
194             	3.12284918e+02
195             	3.12311039e+02
196             	3.12337477e+02
197             	3.12364150e+02
198             	3.12390904e+02
199             	3.12417243e+02
200             	3.12443279e+02
201             	3.12469352e+02
202             	3.12495310e+02
203             	3.12521485e+02
204             	3.12548123e+02
205             	3.12575818e+02
206             	3.12604493e+02
207             	3.12634475e+02
208             	3.12665685e+02
209             	3.12697485e+02
210             	3.12729044e+02
211             	3.12761236e+02
212             	3.12793484e+02
213             	3.12825293e+02
214             	3.12856386e+02
215             	3.12886724e+02
216             	3.12916342e+02
217             	3.12945155e+02
218             	3.12972904e+02
219             	3.13000691e+02
220             	3.13028082e+02
221             	3.13054849e+02
222             	3.13080988e+02
223             	3.13106691e+02
224             	3.13131800e+02
225             	3.13156649e+02
226             	3.13181320e+02
227             	3.13206016e+02
228             	3.13230585e+02
229             	3.13255103e+02
230             	3.13280569e+02
231             	3.13306885e+02
232             	3.13333631e+02
233             	3.13360746e+02
234             	3.13388037e+02
235             	3.13415667e+02
236             	3.13443345e+02
237             	3.13471251e+02
238             	3.13499734e+02
239             	3.13528204e+02
240             	3.13556795e+02
241             	3.13585410e+02
242             	3.13612968e+02
243             	3.13640096e+02
244             	3.13666760e+02
245             	3.13692283e+02
246             	3.13717138e+02
247             	3.13741377e+02
248             	3.13765295e+02
249             	3.13788879e+02
250             	3.13811413e+02
251             	3.13833605e+02
252             	3.13855215e+02
253             	3.13876658e+02
254             	3.13898149e+02
255             	3.13920038e+02
256             	3.13942360e+02
257             	3.13965073e+02
258             	3.13988102e+02
259             	3.14011089e+02
260             	3.14034208e+02
261             	3.14057481e+02
262             	3.14080974e+02
263             	3.14104933e+02
264             	3.14129385e+02
265             	3.14153812e+02
266             	3.14178451e+02
267             	3.14203163e+02
268             	3.14227856e+02
269             	3.14252419e+02
270             	3.14276836e+02
271             	3.14300902e+02
272             	3.14324451e+02
273             	3.14347446e+02
274             	3.14369967e+02
275             	3.14391652e+02
276             	3.14412850e+02
277             	3.14433607e+02
278             	3.14454006e+02
279             	3.14474188e+02
280             	3.14494050e+02
281             	3.14513938e+02
282             	3.14533806e+02
283             	3.14553447e+02
284             	3.14572909e+02
285             	3.14592446e+02
286             	3.14612003e+02
287             	3.14631596e+02
288             	3.14650918e+02
289             	3.14670363e+02
290             	3.14689931e+02
291             	3.14709626e+02
292             	3.14729643e+02
293             	3.14749774e+02
294             	3.14770017e+02
295             	3.14790086e+02
296             	3.14809846e+02
297             	3.14828687e+02
298             	3.14848044e+02
299             	3.14867415e+02
300             	3.14886689e+02
301             	3.14905846e+02
302             	3.14924743e+02
303             	3.14943219e+02
304             	3.14961530e+02
305             	3.14978285e+02
306             	3.14995107e+02
307             	3.15011928e+02
308             	3.15028468e+02
309             	3.15044615e+02
310             	3.15060695e+02
311             	3.15076543e+02
312             	3.15092159e+02
313             	3.15107754e+02
314             	3.15123398e+02
315             	3.15139039e+02
316             	3.15154975e+02
317             	3.15170419e+02
318             	3.15186064e+02
319             	3.15201743e+02
320             	3.15217420e+02
321             	3.15233093e+02
322             	3.15248775e+02
323             	3.15264387e+02
324             	3.15280001e+02
325             	3.15295613e+02
326             	3.15311465e+02
327             	3.15327027e+02
328             	3.15342698e+02
329             	3.15358192e+02
330             	3.15373391e+02
331             	3.15388441e+02
332             	3.15403320e+02
333             	3.15417930e+02
334             	3.15432261e+02
335             	3.15446048e+02
336             	3.15459808e+02
337             	3.15473460e+02
338             	3.15486917e+02
339             	3.15500184e+02
340             	3.15513265e+02
341             	3.15526321e+02
342             	3.15539250e+02
343             	3.15552104e+02
344             	3.15564982e+02
345             	3.15577866e+02
346             	3.15590623e+02
347             	3.15603489e+02
348             	3.15616446e+02
349             	3.15629310e+02
350             	3.15642147e+02
351             	3.15655189e+02
352             	3.15668347e+02
353             	3.15681564e+02
354             	3.15694677e+02
355             	3.15707440e+02
356             	3.15720171e+02
357             	3.15732720e+02
358             	3.15745153e+02
359             	3.15757480e+02
360             	3.15769595e+02
361             	3.15781644e+02
362             	3.15793286e+02
363             	3.15804841e+02
364             	3.15816284e+02
365             	3.15827631e+02
366             	3.15838835e+02
367             	3.15849839e+02
368             	3.15860583e+02
369             	3.15871128e+02
370             	3.15881528e+02
371             	3.15891812e+02
372             	3.15902126e+02
373             	3.15912312e+02
374             	3.15922471e+02
375             	3.15932621e+02
376             	3.15942837e+02
377             	3.15953133e+02
378             	3.15963494e+02
379             	3.15973783e+02
380             	3.15983949e+02
381             	3.15994071e+02
382             	3.16004158e+02
383             	3.16014168e+02
384             	3.16024238e+02
385             	3.16034125e+02
386             	3.16044106e+02
387             	3.16053981e+02
388             	3.16063785e+02
389             	3.16073489e+02
390             	3.16083114e+02
391             	3.16092601e+02
392             	3.16101981e+02
393             	3.16111240e+02
394             	3.16120487e+02
395             	3.16129707e+02
396             	3.16138831e+02
397             	3.16147892e+02
398             	3.16156767e+02
399             	3.16165712e+02
400             	3.16174549e+02
401             	3.16183247e+02
402             	3.16191858e+02
403             	3.16200411e+02
404             	3.16208849e+02
405             	3.16217078e+02
406             	3.16225179e+02
407             	3.16233203e+02
408             	3.16241190e+02
409             	3.16249204e+02
410             	3.16257191e+02
411             	3.16265183e+02
412             	3.16273124e+02
413             	3.16281000e+02
414             	3.16288807e+02
415             	3.16296572e+02
416             	3.16304337e+02
417             	3.16312087e+02
418             	3.16319815e+02
419             	3.16327549e+02
420             	3.16335242e+02
421             	3.16342881e+02
422             	3.16350431e+02
423             	3.16357983e+02
424             	3.16365433e+02
425             	3.16372852e+02
426             	3.16380186e+02
427             	3.16387461e+02
428             	3.16394672e+02
429             	3.16401840e+02
430             	3.16408958e+02
431             	3.16415972e+02
432             	3.16422915e+02
433             	3.16429837e+02
434             	3.16436729e+02
435             	3.16443517e+02
436             	3.16450149e+02
437             	3.16456651e+02
438             	3.16463101e+02
439             	3.16469482e+02
440             	3.16475786e+02
441             	3.16481982e+02
442             	3.16488130e+02
443             	3.16494248e+02
444             	3.16500356e+02
445             	3.16506398e+02
446             	3.16512472e+02
447             	3.16518458e+02
448             	3.16524397e+02
449             	3.16530293e+02
450             	3.16536119e+02
451             	3.16541956e+02
452             	3.16547742e+02
453             	3.16553504e+02
454             	3.16559231e+02
455             	3.16564931e+02
456             	3.16570616e+02
457             	3.16576268e+02
458             	3.16581883e+02
459             	3.16587476e+02
460             	3.16593057e+02
461             	3.16598623e+02
462             	3.16604148e+02
463             	3.16609652e+02
464             	3.16615143e+02
465             	3.16620605e+02
466             	3.16626008e+02
467             	3.16631387e+02
468             	3.16636691e+02
469             	3.16641987e+02
470             	3.16647229e+02
471             	3.16652438e+02
472             	3.16657605e+02
473             	3.16662720e+02
474             	3.16667816e+02
475             	3.16672872e+02
476             	3.16677892e+02
477             	3.16682859e+02
478             	3.16687778e+02
479             	3.16692640e+02
480             	3.16697464e+02
481             	3.16702237e+02
482             	3.16706978e+02
483             	3.16711646e+02
484             	3.16716261e+02
485             	3.16720830e+02
486             	3.16725361e+02
487             	3.16729849e+02
488             	3.16734295e+02
489             	3.16738700e+02
490             	3.16743083e+02
491             	3.16747420e+02
492             	3.16751720e+02
493             	3.16755985e+02
494             	3.16760209e+02
495             	3.16764356e+02
496             	3.16768505e+02
497             	3.16772620e+02
498             	3.16776688e+02
499             	3.16780712e+02
500             	3.16784694e+02
501             	3.16788655e+02
502             	3.16792612e+02
503             	3.16796528e+02
504             	3.16800424e+02
505             	3.16804322e+02
506             	3.16808213e+02
507             	3.16812065e+02
508             	3.16815906e+02
509             	3.16819740e+02
510             	3.16823547e+02
511             	3.16827313e+02
512             	3.16831041e+02
513             	3.16834737e+02
514             	3.16838410e+02
515             	3.16842048e+02
516             	3.16845651e+02
517             	3.16849221e+02
518             	3.16852763e+02
519             	3.16856270e+02
520             	3.16859716e+02
521             	3.16863103e+02
522             	3.16866489e+02
523             	3.16869764e+02
524             	3.16873089e+02
525             	3.16876382e+02
526             	3.16879649e+02
527             	3.16882904e+02
528             	3.16886137e+02
529             	3.16889355e+02
530             	3.16892561e+02
531             	3.16895733e+02
532             	3.16898928e+02
533             	3.16902118e+02
534             	3.16905302e+02
535             	3.16908491e+02
536             	3.16911685e+02
537             	3.16914879e+02
538             	3.16918060e+02
539             	3.16921216e+02
540             	3.16924352e+02
541             	3.16927468e+02
542             	3.16930534e+02
543             	3.16933558e+02
544             	3.16936543e+02
545             	3.16939473e+02
546             	3.16942374e+02
547             	3.16945224e+02
548             	3.16948024e+02
549             	3.16950775e+02
550             	3.16953495e+02
551             	3.16956183e+02
552             	3.16958856e+02
553             	3.16961512e+02
554             	3.16964133e+02
555             	3.16966738e+02
556             	3.16969358e+02
557             	3.16971979e+02
558             	3.16974562e+02
559             	3.16977146e+02
560             	3.16979709e+02
561             	3.16982263e+02
562             	3.16984780e+02
563             	3.16987294e+02
564             	3.16989803e+02
565             	3.16992291e+02
566             	3.16994766e+02
567             	3.16997232e+02
568             	3.16999680e+02
569             	3.17002094e+02
570             	3.17004472e+02
571             	3.17006825e+02
572             	3.17009158e+02
573             	3.17011459e+02
574             	3.17013717e+02
575             	3.17015946e+02
576             	3.17018151e+02
577             	3.17020348e+02
578             	3.17022540e+02
579             	3.17024701e+02
580             	3.17026831e+02
581             	3.17028943e+02
582             	3.17031046e+02
583             	3.17033131e+02
584             	3.17035195e+02
585             	3.17037218e+02
586             	3.17039236e+02
587             	3.17041262e+02
588             	3.17043272e+02
589             	3.17045274e+02
590             	3.17047279e+02
591             	3.17049307e+02
592             	3.17051345e+02
593             	3.17053364e+02
594             	3.17055366e+02
595             	3.17057364e+02
596             	3.17059326e+02
597             	3.17061273e+02
598             	3.17063217e+02
599             	3.17065154e+02
600             	3.17067084e+02
601             	3.17069006e+02
602             	3.17070919e+02
603             	3.17072799e+02
604             	3.17074680e+02
605             	3.17076556e+02
606             	3.17078417e+02
607             	3.17080262e+02
608             	3.17082091e+02
609             	3.17083891e+02
610             	3.17085645e+02
611             	3.17087372e+02
612             	3.17089061e+02
613             	3.17090737e+02
614             	3.17092393e+02
615             	3.17094021e+02
616             	3.17095637e+02
617             	3.17097223e+02
618             	3.17098781e+02
619             	3.17100341e+02
620             	3.17101888e+02
621             	3.17103443e+02
