# Region        : cellZone component_3
# Cells         : 192
# Volume        : 3.63920260e-01
# Time          	volAverage(T)
1               	3.00347484e+02
2               	3.00692320e+02
3               	3.01014073e+02
4               	3.01319990e+02
5               	3.01616732e+02
6               	3.01907445e+02
7               	3.02193448e+02
8               	3.02476359e+02
9               	3.02754361e+02
10              	3.03026992e+02
11              	3.03293608e+02
12              	3.03556217e+02
13              	3.03816585e+02
14              	3.04075475e+02
15              	3.04331846e+02
16              	3.04585102e+02
17              	3.04834762e+02
18              	3.05081766e+02
19              	3.05325565e+02
20              	3.05566589e+02
21              	3.05801867e+02
22              	3.06030529e+02
23              	3.06251896e+02
24              	3.06472130e+02
25              	3.06690795e+02
26              	3.06909783e+02
27              	3.07129659e+02
28              	3.07349575e+02
29              	3.07564819e+02
30              	3.07770209e+02
31              	3.07971672e+02
32              	3.08168214e+02
33              	3.08360793e+02
34              	3.08552553e+02
35              	3.08741653e+02
36              	3.08924964e+02
37              	3.09105458e+02
38              	3.09284073e+02
39              	3.09461819e+02
40              	3.09634122e+02
41              	3.09803270e+02
42              	3.09968316e+02
43              	3.10131895e+02
44              	3.10292901e+02
45              	3.10452807e+02
46              	3.10612088e+02
47              	3.10769555e+02
48              	3.10923921e+02
49              	3.11074762e+02
50              	3.11221855e+02
51              	3.11365314e+02
52              	3.11504380e+02
53              	3.11640406e+02
54              	3.11774077e+02
55              	3.11906908e+02
56              	3.12038006e+02
57              	3.12166566e+02
58              	3.12295314e+02
59              	3.12424008e+02
60              	3.12548934e+02
61              	3.12672242e+02
62              	3.12791426e+02
63              	3.12910806e+02
64              	3.13029155e+02
65              	3.13144521e+02
66              	3.13259646e+02
67              	3.13373413e+02
68              	3.13483601e+02
69              	3.13592409e+02
70              	3.13699329e+02
71              	3.13804315e+02
72              	3.13907898e+02
73              	3.14007498e+02
74              	3.14104448e+02
75              	3.14200957e+02
76              	3.14297336e+02
77              	3.14390942e+02
78              	3.14482839e+02
79              	3.14570445e+02
80              	3.14655641e+02
81              	3.14740327e+02
82              	3.14823346e+02
83              	3.14906197e+02
84              	3.14985924e+02
85              	3.15063328e+02
86              	3.15141528e+02
87              	3.15214237e+02
88              	3.15286123e+02
89              	3.15358608e+02
90              	3.15426273e+02
91              	3.15494549e+02
92              	3.15562744e+02
93              	3.15629566e+02
94              	3.15695977e+02
95              	3.15759347e+02
96              	3.15824880e+02
97              	3.15886292e+02
98              	3.15949510e+02
99              	3.16011040e+02
100             	3.16072074e+02
101             	3.16133949e+02
102             	3.16194259e+02
103             	3.16250111e+02
104             	3.16305625e+02
105             	3.16359248e+02
106             	3.16411732e+02
107             	3.16462184e+02
108             	3.16511737e+02
109             	3.16556838e+02
110             	3.16605571e+02
111             	3.16651161e+02
112             	3.16697965e+02
113             	3.16747533e+02
114             	3.16797304e+02
115             	3.16843066e+02
116             	3.16891193e+02
117             	3.16939937e+02
118             	3.16985173e+02
119             	3.17028552e+02
120             	3.17072315e+02
121             	3.17113827e+02
122             	3.17154353e+02
123             	3.17197482e+02
124             	3.17239108e+02
125             	3.17280775e+02
126             	3.17322555e+02
127             	3.17365377e+02
128             	3.17408028e+02
129             	3.17450712e+02
130             	3.17491652e+02
131             	3.17533846e+02
132             	3.17574747e+02
133             	3.17615206e+02
134             	3.17657822e+02
135             	3.17696920e+02
136             	3.17734299e+02
137             	3.17770975e+02
138             	3.17807506e+02
139             	3.17844051e+02
140             	3.17880668e+02
141             	3.17917751e+02
142             	3.17954878e+02
143             	3.17996271e+02
144             	3.18036012e+02
145             	3.18073774e+02
146             	3.18113514e+02
147             	3.18150063e+02
148             	3.18185853e+02
149             	3.18219744e+02
150             	3.18252061e+02
151             	3.18284926e+02
152             	3.18315174e+02
153             	3.18343975e+02
154             	3.18375201e+02
155             	3.18403821e+02
156             	3.18432339e+02
157             	3.18462837e+02
158             	3.18495208e+02
159             	3.18528424e+02
160             	3.18557250e+02
161             	3.18589069e+02
162             	3.18617754e+02
163             	3.18645319e+02
164             	3.18673940e+02
165             	3.18702075e+02
166             	3.18727688e+02
167             	3.18750747e+02
168             	3.18774850e+02
169             	3.18799463e+02
170             	3.18823487e+02
171             	3.18848542e+02
172             	3.18873276e+02
173             	3.18898836e+02
174             	3.18925157e+02
175             	3.18948034e+02
176             	3.18973209e+02
177             	3.18994772e+02
178             	3.19017529e+02
179             	3.19038410e+02
180             	3.19056494e+02
181             	3.19074418e+02
182             	3.19092508e+02
183             	3.19110695e+02
184             	3.19128360e+02
185             	3.19144129e+02
186             	3.19162422e+02
187             	3.19181916e+02
188             	3.19201645e+02
189             	3.19222858e+02
190             	3.19244742e+02
191             	3.19268484e+02
192             	3.19293564e+02
193             	3.19314869e+02
194             	3.19337781e+02
195             	3.19359994e+02
196             	3.19380509e+02
197             	3.19399340e+02
198             	3.19415982e+02
199             	3.19431040e+02
200             	3.19445920e+02
201             	3.19460821e+02
202             	3.19475896e+02
203             	3.19491536e+02
204             	3.19507681e+02
205             	3.19523885e+02
206             	3.19541111e+02
207             	3.19554614e+02
208             	3.19570667e+02
209             	3.19587666e+02
210             	3.19605063e+02
211             	3.19622595e+02
212             	3.19640377e+02
213             	3.19657896e+02
214             	3.19675308e+02
215             	3.19691946e+02
216             	3.19707855e+02
217             	3.19721145e+02
218             	3.19734976e+02
219             	3.19748939e+02
220             	3.19762369e+02
221             	3.19775012e+02
222             	3.19785799e+02
223             	3.19797348e+02
224             	3.19809493e+02
225             	3.19822026e+02
226             	3.19835178e+02
227             	3.19846761e+02
228             	3.19858238e+02
229             	3.19869747e+02
230             	3.19881598e+02
231             	3.19893587e+02
232             	3.19907397e+02
233             	3.19917607e+02
234             	3.19930292e+02
235             	3.19944280e+02
236             	3.19958102e+02
237             	3.19971553e+02
238             	3.19985901e+02
239             	3.19999450e+02
240             	3.20012676e+02
241             	3.20022455e+02
242             	3.20033688e+02
243             	3.20045343e+02
244             	3.20056386e+02
245             	3.20066805e+02
246             	3.20076713e+02
247             	3.20086253e+02
248             	3.20095865e+02
249             	3.20105789e+02
250             	3.20116195e+02
251             	3.20127077e+02
252             	3.20138318e+02
253             	3.20149867e+02
254             	3.20161643e+02
255             	3.20173164e+02
256             	3.20184603e+02
257             	3.20196506e+02
258             	3.20207023e+02
259             	3.20216395e+02
260             	3.20225238e+02
261             	3.20234238e+02
262             	3.20242975e+02
263             	3.20251406e+02
264             	3.20259109e+02
265             	3.20266989e+02
266             	3.20275314e+02
267             	3.20283631e+02
268             	3.20291900e+02
269             	3.20300056e+02
270             	3.20308372e+02
271             	3.20316658e+02
272             	3.20324883e+02
273             	3.20334829e+02
274             	3.20343178e+02
275             	3.20351035e+02
276             	3.20358928e+02
277             	3.20366621e+02
278             	3.20373801e+02
279             	3.20380802e+02
280             	3.20387390e+02
281             	3.20393787e+02
282             	3.20399801e+02
283             	3.20405566e+02
284             	3.20411174e+02
285             	3.20416773e+02
286             	3.20422401e+02
287             	3.20428198e+02
288             	3.20434223e+02
289             	3.20440966e+02
290             	3.20447357e+02
291             	3.20453686e+02
292             	3.20460080e+02
293             	3.20466338e+02
294             	3.20472422e+02
295             	3.20477220e+02
296             	3.20483194e+02
297             	3.20489972e+02
298             	3.20497132e+02
299             	3.20504126e+02
300             	3.20510647e+02
301             	3.20516208e+02
302             	3.20521972e+02
303             	3.20527764e+02
304             	3.20533307e+02
305             	3.20538403e+02
306             	3.20543219e+02
307             	3.20548153e+02
308             	3.20552892e+02
309             	3.20555307e+02
310             	3.20559591e+02
311             	3.20564472e+02
312             	3.20569486e+02
313             	3.20574318e+02
314             	3.20578690e+02
315             	3.20582594e+02
316             	3.20586505e+02
317             	3.20590512e+02
318             	3.20594763e+02
319             	3.20598268e+02
320             	3.20601398e+02
321             	3.20605357e+02
322             	3.20609897e+02
323             	3.20614558e+02
324             	3.20619900e+02
325             	3.20624547e+02
326             	3.20629113e+02
327             	3.20633976e+02
328             	3.20639183e+02
329             	3.20644723e+02
330             	3.20650363e+02
331             	3.20655910e+02
332             	3.20661442e+02
333             	3.20667162e+02
334             	3.20672962e+02
335             	3.20678700e+02
336             	3.20684398e+02
337             	3.20690139e+02
338             	3.20695888e+02
339             	3.20701710e+02
340             	3.20707261e+02
341             	3.20712910e+02
342             	3.20718391e+02
343             	3.20723749e+02
344             	3.20729349e+02
345             	3.20734575e+02
346             	3.20738722e+02
347             	3.20743648e+02
348             	3.20747171e+02
349             	3.20749752e+02
350             	3.20750813e+02
351             	3.20752463e+02
352             	3.20754246e+02
353             	3.20755660e+02
354             	3.20756575e+02
355             	3.20757455e+02
356             	3.20758540e+02
357             	3.20759826e+02
358             	3.20761257e+02
359             	3.20762912e+02
360             	3.20764784e+02
361             	3.20766869e+02
362             	3.20768982e+02
363             	3.20770898e+02
364             	3.20770923e+02
365             	3.20770223e+02
366             	3.20771435e+02
367             	3.20773019e+02
368             	3.20774150e+02
369             	3.20773109e+02
370             	3.20773819e+02
371             	3.20775365e+02
372             	3.20774735e+02
373             	3.20775772e+02
374             	3.20777257e+02
375             	3.20779477e+02
376             	3.20780719e+02
377             	3.20781844e+02
378             	3.20779543e+02
379             	3.20779601e+02
380             	3.20780751e+02
381             	3.20782139e+02
382             	3.20783560e+02
383             	3.20785339e+02
384             	3.20786889e+02
385             	3.20787800e+02
386             	3.20788700e+02
387             	3.20789765e+02
388             	3.20791122e+02
389             	3.20792818e+02
390             	3.20796081e+02
391             	3.20795461e+02
392             	3.20797845e+02
393             	3.20800406e+02
394             	3.20802597e+02
395             	3.20804236e+02
396             	3.20805493e+02
397             	3.20807145e+02
398             	3.20804340e+02
399             	3.20801556e+02
400             	3.20800185e+02
401             	3.20798994e+02
402             	3.20795946e+02
403             	3.20795192e+02
404             	3.20795765e+02
405             	3.20797739e+02
406             	3.20797157e+02
407             	3.20799244e+02
408             	3.20802247e+02
409             	3.20802867e+02
410             	3.20804514e+02
411             	3.20808822e+02
412             	3.20812833e+02
413             	3.20816657e+02
414             	3.20820266e+02
415             	3.20819293e+02
416             	3.20820557e+02
417             	3.20822242e+02
418             	3.20824056e+02
419             	3.20825486e+02
420             	3.20826497e+02
421             	3.20827471e+02
422             	3.20827579e+02
423             	3.20828530e+02
424             	3.20829152e+02
425             	3.20830597e+02
426             	3.20832599e+02
427             	3.20831682e+02
428             	3.20833710e+02
429             	3.20835438e+02
430             	3.20836848e+02
431             	3.20838918e+02
432             	3.20839924e+02
433             	3.20839981e+02
434             	3.20839332e+02
435             	3.20838244e+02
436             	3.20836976e+02
437             	3.20831094e+02
438             	3.20827309e+02
439             	3.20823572e+02
440             	3.20821347e+02
441             	3.20819961e+02
442             	3.20816439e+02
443             	3.20816009e+02
444             	3.20814570e+02
445             	3.20814779e+02
446             	3.20815995e+02
447             	3.20817228e+02
448             	3.20817607e+02
449             	3.20818247e+02
450             	3.20815439e+02
451             	3.20815477e+02
452             	3.20815909e+02
453             	3.20812858e+02
454             	3.20811653e+02
455             	3.20811692e+02
456             	3.20811851e+02
457             	3.20810849e+02
458             	3.20809768e+02
459             	3.20808790e+02
460             	3.20808808e+02
461             	3.20810347e+02
462             	3.20812868e+02
463             	3.20812157e+02
464             	3.20813747e+02
465             	3.20816470e+02
466             	3.20819755e+02
467             	3.20822680e+02
468             	3.20824108e+02
469             	3.20823340e+02
470             	3.20820503e+02
471             	3.20819072e+02
472             	3.20818257e+02
473             	3.20817475e+02
474             	3.20816786e+02
475             	3.20816366e+02
476             	3.20816302e+02
477             	3.20816467e+02
478             	3.20817046e+02
479             	3.20818500e+02
480             	3.20820451e+02
481             	3.20822968e+02
482             	3.20821793e+02
483             	3.20822951e+02
484             	3.20824955e+02
485             	3.20826624e+02
486             	3.20829574e+02
487             	3.20830164e+02
488             	3.20831870e+02
489             	3.20832236e+02
490             	3.20832579e+02
491             	3.20833418e+02
492             	3.20833082e+02
493             	3.20833640e+02
494             	3.20835572e+02
495             	3.20839600e+02
496             	3.20842258e+02
497             	3.20841348e+02
498             	3.20842520e+02
499             	3.20842946e+02
500             	3.20843780e+02
501             	3.20844369e+02
502             	3.20844228e+02
503             	3.20843138e+02
504             	3.20841338e+02
505             	3.20838839e+02
506             	3.20838018e+02
507             	3.20838200e+02
508             	3.20838891e+02
509             	3.20839958e+02
510             	3.20841614e+02
511             	3.20843852e+02
512             	3.20845890e+02
513             	3.20848168e+02
514             	3.20850733e+02
515             	3.20850851e+02
516             	3.20853096e+02
517             	3.20856236e+02
518             	3.20859382e+02
519             	3.20862026e+02
520             	3.20863544e+02
521             	3.20864178e+02
522             	3.20864346e+02
523             	3.20863131e+02
524             	3.20863148e+02
525             	3.20864157e+02
526             	3.20863574e+02
527             	3.20864439e+02
528             	3.20866010e+02
529             	3.20867155e+02
530             	3.20868690e+02
531             	3.20870332e+02
532             	3.20872411e+02
533             	3.20874363e+02
534             	3.20874384e+02
535             	3.20876145e+02
536             	3.20877602e+02
537             	3.20879448e+02
538             	3.20880658e+02
539             	3.20880539e+02
540             	3.20878487e+02
541             	3.20876438e+02
542             	3.20874149e+02
543             	3.20871540e+02
544             	3.20870193e+02
545             	3.20867869e+02
546             	3.20867444e+02
547             	3.20866264e+02
548             	3.20865479e+02
549             	3.20865326e+02
550             	3.20866431e+02
551             	3.20868254e+02
552             	3.20870066e+02
553             	3.20871192e+02
554             	3.20871958e+02
555             	3.20872317e+02
556             	3.20873418e+02
557             	3.20874744e+02
558             	3.20875798e+02
559             	3.20877930e+02
560             	3.20878261e+02
561             	3.20878102e+02
562             	3.20878094e+02
563             	3.20878212e+02
564             	3.20878443e+02
565             	3.20878100e+02
566             	3.20877740e+02
567             	3.20878080e+02
568             	3.20876858e+02
569             	3.20876700e+02
570             	3.20877128e+02
571             	3.20877679e+02
572             	3.20878108e+02
573             	3.20878291e+02
574             	3.20878844e+02
575             	3.20879414e+02
576             	3.20879663e+02
577             	3.20881308e+02
578             	3.20881470e+02
579             	3.20881281e+02
580             	3.20881147e+02
581             	3.20882374e+02
582             	3.20882650e+02
583             	3.20883811e+02
584             	3.20885406e+02
585             	3.20887136e+02
586             	3.20888978e+02
587             	3.20890951e+02
588             	3.20892664e+02
589             	3.20894602e+02
590             	3.20896952e+02
591             	3.20899647e+02
592             	3.20902746e+02
593             	3.20906424e+02
594             	3.20910167e+02
595             	3.20913426e+02
596             	3.20916571e+02
597             	3.20919512e+02
598             	3.20922133e+02
599             	3.20923038e+02
600             	3.20924865e+02
601             	3.20927189e+02
602             	3.20929235e+02
603             	3.20931943e+02
604             	3.20933747e+02
605             	3.20936786e+02
606             	3.20938678e+02
607             	3.20940846e+02
608             	3.20942270e+02
609             	3.20942562e+02
610             	3.20941769e+02
611             	3.20941756e+02
612             	3.20941900e+02
613             	3.20941674e+02
614             	3.20940874e+02
615             	3.20939330e+02
616             	3.20937515e+02
617             	3.20935613e+02
618             	3.20933739e+02
619             	3.20932013e+02
620             	3.20930672e+02
621             	3.20929680e+02
