# Region        : cellZone component_2
# Cells         : 280
# Volume        : 5.32545495e-01
# Time          	volAverage(T)
1               	3.00146479e+02
2               	3.00291489e+02
3               	3.00429653e+02
4               	3.00562691e+02
5               	3.00692646e+02
6               	3.00819859e+02
7               	3.00944920e+02
8               	3.01068381e+02
9               	3.01190672e+02
10              	3.01311830e+02
11              	3.01431543e+02
12              	3.01550256e+02
13              	3.01665710e+02
14              	3.01778439e+02
15              	3.01891225e+02
16              	3.02003724e+02
17              	3.02114496e+02
18              	3.02223964e+02
19              	3.02332969e+02
20              	3.02440049e+02
21              	3.02547897e+02
22              	3.02653867e+02
23              	3.02759414e+02
24              	3.02863549e+02
25              	3.02965035e+02
26              	3.03065010e+02
27              	3.03161248e+02
28              	3.03254965e+02
29              	3.03348458e+02
30              	3.03440441e+02
31              	3.03531458e+02
32              	3.03621481e+02
33              	3.03711577e+02
34              	3.03797766e+02
35              	3.03883704e+02
36              	3.03969211e+02
37              	3.04053494e+02
38              	3.04139058e+02
39              	3.04223889e+02
40              	3.04307454e+02
41              	3.04389765e+02
42              	3.04470540e+02
43              	3.04549079e+02
44              	3.04626518e+02
45              	3.04704033e+02
46              	3.04779285e+02
47              	3.04852976e+02
48              	3.04925014e+02
49              	3.04998336e+02
50              	3.05070740e+02
51              	3.05142205e+02
52              	3.05211659e+02
53              	3.05281454e+02
54              	3.05350182e+02
55              	3.05413820e+02
56              	3.05476330e+02
57              	3.05538647e+02
58              	3.05600939e+02
59              	3.05661782e+02
60              	3.05722007e+02
61              	3.05781860e+02
62              	3.05840715e+02
63              	3.05898916e+02
64              	3.05957130e+02
65              	3.06015422e+02
66              	3.06072926e+02
67              	3.06131022e+02
68              	3.06187235e+02
69              	3.06242701e+02
70              	3.06296729e+02
71              	3.06350597e+02
72              	3.06404054e+02
73              	3.06456742e+02
74              	3.06508475e+02
75              	3.06559110e+02
76              	3.06609299e+02
77              	3.06658842e+02
78              	3.06707965e+02
79              	3.06756307e+02
80              	3.06803436e+02
81              	3.06850089e+02
82              	3.06897081e+02
83              	3.06944135e+02
84              	3.06990070e+02
85              	3.07035902e+02
86              	3.07081714e+02
87              	3.07126891e+02
88              	3.07170873e+02
89              	3.07215078e+02
90              	3.07259232e+02
91              	3.07302332e+02
92              	3.07344615e+02
93              	3.07385997e+02
94              	3.07426615e+02
95              	3.07466176e+02
96              	3.07505983e+02
97              	3.07545282e+02
98              	3.07583563e+02
99              	3.07621391e+02
100             	3.07660004e+02
101             	3.07696635e+02
102             	3.07732997e+02
103             	3.07770583e+02
104             	3.07807011e+02
105             	3.07842597e+02
106             	3.07877436e+02
107             	3.07911502e+02
108             	3.07944933e+02
109             	3.07978627e+02
110             	3.08012047e+02
111             	3.08045784e+02
112             	3.08079293e+02
113             	3.08112291e+02
114             	3.08144778e+02
115             	3.08176706e+02
116             	3.08209158e+02
117             	3.08241396e+02
118             	3.08273369e+02
119             	3.08304382e+02
120             	3.08335016e+02
121             	3.08365415e+02
122             	3.08396013e+02
123             	3.08426198e+02
124             	3.08456543e+02
125             	3.08486471e+02
126             	3.08516949e+02
127             	3.08547249e+02
128             	3.08576923e+02
129             	3.08606673e+02
130             	3.08635139e+02
131             	3.08663320e+02
132             	3.08690547e+02
133             	3.08717339e+02
134             	3.08743945e+02
135             	3.08768704e+02
136             	3.08793616e+02
137             	3.08817889e+02
138             	3.08841625e+02
139             	3.08864694e+02
140             	3.08887509e+02
141             	3.08910004e+02
142             	3.08932328e+02
143             	3.08954076e+02
144             	3.08975404e+02
145             	3.08996218e+02
146             	3.09017121e+02
147             	3.09037898e+02
148             	3.09059143e+02
149             	3.09080404e+02
150             	3.09101603e+02
151             	3.09122565e+02
152             	3.09144873e+02
153             	3.09167389e+02
154             	3.09190196e+02
155             	3.09213185e+02
156             	3.09236207e+02
157             	3.09259243e+02
158             	3.09282347e+02
159             	3.09303625e+02
160             	3.09323733e+02
161             	3.09343058e+02
162             	3.09361458e+02
163             	3.09379124e+02
164             	3.09396239e+02
165             	3.09413223e+02
166             	3.09429878e+02
167             	3.09446713e+02
168             	3.09464360e+02
169             	3.09482568e+02
170             	3.09500852e+02
171             	3.09519383e+02
172             	3.09537879e+02
173             	3.09556361e+02
174             	3.09574451e+02
175             	3.09592278e+02
176             	3.09609767e+02
177             	3.09626699e+02
178             	3.09643454e+02
179             	3.09660053e+02
180             	3.09676589e+02
181             	3.09693297e+02
182             	3.09710440e+02
183             	3.09727671e+02
184             	3.09745058e+02
185             	3.09762403e+02
186             	3.09779736e+02
187             	3.09796962e+02
188             	3.09813754e+02
189             	3.09830898e+02
190             	3.09848911e+02
191             	3.09866706e+02
192             	3.09883370e+02
193             	3.09899328e+02
194             	3.09914570e+02
195             	3.09929291e+02
196             	3.09943910e+02
197             	3.09957542e+02
198             	3.09970038e+02
199             	3.09981781e+02
200             	3.09993409e+02
201             	3.10005143e+02
202             	3.10016840e+02
203             	3.10028655e+02
204             	3.10040562e+02
205             	3.10051930e+02
206             	3.10063952e+02
207             	3.10075543e+02
208             	3.10087042e+02
209             	3.10098268e+02
210             	3.10109633e+02
211             	3.10120812e+02
212             	3.10132206e+02
213             	3.10144117e+02
214             	3.10156607e+02
215             	3.10168578e+02
216             	3.10180961e+02
217             	3.10193420e+02
218             	3.10204637e+02
219             	3.10216886e+02
220             	3.10228096e+02
221             	3.10239865e+02
222             	3.10251686e+02
223             	3.10263221e+02
224             	3.10274737e+02
225             	3.10285880e+02
226             	3.10296652e+02
227             	3.10307627e+02
228             	3.10319764e+02
229             	3.10331794e+02
230             	3.10343783e+02
231             	3.10355753e+02
232             	3.10367282e+02
233             	3.10377935e+02
234             	3.10388053e+02
235             	3.10398472e+02
236             	3.10408776e+02
237             	3.10418961e+02
238             	3.10429183e+02
239             	3.10438994e+02
240             	3.10449261e+02
241             	3.10459347e+02
242             	3.10469647e+02
243             	3.10480292e+02
244             	3.10491048e+02
245             	3.10501733e+02
246             	3.10512221e+02
247             	3.10521987e+02
248             	3.10531289e+02
249             	3.10540708e+02
250             	3.10549833e+02
251             	3.10558785e+02
252             	3.10567689e+02
253             	3.10576630e+02
254             	3.10585644e+02
255             	3.10594482e+02
256             	3.10604142e+02
257             	3.10613674e+02
258             	3.10623203e+02
259             	3.10632878e+02
260             	3.10642609e+02
261             	3.10652255e+02
262             	3.10661682e+02
263             	3.10671006e+02
264             	3.10680105e+02
265             	3.10688935e+02
266             	3.10697371e+02
267             	3.10705268e+02
268             	3.10713040e+02
269             	3.10720675e+02
270             	3.10728237e+02
271             	3.10735809e+02
272             	3.10743636e+02
273             	3.10751862e+02
274             	3.10759979e+02
275             	3.10768600e+02
276             	3.10777135e+02
277             	3.10786250e+02
278             	3.10795469e+02
279             	3.10804735e+02
280             	3.10814060e+02
281             	3.10823177e+02
282             	3.10832193e+02
283             	3.10840289e+02
284             	3.10848175e+02
285             	3.10855901e+02
286             	3.10863126e+02
287             	3.10869818e+02
288             	3.10876239e+02
289             	3.10882621e+02
290             	3.10888918e+02
291             	3.10894975e+02
292             	3.10901134e+02
293             	3.10907504e+02
294             	3.10914204e+02
295             	3.10920955e+02
296             	3.10927685e+02
297             	3.10933963e+02
298             	3.10939186e+02
299             	3.10944745e+02
300             	3.10950309e+02
301             	3.10955877e+02
302             	3.10961510e+02
303             	3.10967359e+02
304             	3.10973217e+02
305             	3.10979051e+02
306             	3.10984931e+02
307             	3.10991177e+02
308             	3.10997521e+02
309             	3.11004001e+02
310             	3.11010357e+02
311             	3.11016108e+02
312             	3.11021765e+02
313             	3.11027270e+02
314             	3.11032528e+02
315             	3.11037488e+02
316             	3.11042325e+02
317             	3.11047138e+02
318             	3.11052081e+02
319             	3.11057171e+02
320             	3.11062117e+02
321             	3.11067241e+02
322             	3.11072519e+02
323             	3.11077884e+02
324             	3.11083336e+02
325             	3.11088881e+02
326             	3.11094548e+02
327             	3.11100214e+02
328             	3.11105843e+02
329             	3.11111397e+02
330             	3.11116826e+02
331             	3.11122189e+02
332             	3.11127380e+02
333             	3.11131967e+02
334             	3.11136129e+02
335             	3.11140183e+02
336             	3.11144313e+02
337             	3.11148425e+02
338             	3.11152528e+02
339             	3.11156856e+02
340             	3.11161416e+02
341             	3.11166061e+02
342             	3.11170699e+02
343             	3.11175433e+02
344             	3.11180450e+02
345             	3.11185627e+02
346             	3.11190697e+02
347             	3.11195467e+02
348             	3.11200252e+02
349             	3.11204919e+02
350             	3.11209367e+02
351             	3.11213645e+02
352             	3.11217837e+02
353             	3.11221945e+02
354             	3.11225951e+02
355             	3.11229540e+02
356             	3.11232746e+02
357             	3.11236130e+02
358             	3.11239481e+02
359             	3.11242772e+02
360             	3.11246100e+02
361             	3.11249367e+02
362             	3.11253078e+02
363             	3.11257038e+02
364             	3.11261076e+02
365             	3.11265530e+02
366             	3.11269895e+02
367             	3.11274267e+02
368             	3.11278731e+02
369             	3.11283163e+02
370             	3.11286967e+02
371             	3.11290879e+02
372             	3.11294708e+02
373             	3.11298299e+02
374             	3.11301739e+02
375             	3.11305141e+02
376             	3.11308566e+02
377             	3.11311974e+02
378             	3.11315437e+02
379             	3.11318898e+02
380             	3.11322300e+02
381             	3.11325642e+02
382             	3.11329008e+02
383             	3.11332512e+02
384             	3.11336040e+02
385             	3.11339504e+02
386             	3.11342851e+02
387             	3.11346046e+02
388             	3.11348999e+02
389             	3.11351417e+02
390             	3.11353733e+02
391             	3.11355822e+02
392             	3.11357967e+02
393             	3.11359970e+02
394             	3.11362058e+02
395             	3.11364319e+02
396             	3.11366763e+02
397             	3.11369290e+02
398             	3.11371894e+02
399             	3.11374621e+02
400             	3.11377641e+02
401             	3.11380829e+02
402             	3.11384109e+02
403             	3.11387329e+02
404             	3.11390371e+02
405             	3.11392859e+02
406             	3.11395041e+02
407             	3.11397371e+02
408             	3.11399434e+02
409             	3.11401325e+02
410             	3.11403223e+02
411             	3.11405145e+02
412             	3.11407100e+02
413             	3.11409036e+02
414             	3.11411164e+02
415             	3.11413363e+02
416             	3.11415702e+02
417             	3.11418136e+02
418             	3.11420627e+02
419             	3.11423129e+02
420             	3.11425624e+02
421             	3.11428056e+02
422             	3.11430422e+02
423             	3.11432685e+02
424             	3.11434998e+02
425             	3.11437254e+02
426             	3.11439418e+02
427             	3.11441260e+02
428             	3.11442903e+02
429             	3.11444500e+02
430             	3.11445792e+02
431             	3.11447014e+02
432             	3.11448364e+02
433             	3.11449705e+02
434             	3.11451098e+02
435             	3.11452642e+02
436             	3.11454393e+02
437             	3.11456372e+02
438             	3.11458562e+02
439             	3.11460904e+02
440             	3.11463388e+02
441             	3.11465960e+02
442             	3.11468548e+02
443             	3.11471269e+02
444             	3.11474007e+02
445             	3.11476667e+02
446             	3.11479197e+02
447             	3.11481590e+02
448             	3.11483877e+02
449             	3.11486047e+02
450             	3.11488029e+02
451             	3.11489789e+02
452             	3.11491484e+02
453             	3.11493074e+02
454             	3.11494593e+02
455             	3.11496067e+02
456             	3.11497536e+02
457             	3.11499047e+02
458             	3.11500627e+02
459             	3.11502295e+02
460             	3.11504067e+02
461             	3.11505895e+02
462             	3.11507796e+02
463             	3.11509806e+02
464             	3.11511860e+02
465             	3.11513951e+02
466             	3.11515959e+02
467             	3.11517953e+02
468             	3.11519861e+02
469             	3.11521651e+02
470             	3.11523335e+02
471             	3.11524930e+02
472             	3.11526459e+02
473             	3.11527942e+02
474             	3.11529416e+02
475             	3.11530855e+02
476             	3.11532259e+02
477             	3.11533656e+02
478             	3.11535041e+02
479             	3.11536421e+02
480             	3.11537849e+02
481             	3.11539272e+02
482             	3.11540689e+02
483             	3.11542137e+02
484             	3.11543623e+02
485             	3.11545166e+02
486             	3.11546763e+02
487             	3.11548413e+02
488             	3.11550134e+02
489             	3.11551912e+02
490             	3.11553744e+02
491             	3.11555607e+02
492             	3.11557451e+02
493             	3.11559086e+02
494             	3.11560680e+02
495             	3.11562189e+02
496             	3.11563615e+02
497             	3.11564932e+02
498             	3.11566172e+02
499             	3.11567371e+02
500             	3.11568574e+02
501             	3.11569799e+02
502             	3.11571060e+02
503             	3.11572348e+02
504             	3.11573678e+02
505             	3.11575046e+02
506             	3.11576446e+02
507             	3.11577877e+02
508             	3.11579338e+02
509             	3.11580801e+02
510             	3.11582278e+02
511             	3.11583756e+02
512             	3.11585215e+02
513             	3.11586662e+02
514             	3.11588060e+02
515             	3.11589417e+02
516             	3.11590724e+02
517             	3.11591983e+02
518             	3.11593187e+02
519             	3.11594348e+02
520             	3.11595472e+02
521             	3.11596563e+02
522             	3.11597627e+02
523             	3.11598680e+02
524             	3.11599705e+02
525             	3.11600673e+02
526             	3.11601667e+02
527             	3.11602662e+02
528             	3.11603647e+02
529             	3.11604601e+02
530             	3.11605580e+02
531             	3.11606565e+02
532             	3.11607564e+02
533             	3.11608593e+02
534             	3.11609657e+02
535             	3.11610758e+02
536             	3.11611906e+02
537             	3.11613066e+02
538             	3.11614259e+02
539             	3.11615486e+02
540             	3.11616735e+02
541             	3.11617995e+02
542             	3.11619257e+02
543             	3.11620511e+02
544             	3.11621741e+02
545             	3.11622982e+02
546             	3.11624172e+02
547             	3.11625288e+02
548             	3.11626299e+02
549             	3.11627309e+02
550             	3.11628279e+02
551             	3.11629176e+02
552             	3.11630016e+02
553             	3.11630813e+02
554             	3.11631584e+02
555             	3.11632351e+02
556             	3.11633116e+02
557             	3.11633897e+02
558             	3.11634694e+02
559             	3.11635538e+02
560             	3.11636410e+02
561             	3.11637307e+02
562             	3.11638235e+02
563             	3.11639184e+02
564             	3.11640158e+02
565             	3.11641150e+02
566             	3.11642145e+02
567             	3.11643129e+02
568             	3.11644083e+02
569             	3.11644992e+02
570             	3.11645876e+02
571             	3.11646720e+02
572             	3.11647520e+02
573             	3.11648283e+02
574             	3.11649023e+02
575             	3.11649745e+02
576             	3.11650449e+02
577             	3.11651137e+02
578             	3.11651815e+02
579             	3.11652481e+02
580             	3.11653124e+02
581             	3.11653796e+02
582             	3.11654479e+02
583             	3.11655160e+02
584             	3.11655845e+02
585             	3.11656542e+02
586             	3.11657258e+02
587             	3.11657996e+02
588             	3.11658739e+02
589             	3.11659497e+02
590             	3.11660270e+02
591             	3.11661055e+02
592             	3.11661843e+02
593             	3.11662616e+02
594             	3.11663386e+02
595             	3.11664153e+02
596             	3.11664908e+02
597             	3.11665664e+02
598             	3.11666405e+02
599             	3.11667108e+02
600             	3.11667798e+02
601             	3.11668481e+02
602             	3.11669157e+02
603             	3.11669822e+02
604             	3.11670470e+02
605             	3.11671058e+02
606             	3.11671617e+02
607             	3.11672175e+02
608             	3.11672710e+02
609             	3.11673220e+02
610             	3.11673717e+02
611             	3.11674216e+02
612             	3.11674728e+02
613             	3.11675254e+02
614             	3.11675796e+02
615             	3.11676353e+02
616             	3.11676941e+02
617             	3.11677539e+02
618             	3.11678148e+02
619             	3.11678761e+02
620             	3.11679373e+02
621             	3.11679976e+02
