# Region        : cellZone component_4
# Cells         : 222
# Volume        : 4.20990574e-01
# Time          	volAverage(T)
1               	3.00198918e+02
2               	3.00396188e+02
3               	3.00583401e+02
4               	3.00763565e+02
5               	3.00939709e+02
6               	3.01112283e+02
7               	3.01281563e+02
8               	3.01449132e+02
9               	3.01614951e+02
10              	3.01777320e+02
11              	3.01938185e+02
12              	3.02096232e+02
13              	3.02251762e+02
14              	3.02403754e+02
15              	3.02553961e+02
16              	3.02701306e+02
17              	3.02845981e+02
18              	3.02989389e+02
19              	3.03131100e+02
20              	3.03270945e+02
21              	3.03406961e+02
22              	3.03539472e+02
23              	3.03670332e+02
24              	3.03799107e+02
25              	3.03927262e+02
26              	3.04053735e+02
27              	3.04182953e+02
28              	3.04306623e+02
29              	3.04431492e+02
30              	3.04555108e+02
31              	3.04675620e+02
32              	3.04793877e+02
33              	3.04909734e+02
34              	3.05023562e+02
35              	3.05135031e+02
36              	3.05248649e+02
37              	3.05355494e+02
38              	3.05454827e+02
39              	3.05552883e+02
40              	3.05648536e+02
41              	3.05738520e+02
42              	3.05823483e+02
43              	3.05909431e+02
44              	3.06003046e+02
45              	3.06092369e+02
46              	3.06187363e+02
47              	3.06283861e+02
48              	3.06377139e+02
49              	3.06471793e+02
50              	3.06563905e+02
51              	3.06659066e+02
52              	3.06754975e+02
53              	3.06852503e+02
54              	3.06948978e+02
55              	3.07040519e+02
56              	3.07133069e+02
57              	3.07221560e+02
58              	3.07311001e+02
59              	3.07399499e+02
60              	3.07486717e+02
61              	3.07570177e+02
62              	3.07653146e+02
63              	3.07736090e+02
64              	3.07817124e+02
65              	3.07899332e+02
66              	3.07981670e+02
67              	3.08061393e+02
68              	3.08141092e+02
69              	3.08219793e+02
70              	3.08296237e+02
71              	3.08371190e+02
72              	3.08443260e+02
73              	3.08515736e+02
74              	3.08585743e+02
75              	3.08655599e+02
76              	3.08725092e+02
77              	3.08794864e+02
78              	3.08863716e+02
79              	3.08931493e+02
80              	3.08998208e+02
81              	3.09064889e+02
82              	3.09130705e+02
83              	3.09195588e+02
84              	3.09259479e+02
85              	3.09322387e+02
86              	3.09384195e+02
87              	3.09443950e+02
88              	3.09503376e+02
89              	3.09562062e+02
90              	3.09619641e+02
91              	3.09677085e+02
92              	3.09732606e+02
93              	3.09786210e+02
94              	3.09839994e+02
95              	3.09893617e+02
96              	3.09946405e+02
97              	3.09999579e+02
98              	3.10053019e+02
99              	3.10106422e+02
100             	3.10160321e+02
101             	3.10215544e+02
102             	3.10268998e+02
103             	3.10322682e+02
104             	3.10375352e+02
105             	3.10427357e+02
106             	3.10478369e+02
107             	3.10527868e+02
108             	3.10575766e+02
109             	3.10622357e+02
110             	3.10667759e+02
111             	3.10712330e+02
112             	3.10756886e+02
113             	3.10799963e+02
114             	3.10842201e+02
115             	3.10883700e+02
116             	3.10924741e+02
117             	3.10965606e+02
118             	3.11006781e+02
119             	3.11048842e+02
120             	3.11092687e+02
121             	3.11136251e+02
122             	3.11177837e+02
123             	3.11218925e+02
124             	3.11260984e+02
125             	3.11302456e+02
126             	3.11343033e+02
127             	3.11384214e+02
128             	3.11424160e+02
129             	3.11463635e+02
130             	3.11501599e+02
131             	3.11538276e+02
132             	3.11574336e+02
133             	3.11609519e+02
134             	3.11644175e+02
135             	3.11677933e+02
136             	3.11710251e+02
137             	3.11742902e+02
138             	3.11775194e+02
139             	3.11807413e+02
140             	3.11840284e+02
141             	3.11873672e+02
142             	3.11907263e+02
143             	3.11940820e+02
144             	3.11972664e+02
145             	3.12003721e+02
146             	3.12035706e+02
147             	3.12066802e+02
148             	3.12096985e+02
149             	3.12126097e+02
150             	3.12153839e+02
151             	3.12180201e+02
152             	3.12206225e+02
153             	3.12231060e+02
154             	3.12256314e+02
155             	3.12281858e+02
156             	3.12306899e+02
157             	3.12332270e+02
158             	3.12358234e+02
159             	3.12384779e+02
160             	3.12412075e+02
161             	3.12438798e+02
162             	3.12464950e+02
163             	3.12490525e+02
164             	3.12516189e+02
165             	3.12542623e+02
166             	3.12569233e+02
167             	3.12597017e+02
168             	3.12623567e+02
169             	3.12650234e+02
170             	3.12676548e+02
171             	3.12701499e+02
172             	3.12725594e+02
173             	3.12748028e+02
174             	3.12769849e+02
175             	3.12791044e+02
176             	3.12812037e+02
177             	3.12832435e+02
178             	3.12852898e+02
179             	3.12874197e+02
180             	3.12896059e+02
181             	3.12917773e+02
182             	3.12940046e+02
183             	3.12962974e+02
184             	3.12985424e+02
185             	3.13007328e+02
186             	3.13027665e+02
187             	3.13048707e+02
188             	3.13069101e+02
189             	3.13089199e+02
190             	3.13110584e+02
191             	3.13132243e+02
192             	3.13152421e+02
193             	3.13171631e+02
194             	3.13189865e+02
195             	3.13206954e+02
196             	3.13222753e+02
197             	3.13237450e+02
198             	3.13251380e+02
199             	3.13264559e+02
200             	3.13277615e+02
201             	3.13290338e+02
202             	3.13303028e+02
203             	3.13315628e+02
204             	3.13328251e+02
205             	3.13340943e+02
206             	3.13353722e+02
207             	3.13366819e+02
208             	3.13381336e+02
209             	3.13395359e+02
210             	3.13409679e+02
211             	3.13423696e+02
212             	3.13437336e+02
213             	3.13450768e+02
214             	3.13463540e+02
215             	3.13475852e+02
216             	3.13487546e+02
217             	3.13498690e+02
218             	3.13509208e+02
219             	3.13519363e+02
220             	3.13529301e+02
221             	3.13539200e+02
222             	3.13549156e+02
223             	3.13559366e+02
224             	3.13569493e+02
225             	3.13579741e+02
226             	3.13589893e+02
227             	3.13600469e+02
228             	3.13611301e+02
229             	3.13622336e+02
230             	3.13634005e+02
231             	3.13645716e+02
232             	3.13657790e+02
233             	3.13670256e+02
234             	3.13683018e+02
235             	3.13696059e+02
236             	3.13709342e+02
237             	3.13722730e+02
238             	3.13735796e+02
239             	3.13748850e+02
240             	3.13760719e+02
241             	3.13771786e+02
242             	3.13781940e+02
243             	3.13791157e+02
244             	3.13799424e+02
245             	3.13806708e+02
246             	3.13813760e+02
247             	3.13820595e+02
248             	3.13827219e+02
249             	3.13833750e+02
250             	3.13840252e+02
251             	3.13847141e+02
252             	3.13854515e+02
253             	3.13862309e+02
254             	3.13869765e+02
255             	3.13877656e+02
256             	3.13885474e+02
257             	3.13893349e+02
258             	3.13900518e+02
259             	3.13907274e+02
260             	3.13913547e+02
261             	3.13919342e+02
262             	3.13924716e+02
263             	3.13929991e+02
264             	3.13935201e+02
265             	3.13940407e+02
266             	3.13945603e+02
267             	3.13951120e+02
268             	3.13956857e+02
269             	3.13962767e+02
270             	3.13968917e+02
271             	3.13975367e+02
272             	3.13982164e+02
273             	3.13989239e+02
274             	3.13996641e+02
275             	3.14004408e+02
276             	3.14012439e+02
277             	3.14020549e+02
278             	3.14028903e+02
279             	3.14037373e+02
280             	3.14045922e+02
281             	3.14054551e+02
282             	3.14063125e+02
283             	3.14071682e+02
284             	3.14080119e+02
285             	3.14088099e+02
286             	3.14095702e+02
287             	3.14103028e+02
288             	3.14110122e+02
289             	3.14116946e+02
290             	3.14123616e+02
291             	3.14130170e+02
292             	3.14136722e+02
293             	3.14143174e+02
294             	3.14149810e+02
295             	3.14156735e+02
296             	3.14163959e+02
297             	3.14171285e+02
298             	3.14178839e+02
299             	3.14186556e+02
300             	3.14194570e+02
301             	3.14202913e+02
302             	3.14211581e+02
303             	3.14220550e+02
304             	3.14229698e+02
305             	3.14238875e+02
306             	3.14247839e+02
307             	3.14256407e+02
308             	3.14264293e+02
309             	3.14271369e+02
310             	3.14277459e+02
311             	3.14283088e+02
312             	3.14287586e+02
313             	3.14291194e+02
314             	3.14294065e+02
315             	3.14296278e+02
316             	3.14297946e+02
317             	3.14299330e+02
318             	3.14300452e+02
319             	3.14301362e+02
320             	3.14302134e+02
321             	3.14302801e+02
322             	3.14303416e+02
323             	3.14304026e+02
324             	3.14304696e+02
325             	3.14305300e+02
326             	3.14305880e+02
327             	3.14306399e+02
328             	3.14306885e+02
329             	3.14307377e+02
330             	3.14307931e+02
331             	3.14308587e+02
332             	3.14309353e+02
333             	3.14310269e+02
334             	3.14311395e+02
335             	3.14312777e+02
336             	3.14314423e+02
337             	3.14316357e+02
338             	3.14318599e+02
339             	3.14321146e+02
340             	3.14323998e+02
341             	3.14327189e+02
342             	3.14330776e+02
343             	3.14334779e+02
344             	3.14339228e+02
345             	3.14344156e+02
346             	3.14349572e+02
347             	3.14355468e+02
348             	3.14361797e+02
349             	3.14368499e+02
350             	3.14375484e+02
351             	3.14382711e+02
352             	3.14390053e+02
353             	3.14397451e+02
354             	3.14404870e+02
355             	3.14412243e+02
356             	3.14419576e+02
357             	3.14426732e+02
358             	3.14433741e+02
359             	3.14440528e+02
360             	3.14447040e+02
361             	3.14453227e+02
362             	3.14459073e+02
363             	3.14464575e+02
364             	3.14469710e+02
365             	3.14474504e+02
366             	3.14478959e+02
367             	3.14483037e+02
368             	3.14486834e+02
369             	3.14490326e+02
370             	3.14493502e+02
371             	3.14496341e+02
372             	3.14498807e+02
373             	3.14500868e+02
374             	3.14502496e+02
375             	3.14503672e+02
376             	3.14504389e+02
377             	3.14504669e+02
378             	3.14504543e+02
379             	3.14504050e+02
380             	3.14503237e+02
381             	3.14502151e+02
382             	3.14500845e+02
383             	3.14499373e+02
384             	3.14497784e+02
385             	3.14496133e+02
386             	3.14494463e+02
387             	3.14492817e+02
388             	3.14491249e+02
389             	3.14489798e+02
390             	3.14488476e+02
391             	3.14487292e+02
392             	3.14486272e+02
393             	3.14485423e+02
394             	3.14484800e+02
395             	3.14484416e+02
396             	3.14484276e+02
397             	3.14484398e+02
398             	3.14484802e+02
399             	3.14485507e+02
400             	3.14486513e+02
401             	3.14487823e+02
402             	3.14489414e+02
403             	3.14491295e+02
404             	3.14493430e+02
405             	3.14495751e+02
406             	3.14498310e+02
407             	3.14501020e+02
408             	3.14503835e+02
409             	3.14506664e+02
410             	3.14509522e+02
411             	3.14512394e+02
412             	3.14515148e+02
413             	3.14517705e+02
414             	3.14520077e+02
415             	3.14522268e+02
416             	3.14524255e+02
417             	3.14526144e+02
418             	3.14528012e+02
419             	3.14529853e+02
420             	3.14531675e+02
421             	3.14533443e+02
422             	3.14535131e+02
423             	3.14536737e+02
424             	3.14538124e+02
425             	3.14539567e+02
426             	3.14540993e+02
427             	3.14542411e+02
428             	3.14543806e+02
429             	3.14552512e+02
430             	3.14567585e+02
431             	3.14587266e+02
432             	3.14609759e+02
433             	3.14635204e+02
434             	3.14663212e+02
435             	3.14693022e+02
436             	3.14724056e+02
437             	3.14753741e+02
438             	3.14782223e+02
439             	3.14809455e+02
440             	3.14836319e+02
441             	3.14863141e+02
442             	3.14889157e+02
443             	3.14914934e+02
444             	3.14940462e+02
445             	3.14965739e+02
446             	3.14990721e+02
447             	3.15015479e+02
448             	3.15039700e+02
449             	3.15063700e+02
450             	3.15087447e+02
451             	3.15110826e+02
452             	3.15133794e+02
453             	3.15156026e+02
454             	3.15178062e+02
455             	3.15199731e+02
456             	3.15220835e+02
457             	3.15241774e+02
458             	3.15261966e+02
459             	3.15281760e+02
460             	3.15301183e+02
461             	3.15320423e+02
462             	3.15339265e+02
463             	3.15357627e+02
464             	3.15375600e+02
465             	3.15393164e+02
466             	3.15410546e+02
467             	3.15427302e+02
468             	3.15443558e+02
469             	3.15459460e+02
470             	3.15475117e+02
471             	3.15490601e+02
472             	3.15506038e+02
473             	3.15521430e+02
474             	3.15536827e+02
475             	3.15552086e+02
476             	3.15567727e+02
477             	3.15583514e+02
478             	3.15599569e+02
479             	3.15615771e+02
480             	3.15632155e+02
481             	3.15648837e+02
482             	3.15665593e+02
483             	3.15682408e+02
484             	3.15699192e+02
485             	3.15715711e+02
486             	3.15732074e+02
487             	3.15747648e+02
488             	3.15762431e+02
489             	3.15776338e+02
490             	3.15789313e+02
491             	3.15801522e+02
492             	3.15812919e+02
493             	3.15823852e+02
494             	3.15834343e+02
495             	3.15844578e+02
496             	3.15854478e+02
497             	3.15864179e+02
498             	3.15873729e+02
499             	3.15883384e+02
500             	3.15893105e+02
501             	3.15902996e+02
502             	3.15912992e+02
503             	3.15923237e+02
504             	3.15933816e+02
505             	3.15944516e+02
506             	3.15954996e+02
507             	3.15965801e+02
508             	3.15976428e+02
509             	3.15986719e+02
510             	3.15996710e+02
511             	3.16006276e+02
512             	3.16015460e+02
513             	3.16024351e+02
514             	3.16033034e+02
515             	3.16041585e+02
516             	3.16049989e+02
517             	3.16058176e+02
518             	3.16066199e+02
519             	3.16074050e+02
520             	3.16079754e+02
521             	3.16083998e+02
522             	3.16088707e+02
523             	3.16093942e+02
524             	3.16099441e+02
525             	3.16105336e+02
526             	3.16111346e+02
527             	3.16117530e+02
528             	3.16124009e+02
529             	3.16130647e+02
530             	3.16137436e+02
531             	3.16144283e+02
532             	3.16151116e+02
533             	3.16157836e+02
534             	3.16164313e+02
535             	3.16170494e+02
536             	3.16176396e+02
537             	3.16182105e+02
538             	3.16187737e+02
539             	3.16193291e+02
540             	3.16198798e+02
541             	3.16204305e+02
542             	3.16209837e+02
543             	3.16215409e+02
544             	3.16220982e+02
545             	3.16226639e+02
546             	3.16232406e+02
547             	3.16238277e+02
548             	3.16244158e+02
549             	3.16250347e+02
550             	3.16256754e+02
551             	3.16263385e+02
552             	3.16270283e+02
553             	3.16277500e+02
554             	3.16285026e+02
555             	3.16292755e+02
556             	3.16300619e+02
557             	3.16308538e+02
558             	3.16316261e+02
559             	3.16323480e+02
560             	3.16330103e+02
561             	3.16336107e+02
562             	3.16341523e+02
563             	3.16346535e+02
564             	3.16351194e+02
565             	3.16355623e+02
566             	3.16359766e+02
567             	3.16363606e+02
568             	3.16367082e+02
569             	3.16370329e+02
570             	3.16373341e+02
571             	3.16376249e+02
572             	3.16379186e+02
573             	3.16382179e+02
574             	3.16385294e+02
575             	3.16388496e+02
576             	3.16391803e+02
577             	3.16395182e+02
578             	3.16398646e+02
579             	3.16402076e+02
580             	3.16405462e+02
581             	3.16408745e+02
582             	3.16411927e+02
583             	3.16415031e+02
584             	3.16418057e+02
585             	3.16421028e+02
586             	3.16424029e+02
587             	3.16427117e+02
588             	3.16430365e+02
589             	3.16433550e+02
590             	3.16436694e+02
591             	3.16439762e+02
592             	3.16442788e+02
593             	3.16445810e+02
594             	3.16448880e+02
595             	3.16451959e+02
596             	3.16455087e+02
597             	3.16458310e+02
598             	3.16461633e+02
599             	3.16465070e+02
600             	3.16468588e+02
601             	3.16472167e+02
602             	3.16475805e+02
603             	3.16479438e+02
604             	3.16483080e+02
605             	3.16486713e+02
606             	3.16490271e+02
607             	3.16493713e+02
608             	3.16497158e+02
609             	3.16500574e+02
610             	3.16503953e+02
611             	3.16507288e+02
612             	3.16510545e+02
613             	3.16513735e+02
614             	3.16516848e+02
615             	3.16519879e+02
616             	3.16522825e+02
617             	3.16525648e+02
618             	3.16528289e+02
619             	3.16530941e+02
620             	3.16533266e+02
621             	3.16535331e+02
