# Region        : cellZone pcb
# Cells         : 490
# Volume        : 9.92159667e-01
# Time          	volAverage(T)
1               	3.00009759e+02
2               	3.00028380e+02
3               	3.00054145e+02
4               	3.00086702e+02
5               	3.00124601e+02
6               	3.00167637e+02
7               	3.00216119e+02
8               	3.00269403e+02
9               	3.00327199e+02
10              	3.00389151e+02
11              	3.00454655e+02
12              	3.00522947e+02
13              	3.00594712e+02
14              	3.00670036e+02
15              	3.00748163e+02
16              	3.00828092e+02
17              	3.00911313e+02
18              	3.00996909e+02
19              	3.01084736e+02
20              	3.01175012e+02
21              	3.01267483e+02
22              	3.01362179e+02
23              	3.01458177e+02
24              	3.01555943e+02
25              	3.01655053e+02
26              	3.01755051e+02
27              	3.01854800e+02
28              	3.01955001e+02
29              	3.02056173e+02
30              	3.02157691e+02
31              	3.02260782e+02
32              	3.02365428e+02
33              	3.02470595e+02
34              	3.02576642e+02
35              	3.02683315e+02
36              	3.02790279e+02
37              	3.02896920e+02
38              	3.03003381e+02
39              	3.03109112e+02
40              	3.03216014e+02
41              	3.03323146e+02
42              	3.03429440e+02
43              	3.03533619e+02
44              	3.03638021e+02
45              	3.03742131e+02
46              	3.03846461e+02
47              	3.03950504e+02
48              	3.04054629e+02
49              	3.04158063e+02
50              	3.04260314e+02
51              	3.04361573e+02
52              	3.04461013e+02
53              	3.04561092e+02
54              	3.04660505e+02
55              	3.04757926e+02
56              	3.04854990e+02
57              	3.04953361e+02
58              	3.05049028e+02
59              	3.05142685e+02
60              	3.05235734e+02
61              	3.05327707e+02
62              	3.05418507e+02
63              	3.05509056e+02
64              	3.05598310e+02
65              	3.05687629e+02
66              	3.05776801e+02
67              	3.05865309e+02
68              	3.05952239e+02
69              	3.06038647e+02
70              	3.06125327e+02
71              	3.06211975e+02
72              	3.06296961e+02
73              	3.06381328e+02
74              	3.06465575e+02
75              	3.06547938e+02
76              	3.06628566e+02
77              	3.06708321e+02
78              	3.06787297e+02
79              	3.06866430e+02
80              	3.06944411e+02
81              	3.07020356e+02
82              	3.07096116e+02
83              	3.07170598e+02
84              	3.07244382e+02
85              	3.07317605e+02
86              	3.07390852e+02
87              	3.07462090e+02
88              	3.07533867e+02
89              	3.07605067e+02
90              	3.07675323e+02
91              	3.07745140e+02
92              	3.07814324e+02
93              	3.07882450e+02
94              	3.07949393e+02
95              	3.08013267e+02
96              	3.08075570e+02
97              	3.08136651e+02
98              	3.08196931e+02
99              	3.08256191e+02
100             	3.08314637e+02
101             	3.08373154e+02
102             	3.08431181e+02
103             	3.08487689e+02
104             	3.08544347e+02
105             	3.08600435e+02
106             	3.08654316e+02
107             	3.08707770e+02
108             	3.08759481e+02
109             	3.08810625e+02
110             	3.08861258e+02
111             	3.08911585e+02
112             	3.08961393e+02
113             	3.09010448e+02
114             	3.09059164e+02
115             	3.09107331e+02
116             	3.09154696e+02
117             	3.09200907e+02
118             	3.09245681e+02
119             	3.09289565e+02
120             	3.09332704e+02
121             	3.09374762e+02
122             	3.09416091e+02
123             	3.09456839e+02
124             	3.09497044e+02
125             	3.09536931e+02
126             	3.09576037e+02
127             	3.09614839e+02
128             	3.09653192e+02
129             	3.09691044e+02
130             	3.09728339e+02
131             	3.09764786e+02
132             	3.09800653e+02
133             	3.09835674e+02
134             	3.09870277e+02
135             	3.09904215e+02
136             	3.09937583e+02
137             	3.09970241e+02
138             	3.10002282e+02
139             	3.10033831e+02
140             	3.10064882e+02
141             	3.10095380e+02
142             	3.10125294e+02
143             	3.10154774e+02
144             	3.10183485e+02
145             	3.10211568e+02
146             	3.10239208e+02
147             	3.10266454e+02
148             	3.10293254e+02
149             	3.10319926e+02
150             	3.10345763e+02
151             	3.10371094e+02
152             	3.10395931e+02
153             	3.10420432e+02
154             	3.10444643e+02
155             	3.10468673e+02
156             	3.10492324e+02
157             	3.10515684e+02
158             	3.10538862e+02
159             	3.10561500e+02
160             	3.10583817e+02
161             	3.10605517e+02
162             	3.10626624e+02
163             	3.10647150e+02
164             	3.10666954e+02
165             	3.10686477e+02
166             	3.10705624e+02
167             	3.10724345e+02
168             	3.10742672e+02
169             	3.10760648e+02
170             	3.10778298e+02
171             	3.10795719e+02
172             	3.10812689e+02
173             	3.10829573e+02
174             	3.10846196e+02
175             	3.10862540e+02
176             	3.10878639e+02
177             	3.10894481e+02
178             	3.10910054e+02
179             	3.10925367e+02
180             	3.10940441e+02
181             	3.10955272e+02
182             	3.10969834e+02
183             	3.10984123e+02
184             	3.10998144e+02
185             	3.11011734e+02
186             	3.11024897e+02
187             	3.11038056e+02
188             	3.11050938e+02
189             	3.11063432e+02
190             	3.11075579e+02
191             	3.11087716e+02
192             	3.11099420e+02
193             	3.11110655e+02
194             	3.11121734e+02
195             	3.11132729e+02
196             	3.11143598e+02
197             	3.11154306e+02
198             	3.11164845e+02
199             	3.11175212e+02
200             	3.11185408e+02
201             	3.11195434e+02
202             	3.11205165e+02
203             	3.11214787e+02
204             	3.11223829e+02
205             	3.11232889e+02
206             	3.11241882e+02
207             	3.11250702e+02
208             	3.11259272e+02
209             	3.11267495e+02
210             	3.11275259e+02
211             	3.11283620e+02
212             	3.11291253e+02
213             	3.11298574e+02
214             	3.11305869e+02
215             	3.11313088e+02
216             	3.11320391e+02
217             	3.11327583e+02
218             	3.11334757e+02
219             	3.11342096e+02
220             	3.11349150e+02
221             	3.11356109e+02
222             	3.11362441e+02
223             	3.11368705e+02
224             	3.11374849e+02
225             	3.11380749e+02
226             	3.11386326e+02
227             	3.11391690e+02
228             	3.11397200e+02
229             	3.11402558e+02
230             	3.11407601e+02
231             	3.11412661e+02
232             	3.11417804e+02
233             	3.11422980e+02
234             	3.11428181e+02
235             	3.11433339e+02
236             	3.11438533e+02
237             	3.11443489e+02
238             	3.11448552e+02
239             	3.11453508e+02
240             	3.11458528e+02
241             	3.11463580e+02
242             	3.11468294e+02
243             	3.11472715e+02
244             	3.11476889e+02
245             	3.11480811e+02
246             	3.11484560e+02
247             	3.11488306e+02
248             	3.11491899e+02
249             	3.11495395e+02
250             	3.11498896e+02
251             	3.11502401e+02
252             	3.11505952e+02
253             	3.11509588e+02
254             	3.11513070e+02
255             	3.11516511e+02
256             	3.11519957e+02
257             	3.11523431e+02
258             	3.11526883e+02
259             	3.11530107e+02
260             	3.11533435e+02
261             	3.11536897e+02
262             	3.11540539e+02
263             	3.11543904e+02
264             	3.11547190e+02
265             	3.11550160e+02
266             	3.11553148e+02
267             	3.11555893e+02
268             	3.11558446e+02
269             	3.11560759e+02
270             	3.11563091e+02
271             	3.11565559e+02
272             	3.11568182e+02
273             	3.11570764e+02
274             	3.11573401e+02
275             	3.11576056e+02
276             	3.11578561e+02
277             	3.11581189e+02
278             	3.11583841e+02
279             	3.11586269e+02
280             	3.11588588e+02
281             	3.11591100e+02
282             	3.11593696e+02
283             	3.11596236e+02
284             	3.11598561e+02
285             	3.11600656e+02
286             	3.11602590e+02
287             	3.11604499e+02
288             	3.11606621e+02
289             	3.11608551e+02
290             	3.11610499e+02
291             	3.11612520e+02
292             	3.11614577e+02
293             	3.11616819e+02
294             	3.11619096e+02
295             	3.11621501e+02
296             	3.11624304e+02
297             	3.11626887e+02
298             	3.11629392e+02
299             	3.11631630e+02
300             	3.11633608e+02
301             	3.11635311e+02
302             	3.11636905e+02
303             	3.11638484e+02
304             	3.11640106e+02
305             	3.11641759e+02
306             	3.11643432e+02
307             	3.11645143e+02
308             	3.11646872e+02
309             	3.11648575e+02
310             	3.11650213e+02
311             	3.11651760e+02
312             	3.11653235e+02
313             	3.11654660e+02
314             	3.11656051e+02
315             	3.11657423e+02
316             	3.11658802e+02
317             	3.11660361e+02
318             	3.11661817e+02
319             	3.11663251e+02
320             	3.11664730e+02
321             	3.11666235e+02
322             	3.11667721e+02
323             	3.11669172e+02
324             	3.11670604e+02
325             	3.11672037e+02
326             	3.11673435e+02
327             	3.11674848e+02
328             	3.11676254e+02
329             	3.11677595e+02
330             	3.11678875e+02
331             	3.11680120e+02
332             	3.11681347e+02
333             	3.11682583e+02
334             	3.11683800e+02
335             	3.11685044e+02
336             	3.11686306e+02
337             	3.11687583e+02
338             	3.11688851e+02
339             	3.11690112e+02
340             	3.11691282e+02
341             	3.11692417e+02
342             	3.11693502e+02
343             	3.11694606e+02
344             	3.11695743e+02
345             	3.11696929e+02
346             	3.11698069e+02
347             	3.11699233e+02
348             	3.11700429e+02
349             	3.11701661e+02
350             	3.11702854e+02
351             	3.11703948e+02
352             	3.11705014e+02
353             	3.11706078e+02
354             	3.11707139e+02
355             	3.11708207e+02
356             	3.11709309e+02
357             	3.11710393e+02
358             	3.11711440e+02
359             	3.11712446e+02
360             	3.11713419e+02
361             	3.11714369e+02
362             	3.11715314e+02
363             	3.11716234e+02
364             	3.11717137e+02
365             	3.11718057e+02
366             	3.11718994e+02
367             	3.11719936e+02
368             	3.11720897e+02
369             	3.11721867e+02
370             	3.11722840e+02
371             	3.11723822e+02
372             	3.11724805e+02
373             	3.11725758e+02
374             	3.11726658e+02
375             	3.11727619e+02
376             	3.11728609e+02
377             	3.11729594e+02
378             	3.11730552e+02
379             	3.11731487e+02
380             	3.11732406e+02
381             	3.11733302e+02
382             	3.11734168e+02
383             	3.11734975e+02
384             	3.11735785e+02
385             	3.11736565e+02
386             	3.11737320e+02
387             	3.11738051e+02
388             	3.11738772e+02
389             	3.11739538e+02
390             	3.11740257e+02
391             	3.11741042e+02
392             	3.11741777e+02
393             	3.11742514e+02
394             	3.11743273e+02
395             	3.11744047e+02
396             	3.11744832e+02
397             	3.11745632e+02
398             	3.11746451e+02
399             	3.11747268e+02
400             	3.11748089e+02
401             	3.11748888e+02
402             	3.11749582e+02
403             	3.11750282e+02
404             	3.11750951e+02
405             	3.11751579e+02
406             	3.11752170e+02
407             	3.11752735e+02
408             	3.11753289e+02
409             	3.11753857e+02
410             	3.11754416e+02
411             	3.11754983e+02
412             	3.11755571e+02
413             	3.11756174e+02
414             	3.11756758e+02
415             	3.11757331e+02
416             	3.11757884e+02
417             	3.11758441e+02
418             	3.11758990e+02
419             	3.11759615e+02
420             	3.11760222e+02
421             	3.11760842e+02
422             	3.11761471e+02
423             	3.11762124e+02
424             	3.11762781e+02
425             	3.11763427e+02
426             	3.11764066e+02
427             	3.11764700e+02
428             	3.11765342e+02
429             	3.11765994e+02
430             	3.11766646e+02
431             	3.11767291e+02
432             	3.11767946e+02
433             	3.11768598e+02
434             	3.11769244e+02
435             	3.11769882e+02
436             	3.11770514e+02
437             	3.11771112e+02
438             	3.11771660e+02
439             	3.11772225e+02
440             	3.11772773e+02
441             	3.11773293e+02
442             	3.11773782e+02
443             	3.11774257e+02
444             	3.11774724e+02
445             	3.11775185e+02
446             	3.11775670e+02
447             	3.11776134e+02
448             	3.11776601e+02
449             	3.11777107e+02
450             	3.11777557e+02
451             	3.11777987e+02
452             	3.11778431e+02
453             	3.11778907e+02
454             	3.11779407e+02
455             	3.11779926e+02
456             	3.11780466e+02
457             	3.11781024e+02
458             	3.11781594e+02
459             	3.11782170e+02
460             	3.11782750e+02
461             	3.11783330e+02
462             	3.11783907e+02
463             	3.11784450e+02
464             	3.11785009e+02
465             	3.11785486e+02
466             	3.11786016e+02
467             	3.11786564e+02
468             	3.11787098e+02
469             	3.11787620e+02
470             	3.11788125e+02
471             	3.11788610e+02
472             	3.11789101e+02
473             	3.11789596e+02
474             	3.11790087e+02
475             	3.11790583e+02
476             	3.11791064e+02
477             	3.11791513e+02
478             	3.11791938e+02
479             	3.11792337e+02
480             	3.11792714e+02
481             	3.11793086e+02
482             	3.11793464e+02
483             	3.11793826e+02
484             	3.11794179e+02
485             	3.11794596e+02
486             	3.11794907e+02
487             	3.11795204e+02
488             	3.11795536e+02
489             	3.11795874e+02
490             	3.11796262e+02
491             	3.11796675e+02
492             	3.11797088e+02
493             	3.11797484e+02
494             	3.11797874e+02
495             	3.11798252e+02
496             	3.11798614e+02
497             	3.11798955e+02
498             	3.11799270e+02
499             	3.11799564e+02
500             	3.11799858e+02
501             	3.11800145e+02
502             	3.11800451e+02
503             	3.11800748e+02
504             	3.11801089e+02
505             	3.11801456e+02
506             	3.11801835e+02
507             	3.11802219e+02
508             	3.11802581e+02
509             	3.11802945e+02
510             	3.11803286e+02
511             	3.11803633e+02
512             	3.11803979e+02
513             	3.11804307e+02
514             	3.11804621e+02
515             	3.11804931e+02
516             	3.11805230e+02
517             	3.11805526e+02
518             	3.11805818e+02
519             	3.11806117e+02
520             	3.11806468e+02
521             	3.11806771e+02
522             	3.11807056e+02
523             	3.11807353e+02
524             	3.11807662e+02
525             	3.11807938e+02
526             	3.11808186e+02
527             	3.11808418e+02
528             	3.11808635e+02
529             	3.11808848e+02
530             	3.11809060e+02
531             	3.11809273e+02
532             	3.11809493e+02
533             	3.11809726e+02
534             	3.11809983e+02
535             	3.11810268e+02
536             	3.11810568e+02
537             	3.11810893e+02
538             	3.11811212e+02
539             	3.11811538e+02
540             	3.11811869e+02
541             	3.11812150e+02
542             	3.11812425e+02
543             	3.11812744e+02
544             	3.11813054e+02
545             	3.11813303e+02
546             	3.11813509e+02
547             	3.11813696e+02
548             	3.11813897e+02
549             	3.11814102e+02
550             	3.11814352e+02
551             	3.11814629e+02
552             	3.11814906e+02
553             	3.11815211e+02
554             	3.11815539e+02
555             	3.11815896e+02
556             	3.11816250e+02
557             	3.11816585e+02
558             	3.11816902e+02
559             	3.11817202e+02
560             	3.11817486e+02
561             	3.11817754e+02
562             	3.11818009e+02
563             	3.11818260e+02
564             	3.11818510e+02
565             	3.11818751e+02
566             	3.11818967e+02
567             	3.11819140e+02
568             	3.11819301e+02
569             	3.11819435e+02
570             	3.11819555e+02
571             	3.11819671e+02
572             	3.11819793e+02
573             	3.11819919e+02
574             	3.11820052e+02
575             	3.11820198e+02
576             	3.11820340e+02
577             	3.11820494e+02
578             	3.11820669e+02
579             	3.11820853e+02
580             	3.11821045e+02
581             	3.11821247e+02
582             	3.11821463e+02
583             	3.11821694e+02
584             	3.11821934e+02
585             	3.11822185e+02
586             	3.11822461e+02
587             	3.11822728e+02
588             	3.11823010e+02
589             	3.11823302e+02
590             	3.11823601e+02
591             	3.11823893e+02
592             	3.11824142e+02
593             	3.11824424e+02
594             	3.11824696e+02
595             	3.11824949e+02
596             	3.11825199e+02
597             	3.11825459e+02
598             	3.11825686e+02
599             	3.11825889e+02
600             	3.11826084e+02
601             	3.11826254e+02
602             	3.11826411e+02
603             	3.11826561e+02
604             	3.11826708e+02
605             	3.11826858e+02
606             	3.11827021e+02
607             	3.11827154e+02
608             	3.11827269e+02
609             	3.11827375e+02
610             	3.11827482e+02
611             	3.11827578e+02
612             	3.11827667e+02
613             	3.11827759e+02
614             	3.11827844e+02
615             	3.11827925e+02
616             	3.11828010e+02
617             	3.11828110e+02
618             	3.11828230e+02
619             	3.11828374e+02
620             	3.11828540e+02
621             	3.11828712e+02
