# Region        : cellZone component_0
# Cells         : 80
# Volume        : 1.42691759e-01
# Time          	volAverage(T)
1               	3.02097376e+02
2               	3.04131482e+02
3               	3.05666417e+02
4               	3.06878948e+02
5               	3.08051361e+02
6               	3.09253680e+02
7               	3.10433342e+02
8               	3.11556409e+02
9               	3.12653255e+02
10              	3.13729327e+02
11              	3.14742934e+02
12              	3.15654643e+02
13              	3.16494814e+02
14              	3.17282407e+02
15              	3.18016199e+02
16              	3.18747704e+02
17              	3.19453696e+02
18              	3.20161114e+02
19              	3.20827318e+02
20              	3.21484743e+02
21              	3.22119286e+02
22              	3.22586444e+02
23              	3.22956522e+02
24              	3.23304440e+02
25              	3.23733511e+02
26              	3.24224139e+02
27              	3.24723672e+02
28              	3.25241568e+02
29              	3.25731936e+02
30              	3.26187080e+02
31              	3.26605197e+02
32              	3.27004452e+02
33              	3.27319080e+02
34              	3.27614640e+02
35              	3.27885186e+02
36              	3.28136295e+02
37              	3.28388562e+02
38              	3.28665464e+02
39              	3.29025338e+02
40              	3.29331212e+02
41              	3.29385584e+02
42              	3.29461834e+02
43              	3.29610762e+02
44              	3.29790021e+02
45              	3.29969531e+02
46              	3.30143467e+02
47              	3.30299295e+02
48              	3.30470433e+02
49              	3.30681687e+02
50              	3.30882874e+02
51              	3.31091007e+02
52              	3.31274675e+02
53              	3.31439585e+02
54              	3.31578948e+02
55              	3.31719301e+02
56              	3.31856180e+02
57              	3.31961770e+02
58              	3.32056692e+02
59              	3.32144247e+02
60              	3.32225384e+02
61              	3.32291542e+02
62              	3.32381864e+02
63              	3.32490869e+02
64              	3.32631445e+02
65              	3.32766400e+02
66              	3.32884728e+02
67              	3.32985003e+02
68              	3.33070170e+02
69              	3.33141422e+02
70              	3.33201902e+02
71              	3.33256279e+02
72              	3.33301583e+02
73              	3.33339655e+02
74              	3.33372285e+02
75              	3.33420634e+02
76              	3.33473392e+02
77              	3.33537213e+02
78              	3.33601696e+02
79              	3.33668570e+02
80              	3.33726704e+02
81              	3.33785640e+02
82              	3.33842563e+02
83              	3.33894286e+02
84              	3.33944230e+02
85              	3.33989142e+02
86              	3.34045296e+02
87              	3.34119221e+02
88              	3.34198531e+02
89              	3.34271298e+02
90              	3.34340460e+02
91              	3.34411458e+02
92              	3.34479317e+02
93              	3.34536672e+02
94              	3.34592177e+02
95              	3.34635187e+02
96              	3.34683156e+02
97              	3.34729336e+02
98              	3.34761556e+02
99              	3.34796780e+02
100             	3.34811609e+02
101             	3.34855839e+02
102             	3.34888824e+02
103             	3.34942859e+02
104             	3.35013265e+02
105             	3.35082539e+02
106             	3.35135529e+02
107             	3.35194061e+02
108             	3.35252207e+02
109             	3.35293225e+02
110             	3.35338844e+02
111             	3.35364381e+02
112             	3.35386340e+02
113             	3.35405307e+02
114             	3.35419464e+02
115             	3.35426165e+02
116             	3.35453423e+02
117             	3.35466146e+02
118             	3.35469639e+02
119             	3.35467583e+02
120             	3.35491410e+02
121             	3.35539621e+02
122             	3.35577786e+02
123             	3.35606781e+02
124             	3.35629521e+02
125             	3.35647036e+02
126             	3.35655307e+02
127             	3.35654898e+02
128             	3.35628214e+02
129             	3.35621087e+02
130             	3.35609969e+02
131             	3.35626583e+02
132             	3.35650174e+02
133             	3.35678867e+02
134             	3.35711202e+02
135             	3.35742523e+02
136             	3.35770721e+02
137             	3.35800719e+02
138             	3.35832426e+02
139             	3.35824801e+02
140             	3.35825819e+02
141             	3.35833293e+02
142             	3.35838784e+02
143             	3.35840835e+02
144             	3.35840952e+02
145             	3.35812854e+02
146             	3.35820386e+02
147             	3.35837245e+02
148             	3.35850573e+02
149             	3.35874891e+02
150             	3.35908816e+02
151             	3.35943286e+02
152             	3.35967871e+02
153             	3.35983130e+02
154             	3.35988461e+02
155             	3.35994211e+02
156             	3.35963931e+02
157             	3.35949734e+02
158             	3.35949363e+02
159             	3.35940182e+02
160             	3.35924027e+02
161             	3.35925050e+02
162             	3.35932903e+02
163             	3.35943503e+02
164             	3.35953587e+02
165             	3.35963287e+02
166             	3.35977761e+02
167             	3.35996268e+02
168             	3.36000044e+02
169             	3.36000397e+02
170             	3.35997393e+02
171             	3.35991296e+02
172             	3.35982026e+02
173             	3.35951031e+02
174             	3.35942345e+02
175             	3.35950099e+02
176             	3.35957374e+02
177             	3.35967148e+02
178             	3.35977919e+02
179             	3.35987292e+02
180             	3.35992548e+02
181             	3.35996757e+02
182             	3.35977834e+02
183             	3.35981562e+02
184             	3.35987361e+02
185             	3.35997039e+02
186             	3.36000979e+02
187             	3.36007006e+02
188             	3.36016702e+02
189             	3.36027200e+02
190             	3.36041982e+02
191             	3.36055719e+02
192             	3.36070407e+02
193             	3.36087587e+02
194             	3.36104060e+02
195             	3.36117713e+02
196             	3.36129310e+02
197             	3.36124449e+02
198             	3.36116170e+02
199             	3.36110231e+02
200             	3.36117071e+02
201             	3.36113938e+02
202             	3.36112537e+02
203             	3.36120048e+02
204             	3.36122684e+02
205             	3.36129258e+02
206             	3.36141808e+02
207             	3.36152999e+02
208             	3.36162853e+02
209             	3.36174975e+02
210             	3.36188570e+02
211             	3.36184759e+02
212             	3.36176022e+02
213             	3.36173568e+02
214             	3.36173340e+02
215             	3.36171463e+02
216             	3.36164091e+02
217             	3.36155205e+02
218             	3.36148920e+02
219             	3.36147059e+02
220             	3.36149258e+02
221             	3.36153484e+02
222             	3.36161477e+02
223             	3.36168889e+02
224             	3.36175055e+02
225             	3.36177735e+02
226             	3.36178479e+02
227             	3.36182363e+02
228             	3.36185956e+02
229             	3.36187282e+02
230             	3.36186600e+02
231             	3.36185348e+02
232             	3.36184314e+02
233             	3.36184997e+02
234             	3.36186200e+02
235             	3.36186759e+02
236             	3.36187499e+02
237             	3.36189389e+02
238             	3.36192856e+02
239             	3.36197967e+02
240             	3.36212249e+02
241             	3.36220124e+02
242             	3.36224524e+02
243             	3.36224062e+02
244             	3.36227723e+02
245             	3.36232517e+02
246             	3.36235277e+02
247             	3.36235949e+02
248             	3.36234991e+02
249             	3.36233698e+02
250             	3.36230669e+02
251             	3.36228829e+02
252             	3.36226086e+02
253             	3.36226912e+02
254             	3.36227170e+02
255             	3.36226813e+02
256             	3.36227105e+02
257             	3.36227653e+02
258             	3.36229572e+02
259             	3.36233668e+02
260             	3.36237701e+02
261             	3.36241003e+02
262             	3.36243435e+02
263             	3.36244643e+02
264             	3.36246100e+02
265             	3.36244832e+02
266             	3.36242736e+02
267             	3.36242446e+02
268             	3.36243018e+02
269             	3.36241356e+02
270             	3.36239198e+02
271             	3.36240815e+02
272             	3.36240895e+02
273             	3.36248667e+02
274             	3.36252568e+02
275             	3.36253131e+02
276             	3.36253548e+02
277             	3.36252816e+02
278             	3.36256996e+02
279             	3.36262284e+02
280             	3.36266601e+02
281             	3.36266662e+02
282             	3.36264688e+02
283             	3.36265800e+02
284             	3.36263291e+02
285             	3.36259548e+02
286             	3.36257241e+02
287             	3.36256982e+02
288             	3.36258087e+02
289             	3.36259920e+02
290             	3.36262240e+02
291             	3.36264518e+02
292             	3.36265615e+02
293             	3.36265249e+02
294             	3.36264717e+02
295             	3.36266044e+02
296             	3.36265371e+02
297             	3.36263645e+02
298             	3.36261634e+02
299             	3.36258697e+02
300             	3.36255690e+02
301             	3.36254645e+02
302             	3.36256112e+02
303             	3.36258562e+02
304             	3.36261508e+02
305             	3.36264573e+02
306             	3.36267241e+02
307             	3.36269081e+02
308             	3.36269395e+02
309             	3.36268872e+02
310             	3.36267459e+02
311             	3.36267008e+02
312             	3.36267914e+02
313             	3.36266106e+02
314             	3.36261166e+02
315             	3.36256208e+02
316             	3.36251103e+02
317             	3.36248724e+02
318             	3.36247302e+02
319             	3.36250217e+02
320             	3.36252919e+02
321             	3.36254233e+02
322             	3.36256358e+02
323             	3.36259477e+02
324             	3.36259010e+02
325             	3.36260624e+02
326             	3.36262424e+02
327             	3.36265582e+02
328             	3.36264490e+02
329             	3.36263186e+02
330             	3.36265749e+02
331             	3.36265792e+02
332             	3.36265326e+02
333             	3.36265598e+02
334             	3.36265788e+02
335             	3.36264897e+02
336             	3.36267586e+02
337             	3.36271187e+02
338             	3.36273953e+02
339             	3.36275549e+02
340             	3.36274963e+02
341             	3.36273519e+02
342             	3.36271846e+02
343             	3.36270237e+02
344             	3.36270078e+02
345             	3.36269915e+02
346             	3.36270539e+02
347             	3.36270971e+02
348             	3.36269938e+02
349             	3.36270441e+02
350             	3.36272907e+02
351             	3.36275540e+02
352             	3.36278350e+02
353             	3.36281339e+02
354             	3.36284183e+02
355             	3.36285339e+02
356             	3.36285273e+02
357             	3.36284172e+02
358             	3.36283922e+02
359             	3.36285025e+02
360             	3.36285057e+02
361             	3.36285198e+02
362             	3.36285536e+02
363             	3.36284832e+02
364             	3.36286390e+02
365             	3.36287792e+02
366             	3.36289854e+02
367             	3.36291553e+02
368             	3.36292601e+02
369             	3.36293400e+02
370             	3.36295363e+02
371             	3.36295790e+02
372             	3.36295738e+02
373             	3.36296064e+02
374             	3.36295895e+02
375             	3.36295826e+02
376             	3.36296479e+02
377             	3.36296590e+02
378             	3.36296573e+02
379             	3.36296760e+02
380             	3.36296582e+02
381             	3.36296087e+02
382             	3.36295443e+02
383             	3.36294047e+02
384             	3.36292195e+02
385             	3.36290292e+02
386             	3.36288693e+02
387             	3.36287703e+02
388             	3.36288053e+02
389             	3.36287762e+02
390             	3.36287395e+02
391             	3.36287252e+02
392             	3.36286779e+02
393             	3.36286024e+02
394             	3.36285953e+02
395             	3.36284476e+02
396             	3.36283324e+02
397             	3.36283961e+02
398             	3.36282970e+02
399             	3.36282312e+02
400             	3.36281975e+02
401             	3.36281063e+02
402             	3.36280339e+02
403             	3.36279930e+02
404             	3.36280152e+02
405             	3.36280680e+02
406             	3.36281833e+02
407             	3.36283083e+02
408             	3.36284083e+02
409             	3.36284784e+02
410             	3.36285050e+02
411             	3.36285631e+02
412             	3.36286360e+02
413             	3.36286218e+02
414             	3.36285839e+02
415             	3.36285594e+02
416             	3.36285384e+02
417             	3.36285349e+02
418             	3.36285263e+02
419             	3.36285623e+02
420             	3.36285702e+02
421             	3.36285526e+02
422             	3.36285535e+02
423             	3.36285358e+02
424             	3.36285653e+02
425             	3.36285618e+02
426             	3.36285487e+02
427             	3.36285500e+02
428             	3.36285350e+02
429             	3.36285265e+02
430             	3.36285132e+02
431             	3.36285391e+02
432             	3.36286189e+02
433             	3.36286655e+02
434             	3.36286866e+02
435             	3.36286975e+02
436             	3.36286788e+02
437             	3.36286432e+02
438             	3.36285981e+02
439             	3.36285454e+02
440             	3.36284932e+02
441             	3.36284421e+02
442             	3.36283598e+02
443             	3.36282894e+02
444             	3.36282490e+02
445             	3.36282583e+02
446             	3.36282899e+02
447             	3.36283338e+02
448             	3.36283606e+02
449             	3.36283501e+02
450             	3.36283493e+02
451             	3.36283596e+02
452             	3.36283469e+02
453             	3.36283260e+02
454             	3.36282906e+02
455             	3.36282661e+02
456             	3.36282378e+02
457             	3.36282030e+02
458             	3.36281759e+02
459             	3.36281691e+02
460             	3.36281833e+02
461             	3.36282022e+02
462             	3.36282357e+02
463             	3.36282658e+02
464             	3.36282843e+02
465             	3.36282991e+02
466             	3.36283150e+02
467             	3.36283211e+02
468             	3.36283189e+02
469             	3.36283267e+02
470             	3.36283293e+02
471             	3.36283468e+02
472             	3.36283620e+02
473             	3.36283854e+02
474             	3.36284070e+02
475             	3.36284238e+02
476             	3.36284377e+02
477             	3.36284529e+02
478             	3.36284702e+02
479             	3.36285131e+02
480             	3.36285430e+02
481             	3.36285660e+02
482             	3.36285745e+02
483             	3.36285878e+02
484             	3.36286045e+02
485             	3.36286192e+02
486             	3.36286164e+02
487             	3.36286165e+02
488             	3.36286099e+02
489             	3.36285970e+02
490             	3.36285822e+02
491             	3.36285754e+02
492             	3.36285649e+02
493             	3.36285536e+02
494             	3.36285460e+02
495             	3.36285467e+02
496             	3.36285541e+02
497             	3.36285672e+02
498             	3.36285839e+02
499             	3.36286086e+02
500             	3.36286296e+02
501             	3.36286383e+02
502             	3.36286463e+02
503             	3.36286477e+02
504             	3.36286412e+02
505             	3.36286376e+02
506             	3.36286391e+02
507             	3.36286599e+02
508             	3.36286817e+02
509             	3.36286710e+02
510             	3.36286585e+02
511             	3.36286621e+02
512             	3.36286748e+02
513             	3.36286712e+02
514             	3.36286827e+02
515             	3.36287092e+02
516             	3.36287251e+02
517             	3.36287354e+02
518             	3.36287466e+02
519             	3.36287509e+02
520             	3.36287511e+02
521             	3.36287516e+02
522             	3.36287443e+02
523             	3.36287395e+02
524             	3.36287296e+02
525             	3.36287184e+02
526             	3.36287143e+02
527             	3.36287210e+02
528             	3.36287312e+02
529             	3.36287357e+02
530             	3.36287430e+02
531             	3.36287522e+02
532             	3.36287580e+02
533             	3.36287720e+02
534             	3.36287806e+02
535             	3.36287833e+02
536             	3.36287656e+02
537             	3.36287643e+02
538             	3.36287680e+02
539             	3.36287741e+02
540             	3.36287702e+02
541             	3.36287879e+02
542             	3.36287872e+02
543             	3.36287858e+02
544             	3.36287778e+02
545             	3.36287750e+02
546             	3.36287839e+02
547             	3.36287947e+02
548             	3.36287947e+02
549             	3.36287951e+02
550             	3.36287973e+02
551             	3.36287874e+02
552             	3.36287869e+02
553             	3.36287798e+02
554             	3.36287734e+02
555             	3.36287663e+02
556             	3.36287605e+02
557             	3.36287613e+02
558             	3.36287556e+02
559             	3.36287552e+02
560             	3.36287516e+02
561             	3.36287455e+02
562             	3.36287382e+02
563             	3.36287497e+02
564             	3.36287587e+02
565             	3.36287505e+02
566             	3.36287429e+02
567             	3.36287401e+02
568             	3.36287510e+02
569             	3.36287388e+02
570             	3.36287204e+02
571             	3.36287296e+02
572             	3.36287241e+02
573             	3.36287208e+02
574             	3.36287286e+02
575             	3.36287469e+02
576             	3.36287572e+02
577             	3.36287587e+02
578             	3.36287561e+02
579             	3.36287485e+02
580             	3.36287444e+02
581             	3.36287379e+02
582             	3.36287448e+02
583             	3.36287424e+02
584             	3.36287339e+02
585             	3.36287233e+02
586             	3.36287105e+02
587             	3.36287089e+02
588             	3.36287040e+02
589             	3.36287159e+02
590             	3.36287315e+02
591             	3.36287462e+02
592             	3.36287532e+02
593             	3.36287539e+02
594             	3.36287571e+02
595             	3.36287550e+02
596             	3.36287522e+02
597             	3.36287570e+02
598             	3.36287497e+02
599             	3.36287436e+02
600             	3.36287406e+02
601             	3.36287401e+02
602             	3.36287453e+02
603             	3.36287446e+02
604             	3.36287456e+02
605             	3.36287423e+02
606             	3.36287352e+02
607             	3.36287328e+02
608             	3.36287235e+02
609             	3.36287117e+02
610             	3.36287085e+02
611             	3.36287095e+02
612             	3.36287056e+02
613             	3.36287011e+02
614             	3.36286965e+02
615             	3.36286994e+02
616             	3.36287075e+02
617             	3.36287110e+02
618             	3.36287159e+02
619             	3.36287278e+02
620             	3.36287333e+02
621             	3.36287308e+02
