# Region        : cellZone component_3
# Cells         : 241
# Volume        : 4.25546169e-01
# Time          	volAverage(T)
1               	3.00098203e+02
2               	3.00195610e+02
3               	3.00289121e+02
4               	3.00380065e+02
5               	3.00469489e+02
6               	3.00557759e+02
7               	3.00645021e+02
8               	3.00731478e+02
9               	3.00817051e+02
10              	3.00901494e+02
11              	3.00984753e+02
12              	3.01066889e+02
13              	3.01147775e+02
14              	3.01227333e+02
15              	3.01305871e+02
16              	3.01383429e+02
17              	3.01461222e+02
18              	3.01540827e+02
19              	3.01618290e+02
20              	3.01692649e+02
21              	3.01764116e+02
22              	3.01837536e+02
23              	3.01909907e+02
24              	3.01980664e+02
25              	3.02049560e+02
26              	3.02115217e+02
27              	3.02178358e+02
28              	3.02241727e+02
29              	3.02304932e+02
30              	3.02367660e+02
31              	3.02430415e+02
32              	3.02493324e+02
33              	3.02553272e+02
34              	3.02610301e+02
35              	3.02665009e+02
36              	3.02721453e+02
37              	3.02779515e+02
38              	3.02838916e+02
39              	3.02897582e+02
40              	3.02955141e+02
41              	3.03011951e+02
42              	3.03068512e+02
43              	3.03125832e+02
44              	3.03183566e+02
45              	3.03241172e+02
46              	3.03300487e+02
47              	3.03360532e+02
48              	3.03420452e+02
49              	3.03481239e+02
50              	3.03542952e+02
51              	3.03606162e+02
52              	3.03670012e+02
53              	3.03734431e+02
54              	3.03797360e+02
55              	3.03861921e+02
56              	3.03926223e+02
57              	3.03989198e+02
58              	3.04050807e+02
59              	3.04110670e+02
60              	3.04168949e+02
61              	3.04226938e+02
62              	3.04283386e+02
63              	3.04340233e+02
64              	3.04397544e+02
65              	3.04455334e+02
66              	3.04512657e+02
67              	3.04570607e+02
68              	3.04628741e+02
69              	3.04687019e+02
70              	3.04745435e+02
71              	3.04803460e+02
72              	3.04861296e+02
73              	3.04919615e+02
74              	3.04977780e+02
75              	3.05035274e+02
76              	3.05092739e+02
77              	3.05149718e+02
78              	3.05206329e+02
79              	3.05262043e+02
80              	3.05315810e+02
81              	3.05368829e+02
82              	3.05420706e+02
83              	3.05473261e+02
84              	3.05525115e+02
85              	3.05576589e+02
86              	3.05628859e+02
87              	3.05680849e+02
88              	3.05733552e+02
89              	3.05786008e+02
90              	3.05837845e+02
91              	3.05889958e+02
92              	3.05941925e+02
93              	3.05993917e+02
94              	3.06045471e+02
95              	3.06097275e+02
96              	3.06148566e+02
97              	3.06199804e+02
98              	3.06250126e+02
99              	3.06299063e+02
100             	3.06347468e+02
101             	3.06395293e+02
102             	3.06441651e+02
103             	3.06487552e+02
104             	3.06533181e+02
105             	3.06578766e+02
106             	3.06624777e+02
107             	3.06671447e+02
108             	3.06718689e+02
109             	3.06766514e+02
110             	3.06814793e+02
111             	3.06862946e+02
112             	3.06910690e+02
113             	3.06957895e+02
114             	3.07004044e+02
115             	3.07050698e+02
116             	3.07096517e+02
117             	3.07141472e+02
118             	3.07185673e+02
119             	3.07229512e+02
120             	3.07273120e+02
121             	3.07315695e+02
122             	3.07357897e+02
123             	3.07398947e+02
124             	3.07440090e+02
125             	3.07481488e+02
126             	3.07523082e+02
127             	3.07564688e+02
128             	3.07606319e+02
129             	3.07647496e+02
130             	3.07688901e+02
131             	3.07730339e+02
132             	3.07771004e+02
133             	3.07810797e+02
134             	3.07849743e+02
135             	3.07888325e+02
136             	3.07926149e+02
137             	3.07963942e+02
138             	3.08001235e+02
139             	3.08037632e+02
140             	3.08074408e+02
141             	3.08111440e+02
142             	3.08148504e+02
143             	3.08186541e+02
144             	3.08224960e+02
145             	3.08263147e+02
146             	3.08300947e+02
147             	3.08337777e+02
148             	3.08375244e+02
149             	3.08413124e+02
150             	3.08448938e+02
151             	3.08484179e+02
152             	3.08518982e+02
153             	3.08553522e+02
154             	3.08587444e+02
155             	3.08620330e+02
156             	3.08652969e+02
157             	3.08685653e+02
158             	3.08718639e+02
159             	3.08751831e+02
160             	3.08784989e+02
161             	3.08818426e+02
162             	3.08851542e+02
163             	3.08885610e+02
164             	3.08919735e+02
165             	3.08953992e+02
166             	3.08987634e+02
167             	3.09021264e+02
168             	3.09053817e+02
169             	3.09085940e+02
170             	3.09117928e+02
171             	3.09149474e+02
172             	3.09180191e+02
173             	3.09211126e+02
174             	3.09242158e+02
175             	3.09272855e+02
176             	3.09304412e+02
177             	3.09336476e+02
178             	3.09368910e+02
179             	3.09400665e+02
180             	3.09432596e+02
181             	3.09464757e+02
182             	3.09496677e+02
183             	3.09528327e+02
184             	3.09559317e+02
185             	3.09589678e+02
186             	3.09619294e+02
187             	3.09648477e+02
188             	3.09677199e+02
189             	3.09705571e+02
190             	3.09733830e+02
191             	3.09761767e+02
192             	3.09789494e+02
193             	3.09816399e+02
194             	3.09843574e+02
195             	3.09870873e+02
196             	3.09898048e+02
197             	3.09925456e+02
198             	3.09953038e+02
199             	3.09980646e+02
200             	3.10008291e+02
201             	3.10035678e+02
202             	3.10063116e+02
203             	3.10090472e+02
204             	3.10116878e+02
205             	3.10143402e+02
206             	3.10170196e+02
207             	3.10196874e+02
208             	3.10223390e+02
209             	3.10249674e+02
210             	3.10275863e+02
211             	3.10301978e+02
212             	3.10327785e+02
213             	3.10353439e+02
214             	3.10378685e+02
215             	3.10403902e+02
216             	3.10428694e+02
217             	3.10453093e+02
218             	3.10477389e+02
219             	3.10501354e+02
220             	3.10525121e+02
221             	3.10548745e+02
222             	3.10572419e+02
223             	3.10596019e+02
224             	3.10618819e+02
225             	3.10642425e+02
226             	3.10666224e+02
227             	3.10689806e+02
228             	3.10713268e+02
229             	3.10736985e+02
230             	3.10760032e+02
231             	3.10781915e+02
232             	3.10803359e+02
233             	3.10823934e+02
234             	3.10844325e+02
235             	3.10864523e+02
236             	3.10885112e+02
237             	3.10905598e+02
238             	3.10925845e+02
239             	3.10946270e+02
240             	3.10967579e+02
241             	3.10988065e+02
242             	3.11008529e+02
243             	3.11028970e+02
244             	3.11048949e+02
245             	3.11068956e+02
246             	3.11088339e+02
247             	3.11108357e+02
248             	3.11128905e+02
249             	3.11149744e+02
250             	3.11169788e+02
251             	3.11190081e+02
252             	3.11210670e+02
253             	3.11231132e+02
254             	3.11251590e+02
255             	3.11271546e+02
256             	3.11291704e+02
257             	3.11312029e+02
258             	3.11331478e+02
259             	3.11350813e+02
260             	3.11370009e+02
261             	3.11389331e+02
262             	3.11408269e+02
263             	3.11427320e+02
264             	3.11446468e+02
265             	3.11465544e+02
266             	3.11483522e+02
267             	3.11501576e+02
268             	3.11519975e+02
269             	3.11538720e+02
270             	3.11557542e+02
271             	3.11576566e+02
272             	3.11595376e+02
273             	3.11614098e+02
274             	3.11632615e+02
275             	3.11651162e+02
276             	3.11669582e+02
277             	3.11687359e+02
278             	3.11704887e+02
279             	3.11722341e+02
280             	3.11739303e+02
281             	3.11755717e+02
282             	3.11771804e+02
283             	3.11787838e+02
284             	3.11803311e+02
285             	3.11818501e+02
286             	3.11833694e+02
287             	3.11848876e+02
288             	3.11864141e+02
289             	3.11879799e+02
290             	3.11895603e+02
291             	3.11911176e+02
292             	3.11927462e+02
293             	3.11943288e+02
294             	3.11959488e+02
295             	3.11975846e+02
296             	3.11992374e+02
297             	3.12008942e+02
298             	3.12025599e+02
299             	3.12042251e+02
300             	3.12058331e+02
301             	3.12074226e+02
302             	3.12089795e+02
303             	3.12104811e+02
304             	3.12119157e+02
305             	3.12133669e+02
306             	3.12147214e+02
307             	3.12160350e+02
308             	3.12172914e+02
309             	3.12185368e+02
310             	3.12197782e+02
311             	3.12210206e+02
312             	3.12222763e+02
313             	3.12235347e+02
314             	3.12248058e+02
315             	3.12260895e+02
316             	3.12273974e+02
317             	3.12287131e+02
318             	3.12300449e+02
319             	3.12313965e+02
320             	3.12327749e+02
321             	3.12341424e+02
322             	3.12355188e+02
323             	3.12369056e+02
324             	3.12382877e+02
325             	3.12396729e+02
326             	3.12410327e+02
327             	3.12423836e+02
328             	3.12437148e+02
329             	3.12450020e+02
330             	3.12462508e+02
331             	3.12474726e+02
332             	3.12487106e+02
333             	3.12499261e+02
334             	3.12510835e+02
335             	3.12522273e+02
336             	3.12533688e+02
337             	3.12545197e+02
338             	3.12556839e+02
339             	3.12568531e+02
340             	3.12580402e+02
341             	3.12592285e+02
342             	3.12604313e+02
343             	3.12616489e+02
344             	3.12628551e+02
345             	3.12640762e+02
346             	3.12652515e+02
347             	3.12664176e+02
348             	3.12675655e+02
349             	3.12686938e+02
350             	3.12698002e+02
351             	3.12708803e+02
352             	3.12719305e+02
353             	3.12729511e+02
354             	3.12739718e+02
355             	3.12750009e+02
356             	3.12760453e+02
357             	3.12771023e+02
358             	3.12781593e+02
359             	3.12792528e+02
360             	3.12803401e+02
361             	3.12813940e+02
362             	3.12824687e+02
363             	3.12835412e+02
364             	3.12845888e+02
365             	3.12856794e+02
366             	3.12867874e+02
367             	3.12879440e+02
368             	3.12891089e+02
369             	3.12902875e+02
370             	3.12914696e+02
371             	3.12926121e+02
372             	3.12937514e+02
373             	3.12948724e+02
374             	3.12959439e+02
375             	3.12970239e+02
376             	3.12980652e+02
377             	3.12990528e+02
378             	3.12999689e+02
379             	3.13008878e+02
380             	3.13017948e+02
381             	3.13027044e+02
382             	3.13035939e+02
383             	3.13045239e+02
384             	3.13054941e+02
385             	3.13064585e+02
386             	3.13073980e+02
387             	3.13083839e+02
388             	3.13093985e+02
389             	3.13104033e+02
390             	3.13113854e+02
391             	3.13123449e+02
392             	3.13133197e+02
393             	3.13142398e+02
394             	3.13151782e+02
395             	3.13160966e+02
396             	3.13169619e+02
397             	3.13177575e+02
398             	3.13185572e+02
399             	3.13193595e+02
400             	3.13201218e+02
401             	3.13208889e+02
402             	3.13216574e+02
403             	3.13224181e+02
404             	3.13231801e+02
405             	3.13239530e+02
406             	3.13247510e+02
407             	3.13255216e+02
408             	3.13262755e+02
409             	3.13269998e+02
410             	3.13277113e+02
411             	3.13284143e+02
412             	3.13291292e+02
413             	3.13298471e+02
414             	3.13305896e+02
415             	3.13313549e+02
416             	3.13321552e+02
417             	3.13329264e+02
418             	3.13337300e+02
419             	3.13345374e+02
420             	3.13353439e+02
421             	3.13361256e+02
422             	3.13369151e+02
423             	3.13376802e+02
424             	3.13384513e+02
425             	3.13392307e+02
426             	3.13400080e+02
427             	3.13407607e+02
428             	3.13414902e+02
429             	3.13422019e+02
430             	3.13429084e+02
431             	3.13436162e+02
432             	3.13442883e+02
433             	3.13449746e+02
434             	3.13456336e+02
435             	3.13462718e+02
436             	3.13468971e+02
437             	3.13475232e+02
438             	3.13481113e+02
439             	3.13486989e+02
440             	3.13492494e+02
441             	3.13497603e+02
442             	3.13502291e+02
443             	3.13506865e+02
444             	3.13511330e+02
445             	3.13516425e+02
446             	3.13521815e+02
447             	3.13527857e+02
448             	3.13534643e+02
449             	3.13541597e+02
450             	3.13548643e+02
451             	3.13555466e+02
452             	3.13561985e+02
453             	3.13568329e+02
454             	3.13574422e+02
455             	3.13580241e+02
456             	3.13585827e+02
457             	3.13591327e+02
458             	3.13596925e+02
459             	3.13602623e+02
460             	3.13608404e+02
461             	3.13613794e+02
462             	3.13619073e+02
463             	3.13624465e+02
464             	3.13629556e+02
465             	3.13634096e+02
466             	3.13638021e+02
467             	3.13641420e+02
468             	3.13644469e+02
469             	3.13647420e+02
470             	3.13650276e+02
471             	3.13653097e+02
472             	3.13656055e+02
473             	3.13658107e+02
474             	3.13660811e+02
475             	3.13664135e+02
476             	3.13667762e+02
477             	3.13671258e+02
478             	3.13675031e+02
479             	3.13678979e+02
480             	3.13683331e+02
481             	3.13687680e+02
482             	3.13691822e+02
483             	3.13695985e+02
484             	3.13699962e+02
485             	3.13703797e+02
486             	3.13706999e+02
487             	3.13709351e+02
488             	3.13711012e+02
489             	3.13711856e+02
490             	3.13712942e+02
491             	3.13714272e+02
492             	3.13715982e+02
493             	3.13718252e+02
494             	3.13720902e+02
495             	3.13724499e+02
496             	3.13729412e+02
497             	3.13734786e+02
498             	3.13740373e+02
499             	3.13745940e+02
500             	3.13750955e+02
501             	3.13755304e+02
502             	3.13759305e+02
503             	3.13762886e+02
504             	3.13766585e+02
505             	3.13770469e+02
506             	3.13774616e+02
507             	3.13779167e+02
508             	3.13784246e+02
509             	3.13790003e+02
510             	3.13796547e+02
511             	3.13803751e+02
512             	3.13811267e+02
513             	3.13818902e+02
514             	3.13826387e+02
515             	3.13833479e+02
516             	3.13840185e+02
517             	3.13846582e+02
518             	3.13852508e+02
519             	3.13857855e+02
520             	3.13862646e+02
521             	3.13866949e+02
522             	3.13870709e+02
523             	3.13874033e+02
524             	3.13877041e+02
525             	3.13879918e+02
526             	3.13882806e+02
527             	3.13885803e+02
528             	3.13888999e+02
529             	3.13892375e+02
530             	3.13895940e+02
531             	3.13899611e+02
532             	3.13903367e+02
533             	3.13907112e+02
534             	3.13910891e+02
535             	3.13914523e+02
536             	3.13917876e+02
537             	3.13921267e+02
538             	3.13924717e+02
539             	3.13928125e+02
540             	3.13931498e+02
541             	3.13934997e+02
542             	3.13938516e+02
543             	3.13941995e+02
544             	3.13945466e+02
545             	3.13948852e+02
546             	3.13952093e+02
547             	3.13955109e+02
548             	3.13958157e+02
549             	3.13961107e+02
550             	3.13963841e+02
551             	3.13966516e+02
552             	3.13969177e+02
553             	3.13971866e+02
554             	3.13974624e+02
555             	3.13977543e+02
556             	3.13980711e+02
557             	3.13984202e+02
558             	3.13988008e+02
559             	3.13992178e+02
560             	3.13996760e+02
561             	3.14001306e+02
562             	3.14005826e+02
563             	3.14010046e+02
564             	3.14014123e+02
565             	3.14017772e+02
566             	3.14021075e+02
567             	3.14024021e+02
568             	3.14026662e+02
569             	3.14029171e+02
570             	3.14031351e+02
571             	3.14033456e+02
572             	3.14035482e+02
573             	3.14037479e+02
574             	3.14039607e+02
575             	3.14041957e+02
576             	3.14044560e+02
577             	3.14047238e+02
578             	3.14050002e+02
579             	3.14052897e+02
580             	3.14055802e+02
581             	3.14058569e+02
582             	3.14061424e+02
583             	3.14064110e+02
584             	3.14066567e+02
585             	3.14068842e+02
586             	3.14070809e+02
587             	3.14072587e+02
588             	3.14074074e+02
589             	3.14075298e+02
590             	3.14076521e+02
591             	3.14077703e+02
592             	3.14078863e+02
593             	3.14080251e+02
594             	3.14081691e+02
595             	3.14083095e+02
596             	3.14084559e+02
597             	3.14086193e+02
598             	3.14087896e+02
599             	3.14089568e+02
600             	3.14091291e+02
601             	3.14093113e+02
602             	3.14095001e+02
603             	3.14096902e+02
604             	3.14099263e+02
605             	3.14101819e+02
606             	3.14104542e+02
607             	3.14107460e+02
608             	3.14110371e+02
609             	3.14113111e+02
610             	3.14115819e+02
611             	3.14118147e+02
612             	3.14120029e+02
613             	3.14121556e+02
614             	3.14122884e+02
615             	3.14124138e+02
616             	3.14125389e+02
617             	3.14126336e+02
618             	3.14127247e+02
619             	3.14128208e+02
620             	3.14129223e+02
621             	3.14130432e+02
