# Region        : cellZone component_4
# Cells         : 18
# Volume        : 2.61682455e-02
# Time          	volAverage(T)
1               	3.06484196e+02
2               	3.12630561e+02
3               	3.17383747e+02
4               	3.21463832e+02
5               	3.25268793e+02
6               	3.28786712e+02
7               	3.32088924e+02
8               	3.35296373e+02
9               	3.38570083e+02
10              	3.41665252e+02
11              	3.44525486e+02
12              	3.47207571e+02
13              	3.49663677e+02
14              	3.52060534e+02
15              	3.54389630e+02
16              	3.56204086e+02
17              	3.57786056e+02
18              	3.59118281e+02
19              	3.60155640e+02
20              	3.60867726e+02
21              	3.61516520e+02
22              	3.62197140e+02
23              	3.62840973e+02
24              	3.63346484e+02
25              	3.63631617e+02
26              	3.63421475e+02
27              	3.63176554e+02
28              	3.63458025e+02
29              	3.64097167e+02
30              	3.64786103e+02
31              	3.65388612e+02
32              	3.65858573e+02
33              	3.66076324e+02
34              	3.66308163e+02
35              	3.66555342e+02
36              	3.66947384e+02
37              	3.67413987e+02
38              	3.67593845e+02
39              	3.67824576e+02
40              	3.67983982e+02
41              	3.68198680e+02
42              	3.67889572e+02
43              	3.67366612e+02
44              	3.66828320e+02
45              	3.66440419e+02
46              	3.66548191e+02
47              	3.67047080e+02
48              	3.67466112e+02
49              	3.68105363e+02
50              	3.68706553e+02
51              	3.69105655e+02
52              	3.69432513e+02
53              	3.69957128e+02
54              	3.70442698e+02
55              	3.71008015e+02
56              	3.71619719e+02
57              	3.71766289e+02
58              	3.71598548e+02
59              	3.70977212e+02
60              	3.70304291e+02
61              	3.70020576e+02
62              	3.69967407e+02
63              	3.70122538e+02
64              	3.70050236e+02
65              	3.69953502e+02
66              	3.70003731e+02
67              	3.70066651e+02
68              	3.70317701e+02
69              	3.70846325e+02
70              	3.71623147e+02
71              	3.72569862e+02
72              	3.73610897e+02
73              	3.74605208e+02
74              	3.75555933e+02
75              	3.76503706e+02
76              	3.77372477e+02
77              	3.78066253e+02
78              	3.78711474e+02
79              	3.79279026e+02
80              	3.79976120e+02
81              	3.80780052e+02
82              	3.81471560e+02
83              	3.82183951e+02
84              	3.82889172e+02
85              	3.83478662e+02
86              	3.84027341e+02
87              	3.84415607e+02
88              	3.84788606e+02
89              	3.85027228e+02
90              	3.85317194e+02
91              	3.85497482e+02
92              	3.85288678e+02
93              	3.84746443e+02
94              	3.84272959e+02
95              	3.84006078e+02
96              	3.84061013e+02
97              	3.84236057e+02
98              	3.84219046e+02
99              	3.83945256e+02
100             	3.83888242e+02
101             	3.83942969e+02
102             	3.84006484e+02
103             	3.84088066e+02
104             	3.84071896e+02
105             	3.83910721e+02
106             	3.83699814e+02
107             	3.83500456e+02
108             	3.83346901e+02
109             	3.83241267e+02
110             	3.83186586e+02
111             	3.83058269e+02
112             	3.83001402e+02
113             	3.82854334e+02
114             	3.82817295e+02
115             	3.82857368e+02
116             	3.82906936e+02
117             	3.82921383e+02
118             	3.82999788e+02
119             	3.83095365e+02
120             	3.83247837e+02
121             	3.83424119e+02
122             	3.83697177e+02
123             	3.84028503e+02
124             	3.84415068e+02
125             	3.84830945e+02
126             	3.85308380e+02
127             	3.85595378e+02
128             	3.85907771e+02
129             	3.86181619e+02
130             	3.86423845e+02
131             	3.86644209e+02
132             	3.86813451e+02
133             	3.86954993e+02
134             	3.87091367e+02
135             	3.87252244e+02
136             	3.87446800e+02
137             	3.87681357e+02
138             	3.87962510e+02
139             	3.88263760e+02
140             	3.88582451e+02
141             	3.88712759e+02
142             	3.88908971e+02
143             	3.89101488e+02
144             	3.89283341e+02
145             	3.89289917e+02
146             	3.89314313e+02
147             	3.89318494e+02
148             	3.89231113e+02
149             	3.89111546e+02
150             	3.88998615e+02
151             	3.88882016e+02
152             	3.88769615e+02
153             	3.88688048e+02
154             	3.88646781e+02
155             	3.88712844e+02
156             	3.88860641e+02
157             	3.89031286e+02
158             	3.89056905e+02
159             	3.89194454e+02
160             	3.89344426e+02
161             	3.89464166e+02
162             	3.89370475e+02
163             	3.89310391e+02
164             	3.89256301e+02
165             	3.89172431e+02
166             	3.89057449e+02
167             	3.88941226e+02
168             	3.88820522e+02
169             	3.88713709e+02
170             	3.88619507e+02
171             	3.88534512e+02
172             	3.88471121e+02
173             	3.88444324e+02
174             	3.88438112e+02
175             	3.88433472e+02
176             	3.88413397e+02
177             	3.88372319e+02
178             	3.88324804e+02
179             	3.88300800e+02
180             	3.88293431e+02
181             	3.88298735e+02
182             	3.88343044e+02
183             	3.88424487e+02
184             	3.88550117e+02
185             	3.88525816e+02
186             	3.88595998e+02
187             	3.88701443e+02
188             	3.88830218e+02
189             	3.88897624e+02
190             	3.88957537e+02
191             	3.88992747e+02
192             	3.89021528e+02
193             	3.89033565e+02
194             	3.89023581e+02
195             	3.89001463e+02
196             	3.88980882e+02
197             	3.88961473e+02
198             	3.88954552e+02
199             	3.88970886e+02
200             	3.89010089e+02
201             	3.89066282e+02
202             	3.89146790e+02
203             	3.89097810e+02
204             	3.89126985e+02
205             	3.89175006e+02
206             	3.89205277e+02
207             	3.89212862e+02
208             	3.89190890e+02
209             	3.89144759e+02
210             	3.89086656e+02
211             	3.89049940e+02
212             	3.89029268e+02
213             	3.89011392e+02
214             	3.89003854e+02
215             	3.89008143e+02
216             	3.89033310e+02
217             	3.89067405e+02
218             	3.89108770e+02
219             	3.89156972e+02
220             	3.89210185e+02
221             	3.89278417e+02
222             	3.89335888e+02
223             	3.89379850e+02
224             	3.89430249e+02
225             	3.89456543e+02
226             	3.89468332e+02
227             	3.89473471e+02
228             	3.89475648e+02
229             	3.89476476e+02
230             	3.89475930e+02
231             	3.89472439e+02
232             	3.89462867e+02
233             	3.89441834e+02
234             	3.89415306e+02
235             	3.89367900e+02
236             	3.89331660e+02
237             	3.89301398e+02
238             	3.89274387e+02
239             	3.89249777e+02
240             	3.89228775e+02
241             	3.89211330e+02
242             	3.89203566e+02
243             	3.89221526e+02
244             	3.89222432e+02
245             	3.89217017e+02
246             	3.89215750e+02
247             	3.89222705e+02
248             	3.89235632e+02
249             	3.89246521e+02
250             	3.89246372e+02
251             	3.89213276e+02
252             	3.89195613e+02
253             	3.89185549e+02
254             	3.89166363e+02
255             	3.89159834e+02
256             	3.89171468e+02
257             	3.89194547e+02
258             	3.89226527e+02
259             	3.89275822e+02
260             	3.89345316e+02
261             	3.89447464e+02
262             	3.89500467e+02
263             	3.89533302e+02
264             	3.89554666e+02
265             	3.89554482e+02
266             	3.89537385e+02
267             	3.89504798e+02
268             	3.89460123e+02
269             	3.89421395e+02
270             	3.89385701e+02
271             	3.89352708e+02
272             	3.89327809e+02
273             	3.89311260e+02
274             	3.89302055e+02
275             	3.89300203e+02
276             	3.89306950e+02
277             	3.89312758e+02
278             	3.89316519e+02
279             	3.89318987e+02
280             	3.89320729e+02
281             	3.89322488e+02
282             	3.89325116e+02
283             	3.89323233e+02
284             	3.89327314e+02
285             	3.89338840e+02
286             	3.89355433e+02
287             	3.89383595e+02
288             	3.89405905e+02
289             	3.89428293e+02
290             	3.89450611e+02
291             	3.89472865e+02
292             	3.89497140e+02
293             	3.89516478e+02
294             	3.89523711e+02
295             	3.89520106e+02
296             	3.89504883e+02
297             	3.89475777e+02
298             	3.89443771e+02
299             	3.89415940e+02
300             	3.89391727e+02
301             	3.89370266e+02
302             	3.89351665e+02
303             	3.89335208e+02
304             	3.89321499e+02
305             	3.89311711e+02
306             	3.89304822e+02
307             	3.89305909e+02
308             	3.89308470e+02
309             	3.89312245e+02
310             	3.89318960e+02
311             	3.89329039e+02
312             	3.89341760e+02
313             	3.89358558e+02
314             	3.89371994e+02
315             	3.89383081e+02
316             	3.89391639e+02
317             	3.89395749e+02
318             	3.89395814e+02
319             	3.89389019e+02
320             	3.89382617e+02
321             	3.89375387e+02
322             	3.89366502e+02
323             	3.89355137e+02
324             	3.89344629e+02
325             	3.89334742e+02
326             	3.89326870e+02
327             	3.89321399e+02
328             	3.89317994e+02
329             	3.89317847e+02
330             	3.89322423e+02
331             	3.89329244e+02
332             	3.89332938e+02
333             	3.89336319e+02
334             	3.89339120e+02
335             	3.89340327e+02
336             	3.89339798e+02
337             	3.89339944e+02
338             	3.89343778e+02
339             	3.89350230e+02
340             	3.89357807e+02
341             	3.89365562e+02
342             	3.89372375e+02
343             	3.89377722e+02
344             	3.89381323e+02
345             	3.89382953e+02
346             	3.89384158e+02
347             	3.89383289e+02
348             	3.89378874e+02
349             	3.89371521e+02
350             	3.89362120e+02
351             	3.89351345e+02
352             	3.89339360e+02
353             	3.89327051e+02
354             	3.89314461e+02
355             	3.89302041e+02
356             	3.89290894e+02
357             	3.89280741e+02
358             	3.89271217e+02
359             	3.89262572e+02
360             	3.89254735e+02
361             	3.89247258e+02
362             	3.89241307e+02
363             	3.89237860e+02
364             	3.89237042e+02
365             	3.89238020e+02
366             	3.89240330e+02
367             	3.89244357e+02
368             	3.89250092e+02
369             	3.89256747e+02
370             	3.89264003e+02
371             	3.89271959e+02
372             	3.89279931e+02
373             	3.89287627e+02
374             	3.89295285e+02
375             	3.89302259e+02
376             	3.89306973e+02
377             	3.89309943e+02
378             	3.89311099e+02
379             	3.89310746e+02
380             	3.89309512e+02
381             	3.89307341e+02
382             	3.89303827e+02
383             	3.89299484e+02
384             	3.89294630e+02
385             	3.89289392e+02
386             	3.89284058e+02
387             	3.89278662e+02
388             	3.89273382e+02
389             	3.89267470e+02
390             	3.89261529e+02
391             	3.89255814e+02
392             	3.89250020e+02
393             	3.89244119e+02
394             	3.89238444e+02
395             	3.89232846e+02
396             	3.89227449e+02
397             	3.89222543e+02
398             	3.89217933e+02
399             	3.89213681e+02
400             	3.89209799e+02
401             	3.89206631e+02
402             	3.89204094e+02
403             	3.89202110e+02
404             	3.89199468e+02
405             	3.89198241e+02
406             	3.89198035e+02
407             	3.89198378e+02
408             	3.89199060e+02
409             	3.89199998e+02
410             	3.89201050e+02
411             	3.89202461e+02
412             	3.89204432e+02
413             	3.89207925e+02
414             	3.89210347e+02
415             	3.89212059e+02
416             	3.89213551e+02
417             	3.89214021e+02
418             	3.89213597e+02
419             	3.89212310e+02
420             	3.89210382e+02
421             	3.89207823e+02
422             	3.89204396e+02
423             	3.89200665e+02
424             	3.89196705e+02
425             	3.89192091e+02
426             	3.89187699e+02
427             	3.89183151e+02
428             	3.89178876e+02
429             	3.89174967e+02
430             	3.89171465e+02
431             	3.89168363e+02
432             	3.89165679e+02
433             	3.89163468e+02
434             	3.89162112e+02
435             	3.89161190e+02
436             	3.89161369e+02
437             	3.89162496e+02
438             	3.89165874e+02
439             	3.89168430e+02
440             	3.89170661e+02
441             	3.89172847e+02
442             	3.89174871e+02
443             	3.89176625e+02
444             	3.89177723e+02
445             	3.89178148e+02
446             	3.89177747e+02
447             	3.89176517e+02
448             	3.89174433e+02
449             	3.89171491e+02
450             	3.89167217e+02
451             	3.89162679e+02
452             	3.89157995e+02
453             	3.89152824e+02
454             	3.89147765e+02
455             	3.89143292e+02
456             	3.89139316e+02
457             	3.89135830e+02
458             	3.89132856e+02
459             	3.89130654e+02
460             	3.89129280e+02
461             	3.89128777e+02
462             	3.89129440e+02
463             	3.89131256e+02
464             	3.89132830e+02
465             	3.89134416e+02
466             	3.89136159e+02
467             	3.89137883e+02
468             	3.89139638e+02
469             	3.89140665e+02
470             	3.89141017e+02
471             	3.89140726e+02
472             	3.89139772e+02
473             	3.89138124e+02
474             	3.89135714e+02
475             	3.89132189e+02
476             	3.89128375e+02
477             	3.89123643e+02
478             	3.89119499e+02
479             	3.89115881e+02
480             	3.89112459e+02
481             	3.89109172e+02
482             	3.89106213e+02
483             	3.89103719e+02
484             	3.89101694e+02
485             	3.89100205e+02
486             	3.89099171e+02
487             	3.89098712e+02
488             	3.89098845e+02
489             	3.89099508e+02
490             	3.89100925e+02
491             	3.89102817e+02
492             	3.89104889e+02
493             	3.89107407e+02
494             	3.89110484e+02
495             	3.89113245e+02
496             	3.89115727e+02
497             	3.89117977e+02
498             	3.89119766e+02
499             	3.89121153e+02
500             	3.89121791e+02
501             	3.89121750e+02
502             	3.89120998e+02
503             	3.89119501e+02
504             	3.89117297e+02
505             	3.89114470e+02
506             	3.89110957e+02
507             	3.89107073e+02
508             	3.89102953e+02
509             	3.89098672e+02
510             	3.89094354e+02
511             	3.89090054e+02
512             	3.89085985e+02
513             	3.89082302e+02
514             	3.89078913e+02
515             	3.89075849e+02
516             	3.89073194e+02
517             	3.89071103e+02
518             	3.89069217e+02
519             	3.89068241e+02
520             	3.89068069e+02
521             	3.89068549e+02
522             	3.89069479e+02
523             	3.89070938e+02
524             	3.89072959e+02
525             	3.89075516e+02
526             	3.89078522e+02
527             	3.89081543e+02
528             	3.89084950e+02
529             	3.89087640e+02
530             	3.89089680e+02
531             	3.89091237e+02
532             	3.89092006e+02
533             	3.89091929e+02
534             	3.89091040e+02
535             	3.89089535e+02
536             	3.89087588e+02
537             	3.89085284e+02
538             	3.89082657e+02
539             	3.89079546e+02
540             	3.89076108e+02
541             	3.89072539e+02
542             	3.89068853e+02
543             	3.89065320e+02
544             	3.89061998e+02
545             	3.89058906e+02
546             	3.89056482e+02
547             	3.89054196e+02
548             	3.89051865e+02
549             	3.89049636e+02
550             	3.89047554e+02
551             	3.89045686e+02
552             	3.89044032e+02
553             	3.89042523e+02
554             	3.89041539e+02
555             	3.89040964e+02
556             	3.89040686e+02
557             	3.89040606e+02
558             	3.89040680e+02
559             	3.89041087e+02
560             	3.89041757e+02
561             	3.89042758e+02
562             	3.89043869e+02
563             	3.89045121e+02
564             	3.89046698e+02
565             	3.89048188e+02
566             	3.89049634e+02
567             	3.89050992e+02
568             	3.89052157e+02
569             	3.89053124e+02
570             	3.89053845e+02
571             	3.89054307e+02
572             	3.89054508e+02
573             	3.89054441e+02
574             	3.89054133e+02
575             	3.89053612e+02
576             	3.89052957e+02
577             	3.89052181e+02
578             	3.89051425e+02
579             	3.89050719e+02
580             	3.89050094e+02
581             	3.89049655e+02
582             	3.89049371e+02
583             	3.89049099e+02
584             	3.89048873e+02
585             	3.89048694e+02
586             	3.89048894e+02
587             	3.89048678e+02
588             	3.89048180e+02
589             	3.89047378e+02
590             	3.89046321e+02
591             	3.89045083e+02
592             	3.89043681e+02
593             	3.89041887e+02
594             	3.89040010e+02
595             	3.89038099e+02
596             	3.89036188e+02
597             	3.89034345e+02
598             	3.89032639e+02
599             	3.89031102e+02
600             	3.89029722e+02
601             	3.89028486e+02
602             	3.89027380e+02
603             	3.89026313e+02
604             	3.89025295e+02
605             	3.89024293e+02
606             	3.89023309e+02
607             	3.89022360e+02
608             	3.89021531e+02
609             	3.89020744e+02
610             	3.89020027e+02
611             	3.89019396e+02
612             	3.89018849e+02
613             	3.89018342e+02
614             	3.89017875e+02
615             	3.89017645e+02
616             	3.89017561e+02
617             	3.89017529e+02
618             	3.89017616e+02
619             	3.89017805e+02
620             	3.89018087e+02
621             	3.89018471e+02
