# Region        : cellZone component_1
# Cells         : 111
# Volume        : 2.19933658e-01
# Time          	volAverage(T)
1               	3.00314836e+02
2               	3.00625888e+02
3               	3.00918521e+02
4               	3.01200550e+02
5               	3.01477154e+02
6               	3.01750282e+02
7               	3.02020647e+02
8               	3.02289486e+02
9               	3.02558985e+02
10              	3.02826547e+02
11              	3.03091271e+02
12              	3.03352614e+02
13              	3.03608190e+02
14              	3.03858024e+02
15              	3.04101858e+02
16              	3.04343479e+02
17              	3.04585066e+02
18              	3.04824389e+02
19              	3.05065314e+02
20              	3.05306286e+02
21              	3.05548293e+02
22              	3.05789568e+02
23              	3.06029652e+02
24              	3.06266611e+02
25              	3.06500552e+02
26              	3.06730697e+02
27              	3.06954907e+02
28              	3.07175196e+02
29              	3.07389437e+02
30              	3.07598925e+02
31              	3.07807416e+02
32              	3.08016262e+02
33              	3.08227767e+02
34              	3.08424909e+02
35              	3.08609764e+02
36              	3.08794162e+02
37              	3.08976035e+02
38              	3.09156408e+02
39              	3.09337660e+02
40              	3.09521354e+02
41              	3.09705049e+02
42              	3.09888288e+02
43              	3.10070579e+02
44              	3.10251561e+02
45              	3.10427517e+02
46              	3.10600295e+02
47              	3.10770122e+02
48              	3.10932825e+02
49              	3.11093735e+02
50              	3.11249560e+02
51              	3.11400719e+02
52              	3.11548701e+02
53              	3.11701107e+02
54              	3.11851005e+02
55              	3.11994317e+02
56              	3.12130384e+02
57              	3.12256950e+02
58              	3.12383799e+02
59              	3.12512288e+02
60              	3.12643073e+02
61              	3.12774339e+02
62              	3.12900082e+02
63              	3.13021288e+02
64              	3.13136004e+02
65              	3.13244632e+02
66              	3.13350652e+02
67              	3.13456009e+02
68              	3.13563249e+02
69              	3.13673197e+02
70              	3.13786770e+02
71              	3.13899089e+02
72              	3.14009548e+02
73              	3.14119356e+02
74              	3.14227973e+02
75              	3.14335396e+02
76              	3.14439953e+02
77              	3.14545368e+02
78              	3.14661550e+02
79              	3.14768993e+02
80              	3.14871446e+02
81              	3.14974921e+02
82              	3.15074096e+02
83              	3.15171218e+02
84              	3.15265125e+02
85              	3.15355724e+02
86              	3.15443256e+02
87              	3.15527137e+02
88              	3.15605804e+02
89              	3.15680289e+02
90              	3.15754184e+02
91              	3.15826911e+02
92              	3.15902241e+02
93              	3.15977791e+02
94              	3.16055020e+02
95              	3.16133715e+02
96              	3.16212568e+02
97              	3.16290106e+02
98              	3.16366670e+02
99              	3.16441243e+02
100             	3.16513747e+02
101             	3.16585503e+02
102             	3.16656934e+02
103             	3.16726977e+02
104             	3.16796388e+02
105             	3.16864442e+02
106             	3.16932052e+02
107             	3.16998820e+02
108             	3.17064692e+02
109             	3.17127767e+02
110             	3.17185777e+02
111             	3.17240695e+02
112             	3.17292190e+02
113             	3.17341570e+02
114             	3.17390394e+02
115             	3.17439830e+02
116             	3.17490430e+02
117             	3.17544104e+02
118             	3.17598766e+02
119             	3.17652925e+02
120             	3.17705510e+02
121             	3.17757427e+02
122             	3.17804904e+02
123             	3.17851910e+02
124             	3.17900375e+02
125             	3.17948397e+02
126             	3.17994323e+02
127             	3.18039077e+02
128             	3.18084348e+02
129             	3.18128046e+02
130             	3.18172535e+02
131             	3.18216107e+02
132             	3.18256708e+02
133             	3.18297588e+02
134             	3.18337760e+02
135             	3.18377193e+02
136             	3.18418074e+02
137             	3.18458036e+02
138             	3.18495425e+02
139             	3.18524185e+02
140             	3.18555030e+02
141             	3.18586250e+02
142             	3.18618042e+02
143             	3.18651848e+02
144             	3.18687789e+02
145             	3.18724740e+02
146             	3.18764602e+02
147             	3.18806920e+02
148             	3.18850021e+02
149             	3.18889699e+02
150             	3.18924377e+02
151             	3.18959461e+02
152             	3.18992180e+02
153             	3.19021074e+02
154             	3.19047115e+02
155             	3.19071156e+02
156             	3.19094014e+02
157             	3.19117098e+02
158             	3.19135384e+02
159             	3.19158470e+02
160             	3.19180277e+02
161             	3.19205697e+02
162             	3.19230788e+02
163             	3.19253809e+02
164             	3.19274658e+02
165             	3.19293361e+02
166             	3.19311379e+02
167             	3.19330364e+02
168             	3.19349652e+02
169             	3.19370111e+02
170             	3.19391882e+02
171             	3.19416167e+02
172             	3.19443871e+02
173             	3.19469285e+02
174             	3.19495342e+02
175             	3.19521477e+02
176             	3.19545730e+02
177             	3.19567958e+02
178             	3.19588099e+02
179             	3.19607126e+02
180             	3.19626014e+02
181             	3.19642206e+02
182             	3.19660891e+02
183             	3.19679047e+02
184             	3.19698381e+02
185             	3.19716499e+02
186             	3.19736761e+02
187             	3.19757641e+02
188             	3.19778552e+02
189             	3.19799404e+02
190             	3.19821183e+02
191             	3.19841431e+02
192             	3.19859936e+02
193             	3.19875522e+02
194             	3.19891819e+02
195             	3.19908841e+02
196             	3.19926982e+02
197             	3.19946229e+02
198             	3.19966497e+02
199             	3.19987412e+02
200             	3.20007840e+02
201             	3.20027632e+02
202             	3.20048722e+02
203             	3.20070642e+02
204             	3.20092976e+02
205             	3.20115563e+02
206             	3.20135922e+02
207             	3.20156868e+02
208             	3.20177655e+02
209             	3.20197828e+02
210             	3.20216896e+02
211             	3.20236429e+02
212             	3.20255992e+02
213             	3.20274292e+02
214             	3.20293335e+02
215             	3.20313022e+02
216             	3.20332361e+02
217             	3.20351575e+02
218             	3.20370585e+02
219             	3.20389278e+02
220             	3.20407426e+02
221             	3.20425380e+02
222             	3.20443087e+02
223             	3.20460086e+02
224             	3.20476644e+02
225             	3.20493350e+02
226             	3.20509031e+02
227             	3.20525775e+02
228             	3.20542324e+02
229             	3.20559110e+02
230             	3.20575994e+02
231             	3.20593009e+02
232             	3.20610038e+02
233             	3.20626763e+02
234             	3.20643383e+02
235             	3.20659751e+02
236             	3.20675106e+02
237             	3.20690486e+02
238             	3.20705602e+02
239             	3.20720323e+02
240             	3.20735133e+02
241             	3.20749374e+02
242             	3.20763455e+02
243             	3.20777524e+02
244             	3.20791864e+02
245             	3.20806538e+02
246             	3.20819924e+02
247             	3.20833666e+02
248             	3.20847213e+02
249             	3.20860545e+02
250             	3.20874044e+02
251             	3.20886837e+02
252             	3.20899231e+02
253             	3.20911955e+02
254             	3.20925281e+02
255             	3.20937994e+02
256             	3.20949741e+02
257             	3.20962275e+02
258             	3.20975184e+02
259             	3.20988180e+02
260             	3.21000937e+02
261             	3.21013262e+02
262             	3.21025399e+02
263             	3.21037213e+02
264             	3.21048647e+02
265             	3.21059576e+02
266             	3.21070465e+02
267             	3.21081395e+02
268             	3.21092351e+02
269             	3.21102793e+02
270             	3.21113439e+02
271             	3.21124270e+02
272             	3.21134783e+02
273             	3.21144536e+02
274             	3.21154659e+02
275             	3.21164694e+02
276             	3.21174567e+02
277             	3.21184827e+02
278             	3.21195203e+02
279             	3.21205116e+02
280             	3.21215040e+02
281             	3.21225116e+02
282             	3.21234710e+02
283             	3.21244576e+02
284             	3.21254445e+02
285             	3.21264163e+02
286             	3.21273617e+02
287             	3.21283040e+02
288             	3.21292615e+02
289             	3.21302106e+02
290             	3.21310923e+02
291             	3.21320048e+02
292             	3.21329214e+02
293             	3.21338117e+02
294             	3.21346537e+02
295             	3.21354760e+02
296             	3.21363300e+02
297             	3.21371578e+02
298             	3.21379883e+02
299             	3.21388230e+02
300             	3.21396573e+02
301             	3.21404663e+02
302             	3.21412860e+02
303             	3.21420966e+02
304             	3.21428882e+02
305             	3.21436727e+02
306             	3.21444582e+02
307             	3.21452258e+02
308             	3.21459847e+02
309             	3.21467479e+02
310             	3.21475321e+02
311             	3.21482724e+02
312             	3.21490209e+02
313             	3.21497711e+02
314             	3.21505146e+02
315             	3.21512406e+02
316             	3.21519457e+02
317             	3.21526363e+02
318             	3.21533118e+02
319             	3.21539785e+02
320             	3.21546456e+02
321             	3.21553185e+02
322             	3.21559705e+02
323             	3.21566153e+02
324             	3.21572582e+02
325             	3.21578989e+02
326             	3.21585381e+02
327             	3.21591639e+02
328             	3.21597761e+02
329             	3.21603879e+02
330             	3.21609929e+02
331             	3.21615890e+02
332             	3.21621801e+02
333             	3.21627852e+02
334             	3.21634059e+02
335             	3.21640060e+02
336             	3.21645710e+02
337             	3.21651519e+02
338             	3.21657378e+02
339             	3.21663103e+02
340             	3.21668631e+02
341             	3.21674113e+02
342             	3.21679496e+02
343             	3.21684670e+02
344             	3.21689794e+02
345             	3.21695201e+02
346             	3.21700580e+02
347             	3.21705746e+02
348             	3.21710889e+02
349             	3.21715969e+02
350             	3.21720754e+02
351             	3.21725431e+02
352             	3.21730097e+02
353             	3.21734747e+02
354             	3.21739253e+02
355             	3.21743878e+02
356             	3.21748329e+02
357             	3.21752937e+02
358             	3.21757433e+02
359             	3.21761967e+02
360             	3.21766496e+02
361             	3.21770905e+02
362             	3.21775317e+02
363             	3.21779524e+02
364             	3.21783826e+02
365             	3.21788119e+02
366             	3.21792359e+02
367             	3.21796618e+02
368             	3.21800872e+02
369             	3.21804863e+02
370             	3.21808854e+02
371             	3.21812788e+02
372             	3.21816623e+02
373             	3.21820345e+02
374             	3.21824045e+02
375             	3.21827813e+02
376             	3.21831437e+02
377             	3.21835186e+02
378             	3.21838933e+02
379             	3.21842667e+02
380             	3.21846300e+02
381             	3.21849743e+02
382             	3.21853230e+02
383             	3.21856651e+02
384             	3.21860048e+02
385             	3.21863449e+02
386             	3.21866716e+02
387             	3.21869939e+02
388             	3.21873158e+02
389             	3.21876389e+02
390             	3.21879552e+02
391             	3.21882662e+02
392             	3.21885743e+02
393             	3.21888820e+02
394             	3.21891835e+02
395             	3.21894788e+02
396             	3.21897704e+02
397             	3.21900610e+02
398             	3.21903554e+02
399             	3.21906448e+02
400             	3.21909334e+02
401             	3.21912202e+02
402             	3.21914996e+02
403             	3.21917687e+02
404             	3.21920333e+02
405             	3.21922983e+02
406             	3.21925579e+02
407             	3.21928105e+02
408             	3.21930592e+02
409             	3.21933107e+02
410             	3.21935638e+02
411             	3.21938134e+02
412             	3.21940616e+02
413             	3.21943112e+02
414             	3.21945526e+02
415             	3.21947991e+02
416             	3.21950444e+02
417             	3.21952847e+02
418             	3.21955226e+02
419             	3.21957563e+02
420             	3.21959853e+02
421             	3.21962140e+02
422             	3.21964410e+02
423             	3.21966620e+02
424             	3.21968809e+02
425             	3.21970987e+02
426             	3.21973157e+02
427             	3.21975288e+02
428             	3.21977370e+02
429             	3.21979433e+02
430             	3.21981530e+02
431             	3.21983575e+02
432             	3.21985584e+02
433             	3.21987575e+02
434             	3.21989574e+02
435             	3.21991558e+02
436             	3.21993504e+02
437             	3.21995376e+02
438             	3.21997261e+02
439             	3.21999131e+02
440             	3.22000975e+02
441             	3.22002802e+02
442             	3.22004605e+02
443             	3.22006395e+02
444             	3.22008173e+02
445             	3.22009931e+02
446             	3.22011666e+02
447             	3.22013397e+02
448             	3.22015117e+02
449             	3.22016813e+02
450             	3.22018492e+02
451             	3.22020127e+02
452             	3.22021762e+02
453             	3.22023383e+02
454             	3.22024992e+02
455             	3.22026576e+02
456             	3.22028137e+02
457             	3.22029678e+02
458             	3.22031216e+02
459             	3.22032726e+02
460             	3.22034216e+02
461             	3.22035684e+02
462             	3.22037132e+02
463             	3.22038571e+02
464             	3.22040009e+02
465             	3.22041433e+02
466             	3.22042837e+02
467             	3.22044233e+02
468             	3.22045615e+02
469             	3.22046969e+02
470             	3.22048307e+02
471             	3.22049636e+02
472             	3.22050958e+02
473             	3.22052253e+02
474             	3.22053541e+02
475             	3.22054823e+02
476             	3.22056091e+02
477             	3.22057343e+02
478             	3.22058584e+02
479             	3.22059790e+02
480             	3.22060997e+02
481             	3.22062193e+02
482             	3.22063373e+02
483             	3.22064538e+02
484             	3.22065694e+02
485             	3.22066835e+02
486             	3.22067961e+02
487             	3.22069071e+02
488             	3.22070166e+02
489             	3.22071244e+02
490             	3.22072307e+02
491             	3.22073357e+02
492             	3.22074396e+02
493             	3.22075428e+02
494             	3.22076454e+02
495             	3.22077471e+02
496             	3.22078480e+02
497             	3.22079475e+02
498             	3.22080455e+02
499             	3.22081427e+02
500             	3.22082389e+02
501             	3.22083339e+02
502             	3.22084278e+02
503             	3.22085207e+02
504             	3.22086130e+02
505             	3.22087040e+02
506             	3.22087939e+02
507             	3.22088828e+02
508             	3.22089707e+02
509             	3.22090576e+02
510             	3.22091435e+02
511             	3.22092287e+02
512             	3.22093134e+02
513             	3.22093973e+02
514             	3.22094804e+02
515             	3.22095626e+02
516             	3.22096440e+02
517             	3.22097245e+02
518             	3.22098039e+02
519             	3.22098821e+02
520             	3.22099596e+02
521             	3.22100361e+02
522             	3.22101117e+02
523             	3.22101864e+02
524             	3.22102602e+02
525             	3.22103332e+02
526             	3.22104058e+02
527             	3.22104774e+02
528             	3.22105483e+02
529             	3.22106184e+02
530             	3.22106873e+02
531             	3.22107556e+02
532             	3.22108230e+02
533             	3.22108895e+02
534             	3.22109552e+02
535             	3.22110201e+02
536             	3.22110843e+02
537             	3.22111478e+02
538             	3.22112107e+02
539             	3.22112730e+02
540             	3.22113346e+02
541             	3.22113956e+02
542             	3.22114559e+02
543             	3.22115159e+02
544             	3.22115752e+02
545             	3.22116340e+02
546             	3.22116923e+02
547             	3.22117500e+02
548             	3.22118071e+02
549             	3.22118637e+02
550             	3.22119195e+02
551             	3.22119746e+02
552             	3.22120291e+02
553             	3.22120829e+02
554             	3.22121361e+02
555             	3.22121887e+02
556             	3.22122407e+02
557             	3.22122921e+02
558             	3.22123429e+02
559             	3.22123932e+02
560             	3.22124430e+02
561             	3.22124921e+02
562             	3.22125407e+02
563             	3.22125887e+02
564             	3.22126362e+02
565             	3.22126830e+02
566             	3.22127293e+02
567             	3.22127751e+02
568             	3.22128203e+02
569             	3.22128651e+02
570             	3.22129093e+02
571             	3.22129531e+02
572             	3.22129965e+02
573             	3.22130394e+02
574             	3.22130819e+02
575             	3.22131240e+02
576             	3.22131656e+02
577             	3.22132067e+02
578             	3.22132474e+02
579             	3.22132877e+02
580             	3.22133277e+02
581             	3.22133673e+02
582             	3.22134064e+02
583             	3.22134446e+02
584             	3.22134827e+02
585             	3.22135204e+02
586             	3.22135576e+02
587             	3.22135942e+02
588             	3.22136304e+02
589             	3.22136662e+02
590             	3.22137018e+02
591             	3.22137368e+02
592             	3.22137715e+02
593             	3.22138059e+02
594             	3.22138400e+02
595             	3.22138738e+02
596             	3.22139072e+02
597             	3.22139403e+02
598             	3.22139729e+02
599             	3.22140052e+02
600             	3.22140372e+02
601             	3.22140687e+02
602             	3.22140997e+02
603             	3.22141304e+02
604             	3.22141607e+02
605             	3.22141906e+02
606             	3.22142203e+02
607             	3.22142495e+02
608             	3.22142784e+02
609             	3.22143071e+02
610             	3.22143355e+02
611             	3.22143635e+02
612             	3.22143914e+02
613             	3.22144188e+02
614             	3.22144461e+02
615             	3.22144728e+02
616             	3.22144994e+02
617             	3.22145255e+02
618             	3.22145514e+02
619             	3.22145769e+02
620             	3.22146021e+02
621             	3.22146270e+02
