# Region        : cellZone component_4
# Cells         : 160
# Volume        : 3.29955308e-01
# Time          	volAverage(T)
1               	3.01750457e+02
2               	3.03477989e+02
3               	3.05030551e+02
4               	3.06478373e+02
5               	3.07883436e+02
6               	3.09262842e+02
7               	3.10615869e+02
8               	3.11946891e+02
9               	3.13261548e+02
10              	3.14560517e+02
11              	3.15836330e+02
12              	3.17105378e+02
13              	3.18359954e+02
14              	3.19594792e+02
15              	3.20821691e+02
16              	3.22034332e+02
17              	3.23254628e+02
18              	3.24437264e+02
19              	3.25660036e+02
20              	3.26836835e+02
21              	3.27975199e+02
22              	3.29071455e+02
23              	3.30147524e+02
24              	3.31195499e+02
25              	3.32209264e+02
26              	3.33185362e+02
27              	3.34132070e+02
28              	3.35051371e+02
29              	3.35955897e+02
30              	3.36861989e+02
31              	3.37777141e+02
32              	3.38703975e+02
33              	3.39619426e+02
34              	3.40513210e+02
35              	3.41381841e+02
36              	3.42240153e+02
37              	3.43092970e+02
38              	3.43928525e+02
39              	3.44746430e+02
40              	3.45546540e+02
41              	3.46323009e+02
42              	3.47080268e+02
43              	3.47807847e+02
44              	3.48515718e+02
45              	3.49214789e+02
46              	3.49901177e+02
47              	3.50569046e+02
48              	3.51224955e+02
49              	3.51881346e+02
50              	3.52535769e+02
51              	3.53201156e+02
52              	3.53865341e+02
53              	3.54523341e+02
54              	3.55172093e+02
55              	3.55798613e+02
56              	3.56412835e+02
57              	3.57013715e+02
58              	3.57606010e+02
59              	3.58181635e+02
60              	3.58736107e+02
61              	3.59282184e+02
62              	3.59817948e+02
63              	3.60342764e+02
64              	3.60857013e+02
65              	3.61361019e+02
66              	3.61862535e+02
67              	3.62353354e+02
68              	3.62830510e+02
69              	3.63288354e+02
70              	3.63738812e+02
71              	3.64182318e+02
72              	3.64618505e+02
73              	3.65063887e+02
74              	3.65515055e+02
75              	3.65968117e+02
76              	3.66415764e+02
77              	3.66855883e+02
78              	3.67287737e+02
79              	3.67712400e+02
80              	3.68130665e+02
81              	3.68533210e+02
82              	3.68917948e+02
83              	3.69295137e+02
84              	3.69659249e+02
85              	3.70014445e+02
86              	3.70361472e+02
87              	3.70702581e+02
88              	3.71039656e+02
89              	3.71376703e+02
90              	3.71706718e+02
91              	3.72039194e+02
92              	3.72365956e+02
93              	3.72698233e+02
94              	3.73028514e+02
95              	3.73356800e+02
96              	3.73679000e+02
97              	3.73992815e+02
98              	3.74297923e+02
99              	3.74595631e+02
100             	3.74887707e+02
101             	3.75171169e+02
102             	3.75449907e+02
103             	3.75729539e+02
104             	3.76004421e+02
105             	3.76275223e+02
106             	3.76540783e+02
107             	3.76800710e+02
108             	3.77054136e+02
109             	3.77303213e+02
110             	3.77545797e+02
111             	3.77775772e+02
112             	3.77996784e+02
113             	3.78207793e+02
114             	3.78409510e+02
115             	3.78601700e+02
116             	3.78787091e+02
117             	3.78968641e+02
118             	3.79148837e+02
119             	3.79328335e+02
120             	3.79503632e+02
121             	3.79680552e+02
122             	3.79859152e+02
123             	3.80034025e+02
124             	3.80212892e+02
125             	3.80390433e+02
126             	3.80565689e+02
127             	3.80738164e+02
128             	3.80907470e+02
129             	3.81072531e+02
130             	3.81234224e+02
131             	3.81393205e+02
132             	3.81549647e+02
133             	3.81703867e+02
134             	3.81856005e+02
135             	3.82006378e+02
136             	3.82155124e+02
137             	3.82301857e+02
138             	3.82445214e+02
139             	3.82585754e+02
140             	3.82722378e+02
141             	3.82854614e+02
142             	3.82982712e+02
143             	3.83106679e+02
144             	3.83227068e+02
145             	3.83341082e+02
146             	3.83450933e+02
147             	3.83556630e+02
148             	3.83659708e+02
149             	3.83760425e+02
150             	3.83858382e+02
151             	3.83952598e+02
152             	3.84044048e+02
153             	3.84134567e+02
154             	3.84225544e+02
155             	3.84315533e+02
156             	3.84405073e+02
157             	3.84497452e+02
158             	3.84588957e+02
159             	3.84679507e+02
160             	3.84767233e+02
161             	3.84851066e+02
162             	3.84928760e+02
163             	3.85002269e+02
164             	3.85072756e+02
165             	3.85140580e+02
166             	3.85206425e+02
167             	3.85270657e+02
168             	3.85335058e+02
169             	3.85400375e+02
170             	3.85466294e+02
171             	3.85529126e+02
172             	3.85590854e+02
173             	3.85644057e+02
174             	3.85695605e+02
175             	3.85743808e+02
176             	3.85789695e+02
177             	3.85833568e+02
178             	3.85876295e+02
179             	3.85918734e+02
180             	3.85961087e+02
181             	3.86003895e+02
182             	3.86046919e+02
183             	3.86090333e+02
184             	3.86132971e+02
185             	3.86174694e+02
186             	3.86215037e+02
187             	3.86253957e+02
188             	3.86290628e+02
189             	3.86324841e+02
190             	3.86356417e+02
191             	3.86385336e+02
192             	3.86411605e+02
193             	3.86435435e+02
194             	3.86457676e+02
195             	3.86478648e+02
196             	3.86499062e+02
197             	3.86519211e+02
198             	3.86538986e+02
199             	3.86558352e+02
200             	3.86577001e+02
201             	3.86594394e+02
202             	3.86611254e+02
203             	3.86627118e+02
204             	3.86642103e+02
205             	3.86656285e+02
206             	3.86669521e+02
207             	3.86681844e+02
208             	3.86693410e+02
209             	3.86704188e+02
210             	3.86714158e+02
211             	3.86723286e+02
212             	3.86731974e+02
213             	3.86740157e+02
214             	3.86747754e+02
215             	3.86754751e+02
216             	3.86761231e+02
217             	3.86767463e+02
218             	3.86773448e+02
219             	3.86778787e+02
220             	3.86783506e+02
221             	3.86787149e+02
222             	3.86789755e+02
223             	3.86791277e+02
224             	3.86791554e+02
225             	3.86790808e+02
226             	3.86789266e+02
227             	3.86786923e+02
228             	3.86784105e+02
229             	3.86780962e+02
230             	3.86777765e+02
231             	3.86774714e+02
232             	3.86771905e+02
233             	3.86769278e+02
234             	3.86766657e+02
235             	3.86763821e+02
236             	3.86760615e+02
237             	3.86756856e+02
238             	3.86752542e+02
239             	3.86747613e+02
240             	3.86742003e+02
241             	3.86735828e+02
242             	3.86729067e+02
243             	3.86721626e+02
244             	3.86713495e+02
245             	3.86704682e+02
246             	3.86695332e+02
247             	3.86685670e+02
248             	3.86675981e+02
249             	3.86666437e+02
250             	3.86657075e+02
251             	3.86647909e+02
252             	3.86638994e+02
253             	3.86630285e+02
254             	3.86621463e+02
255             	3.86612509e+02
256             	3.86603308e+02
257             	3.86593733e+02
258             	3.86583630e+02
259             	3.86572888e+02
260             	3.86561626e+02
261             	3.86549844e+02
262             	3.86537876e+02
263             	3.86525830e+02
264             	3.86513681e+02
265             	3.86501459e+02
266             	3.86489135e+02
267             	3.86476701e+02
268             	3.86464342e+02
269             	3.86452115e+02
270             	3.86439987e+02
271             	3.86427924e+02
272             	3.86416029e+02
273             	3.86404198e+02
274             	3.86392404e+02
275             	3.86380607e+02
276             	3.86368625e+02
277             	3.86356499e+02
278             	3.86344180e+02
279             	3.86331628e+02
280             	3.86318890e+02
281             	3.86305940e+02
282             	3.86292825e+02
283             	3.86279567e+02
284             	3.86266306e+02
285             	3.86253003e+02
286             	3.86239703e+02
287             	3.86226380e+02
288             	3.86213113e+02
289             	3.86199937e+02
290             	3.86186824e+02
291             	3.86173766e+02
292             	3.86160814e+02
293             	3.86148053e+02
294             	3.86135439e+02
295             	3.86122957e+02
296             	3.86110602e+02
297             	3.86098377e+02
298             	3.86086319e+02
299             	3.86074346e+02
300             	3.86062357e+02
301             	3.86050317e+02
302             	3.86038276e+02
303             	3.86026239e+02
304             	3.86014204e+02
305             	3.86002197e+02
306             	3.85990235e+02
307             	3.85978252e+02
308             	3.85966268e+02
309             	3.85954310e+02
310             	3.85942410e+02
311             	3.85930636e+02
312             	3.85918814e+02
313             	3.85907042e+02
314             	3.85895300e+02
315             	3.85883604e+02
316             	3.85871946e+02
317             	3.85860352e+02
318             	3.85848755e+02
319             	3.85837274e+02
320             	3.85825980e+02
321             	3.85814853e+02
322             	3.85803844e+02
323             	3.85792932e+02
324             	3.85782126e+02
325             	3.85771466e+02
326             	3.85760910e+02
327             	3.85750433e+02
328             	3.85740033e+02
329             	3.85729740e+02
330             	3.85719564e+02
331             	3.85709529e+02
332             	3.85699643e+02
333             	3.85689873e+02
334             	3.85680192e+02
335             	3.85670587e+02
336             	3.85661089e+02
337             	3.85651661e+02
338             	3.85642288e+02
339             	3.85632961e+02
340             	3.85623677e+02
341             	3.85614455e+02
342             	3.85605352e+02
343             	3.85596330e+02
344             	3.85587369e+02
345             	3.85578495e+02
346             	3.85569677e+02
347             	3.85560921e+02
348             	3.85552220e+02
349             	3.85543578e+02
350             	3.85534996e+02
351             	3.85526485e+02
352             	3.85518043e+02
353             	3.85509690e+02
354             	3.85501424e+02
355             	3.85493250e+02
356             	3.85485173e+02
357             	3.85477198e+02
358             	3.85469335e+02
359             	3.85461578e+02
360             	3.85453931e+02
361             	3.85446388e+02
362             	3.85438947e+02
363             	3.85431644e+02
364             	3.85424475e+02
365             	3.85417429e+02
366             	3.85410485e+02
367             	3.85403639e+02
368             	3.85396867e+02
369             	3.85390157e+02
370             	3.85383521e+02
371             	3.85376969e+02
372             	3.85370484e+02
373             	3.85364087e+02
374             	3.85357769e+02
375             	3.85351528e+02
376             	3.85345368e+02
377             	3.85339292e+02
378             	3.85333304e+02
379             	3.85327399e+02
380             	3.85321593e+02
381             	3.85315878e+02
382             	3.85310255e+02
383             	3.85304711e+02
384             	3.85299256e+02
385             	3.85293885e+02
386             	3.85288603e+02
387             	3.85283389e+02
388             	3.85278265e+02
389             	3.85273206e+02
390             	3.85268218e+02
391             	3.85263309e+02
392             	3.85258469e+02
393             	3.85253689e+02
394             	3.85248957e+02
395             	3.85244273e+02
396             	3.85239645e+02
397             	3.85235076e+02
398             	3.85230551e+02
399             	3.85226060e+02
400             	3.85221604e+02
401             	3.85217190e+02
402             	3.85212854e+02
403             	3.85208579e+02
404             	3.85204358e+02
405             	3.85200192e+02
406             	3.85196083e+02
407             	3.85192034e+02
408             	3.85188043e+02
409             	3.85184131e+02
410             	3.85180291e+02
411             	3.85176512e+02
412             	3.85172788e+02
413             	3.85169156e+02
414             	3.85165581e+02
415             	3.85162070e+02
416             	3.85158638e+02
417             	3.85155280e+02
418             	3.85151999e+02
419             	3.85148823e+02
420             	3.85145686e+02
421             	3.85142606e+02
422             	3.85139598e+02
423             	3.85136664e+02
424             	3.85133791e+02
425             	3.85130974e+02
426             	3.85128203e+02
427             	3.85125470e+02
428             	3.85122795e+02
429             	3.85120157e+02
430             	3.85117561e+02
431             	3.85115011e+02
432             	3.85112513e+02
433             	3.85110075e+02
434             	3.85107702e+02
435             	3.85105398e+02
436             	3.85103160e+02
437             	3.85100983e+02
438             	3.85098864e+02
439             	3.85096792e+02
440             	3.85094770e+02
441             	3.85092797e+02
442             	3.85090842e+02
443             	3.85088904e+02
444             	3.85086989e+02
445             	3.85085092e+02
446             	3.85083207e+02
447             	3.85081344e+02
448             	3.85079509e+02
449             	3.85077713e+02
450             	3.85075958e+02
451             	3.85074247e+02
452             	3.85072571e+02
453             	3.85070939e+02
454             	3.85069347e+02
455             	3.85067806e+02
456             	3.85066312e+02
457             	3.85064861e+02
458             	3.85063443e+02
459             	3.85062062e+02
460             	3.85060712e+02
461             	3.85059390e+02
462             	3.85058101e+02
463             	3.85056840e+02
464             	3.85055607e+02
465             	3.85054398e+02
466             	3.85053210e+02
467             	3.85052061e+02
468             	3.85050927e+02
469             	3.85049806e+02
470             	3.85048698e+02
471             	3.85047603e+02
472             	3.85046522e+02
473             	3.85045456e+02
474             	3.85044419e+02
475             	3.85043404e+02
476             	3.85042412e+02
477             	3.85041451e+02
478             	3.85040521e+02
479             	3.85039623e+02
480             	3.85038763e+02
481             	3.85037940e+02
482             	3.85037153e+02
483             	3.85036391e+02
484             	3.85035652e+02
485             	3.85034949e+02
486             	3.85034279e+02
487             	3.85033646e+02
488             	3.85033035e+02
489             	3.85032451e+02
490             	3.85031889e+02
491             	3.85031350e+02
492             	3.85030842e+02
493             	3.85030364e+02
494             	3.85029901e+02
495             	3.85029449e+02
496             	3.85029019e+02
497             	3.85028582e+02
498             	3.85028140e+02
499             	3.85027709e+02
500             	3.85027293e+02
501             	3.85026965e+02
502             	3.85026603e+02
503             	3.85026243e+02
504             	3.85025901e+02
505             	3.85025606e+02
506             	3.85025327e+02
507             	3.85025087e+02
508             	3.85024848e+02
509             	3.85024623e+02
510             	3.85024413e+02
511             	3.85024217e+02
512             	3.85024034e+02
513             	3.85023867e+02
514             	3.85023719e+02
515             	3.85023587e+02
516             	3.85023480e+02
517             	3.85023398e+02
518             	3.85023325e+02
519             	3.85023262e+02
520             	3.85023216e+02
521             	3.85023193e+02
522             	3.85023189e+02
523             	3.85023197e+02
524             	3.85023222e+02
525             	3.85023267e+02
526             	3.85023307e+02
527             	3.85023364e+02
528             	3.85023417e+02
529             	3.85023469e+02
530             	3.85023520e+02
531             	3.85023573e+02
532             	3.85023634e+02
533             	3.85023707e+02
534             	3.85023787e+02
535             	3.85023872e+02
536             	3.85023956e+02
537             	3.85024048e+02
538             	3.85024147e+02
539             	3.85024260e+02
540             	3.85024384e+02
541             	3.85024517e+02
542             	3.85024660e+02
543             	3.85024814e+02
544             	3.85024978e+02
545             	3.85025152e+02
546             	3.85025336e+02
547             	3.85025530e+02
548             	3.85025733e+02
549             	3.85025943e+02
550             	3.85026161e+02
551             	3.85026387e+02
552             	3.85026620e+02
553             	3.85026860e+02
554             	3.85027105e+02
555             	3.85027354e+02
556             	3.85027614e+02
557             	3.85027879e+02
558             	3.85028152e+02
559             	3.85028433e+02
560             	3.85028726e+02
561             	3.85029024e+02
562             	3.85029336e+02
563             	3.85029660e+02
564             	3.85029987e+02
565             	3.85030321e+02
566             	3.85030656e+02
567             	3.85030995e+02
568             	3.85031339e+02
569             	3.85031687e+02
570             	3.85032030e+02
571             	3.85032369e+02
572             	3.85032704e+02
573             	3.85033033e+02
574             	3.85033368e+02
575             	3.85033703e+02
576             	3.85034042e+02
577             	3.85034380e+02
578             	3.85034730e+02
579             	3.85035073e+02
580             	3.85035415e+02
581             	3.85035759e+02
582             	3.85036114e+02
583             	3.85036476e+02
584             	3.85036853e+02
585             	3.85037244e+02
586             	3.85037654e+02
587             	3.85038080e+02
588             	3.85038515e+02
589             	3.85038960e+02
590             	3.85039321e+02
591             	3.85039747e+02
592             	3.85040191e+02
593             	3.85040622e+02
594             	3.85041012e+02
595             	3.85041412e+02
596             	3.85041833e+02
597             	3.85042229e+02
598             	3.85042665e+02
599             	3.85043135e+02
600             	3.85043625e+02
601             	3.85044106e+02
602             	3.85044610e+02
603             	3.85045115e+02
604             	3.85045625e+02
605             	3.85046139e+02
606             	3.85046667e+02
607             	3.85047201e+02
608             	3.85047723e+02
609             	3.85048254e+02
610             	3.85048746e+02
611             	3.85049264e+02
612             	3.85049776e+02
613             	3.85050281e+02
614             	3.85050737e+02
615             	3.85051200e+02
616             	3.85051673e+02
617             	3.85052150e+02
618             	3.85052633e+02
619             	3.85053087e+02
620             	3.85053555e+02
621             	3.85054028e+02
