# Region        : cellZone component_4
# Cells         : 27
# Volume        : 3.27043654e-02
# Time          	volAverage(T)
1               	3.02885988e+02
2               	3.05643975e+02
3               	3.07948237e+02
4               	3.09900724e+02
5               	3.11608889e+02
6               	3.13134608e+02
7               	3.14528216e+02
8               	3.15812616e+02
9               	3.17009719e+02
10              	3.18133789e+02
11              	3.19187993e+02
12              	3.20179608e+02
13              	3.21123997e+02
14              	3.22045098e+02
15              	3.22959472e+02
16              	3.23885348e+02
17              	3.24840279e+02
18              	3.25868504e+02
19              	3.26803738e+02
20              	3.27707030e+02
21              	3.28523242e+02
22              	3.29177732e+02
23              	3.29688247e+02
24              	3.30096048e+02
25              	3.30411534e+02
26              	3.30655765e+02
27              	3.30877315e+02
28              	3.31113844e+02
29              	3.31375035e+02
30              	3.31678953e+02
31              	3.32009716e+02
32              	3.32375413e+02
33              	3.32763540e+02
34              	3.33156255e+02
35              	3.33534053e+02
36              	3.33882143e+02
37              	3.34190053e+02
38              	3.34452672e+02
39              	3.34664673e+02
40              	3.34835994e+02
41              	3.34974646e+02
42              	3.35088781e+02
43              	3.35188520e+02
44              	3.35286889e+02
45              	3.35377474e+02
46              	3.35507593e+02
47              	3.35588458e+02
48              	3.35637046e+02
49              	3.35618015e+02
50              	3.35560792e+02
51              	3.35459166e+02
52              	3.35338639e+02
53              	3.35220739e+02
54              	3.35119939e+02
55              	3.35051152e+02
56              	3.35025071e+02
57              	3.35060336e+02
58              	3.35155058e+02
59              	3.35305315e+02
60              	3.35508399e+02
61              	3.35755292e+02
62              	3.36036114e+02
63              	3.36338170e+02
64              	3.36656111e+02
65              	3.36980933e+02
66              	3.37292680e+02
67              	3.37582277e+02
68              	3.37851820e+02
69              	3.38081204e+02
70              	3.38245848e+02
71              	3.38350334e+02
72              	3.38398678e+02
73              	3.38393502e+02
74              	3.38353244e+02
75              	3.38297721e+02
76              	3.38242342e+02
77              	3.38213229e+02
78              	3.38223918e+02
79              	3.38289222e+02
80              	3.38426135e+02
81              	3.38602123e+02
82              	3.38799718e+02
83              	3.38989853e+02
84              	3.39148005e+02
85              	3.39262793e+02
86              	3.39326942e+02
87              	3.39350364e+02
88              	3.39344584e+02
89              	3.39326762e+02
90              	3.39311130e+02
91              	3.39314436e+02
92              	3.39351841e+02
93              	3.39433572e+02
94              	3.39569053e+02
95              	3.39768629e+02
96              	3.39957493e+02
97              	3.40116205e+02
98              	3.40236918e+02
99              	3.40279422e+02
100             	3.40235506e+02
101             	3.40123009e+02
102             	3.39967442e+02
103             	3.39806505e+02
104             	3.39681341e+02
105             	3.39605555e+02
106             	3.39599369e+02
107             	3.39640139e+02
108             	3.39723397e+02
109             	3.39808953e+02
110             	3.39886939e+02
111             	3.39930497e+02
112             	3.39930151e+02
113             	3.39903673e+02
114             	3.39853919e+02
115             	3.39808164e+02
116             	3.39780174e+02
117             	3.39785847e+02
118             	3.39830645e+02
119             	3.39933699e+02
120             	3.40046897e+02
121             	3.40150484e+02
122             	3.40249382e+02
123             	3.40297395e+02
124             	3.40284685e+02
125             	3.40212021e+02
126             	3.40094145e+02
127             	3.39955068e+02
128             	3.39819884e+02
129             	3.39708002e+02
130             	3.39639672e+02
131             	3.39627570e+02
132             	3.39678898e+02
133             	3.39795501e+02
134             	3.39948770e+02
135             	3.40102162e+02
136             	3.40258641e+02
137             	3.40380112e+02
138             	3.40451496e+02
139             	3.40468752e+02
140             	3.40438579e+02
141             	3.40377741e+02
142             	3.40305883e+02
143             	3.40239506e+02
144             	3.40193303e+02
145             	3.40176891e+02
146             	3.40200705e+02
147             	3.40268026e+02
148             	3.40377037e+02
149             	3.40501296e+02
150             	3.40630336e+02
151             	3.40752490e+02
152             	3.40846202e+02
153             	3.40897866e+02
154             	3.40907600e+02
155             	3.40877106e+02
156             	3.40823586e+02
157             	3.40753985e+02
158             	3.40677384e+02
159             	3.40609760e+02
160             	3.40560076e+02
161             	3.40535852e+02
162             	3.40540891e+02
163             	3.40575535e+02
164             	3.40637925e+02
165             	3.40724998e+02
166             	3.40822732e+02
167             	3.40926487e+02
168             	3.41024468e+02
169             	3.41112904e+02
170             	3.41180435e+02
171             	3.41227207e+02
172             	3.41251408e+02
173             	3.41254739e+02
174             	3.41241804e+02
175             	3.41221017e+02
176             	3.41196495e+02
177             	3.41174232e+02
178             	3.41161349e+02
179             	3.41160494e+02
180             	3.41173551e+02
181             	3.41204039e+02
182             	3.41250248e+02
183             	3.41310415e+02
184             	3.41383444e+02
185             	3.41466472e+02
186             	3.41557351e+02
187             	3.41645327e+02
188             	3.41727948e+02
189             	3.41798571e+02
190             	3.41852211e+02
191             	3.41884759e+02
192             	3.41893972e+02
193             	3.41878186e+02
194             	3.41841386e+02
195             	3.41786997e+02
196             	3.41718499e+02
197             	3.41645244e+02
198             	3.41573113e+02
199             	3.41507734e+02
200             	3.41454974e+02
201             	3.41419978e+02
202             	3.41404600e+02
203             	3.41408796e+02
204             	3.41431943e+02
205             	3.41469777e+02
206             	3.41517759e+02
207             	3.41571498e+02
208             	3.41626254e+02
209             	3.41678314e+02
210             	3.41722748e+02
211             	3.41757962e+02
212             	3.41783195e+02
213             	3.41797280e+02
214             	3.41801268e+02
215             	3.41796685e+02
216             	3.41785448e+02
217             	3.41769258e+02
218             	3.41750491e+02
219             	3.41731471e+02
220             	3.41714886e+02
221             	3.41702738e+02
222             	3.41696787e+02
223             	3.41698187e+02
224             	3.41707499e+02
225             	3.41724546e+02
226             	3.41748485e+02
227             	3.41775772e+02
228             	3.41805466e+02
229             	3.41835287e+02
230             	3.41863257e+02
231             	3.41887857e+02
232             	3.41907866e+02
233             	3.41923589e+02
234             	3.41934167e+02
235             	3.41940848e+02
236             	3.41944092e+02
237             	3.41944849e+02
238             	3.41943475e+02
239             	3.41942266e+02
240             	3.41941264e+02
241             	3.41940604e+02
242             	3.41940635e+02
243             	3.41941208e+02
244             	3.41942581e+02
245             	3.41944018e+02
246             	3.41944933e+02
247             	3.41945091e+02
248             	3.41944070e+02
249             	3.41940352e+02
250             	3.41934301e+02
251             	3.41921718e+02
252             	3.41903750e+02
253             	3.41879928e+02
254             	3.41850151e+02
255             	3.41816400e+02
256             	3.41780550e+02
257             	3.41745238e+02
258             	3.41713009e+02
259             	3.41687440e+02
260             	3.41669018e+02
261             	3.41659043e+02
262             	3.41656989e+02
263             	3.41661339e+02
264             	3.41670502e+02
265             	3.41682679e+02
266             	3.41695910e+02
267             	3.41708522e+02
268             	3.41718988e+02
269             	3.41727423e+02
270             	3.41733681e+02
271             	3.41737657e+02
272             	3.41740103e+02
273             	3.41741215e+02
274             	3.41742037e+02
275             	3.41739902e+02
276             	3.41735848e+02
277             	3.41728653e+02
278             	3.41717886e+02
279             	3.41703596e+02
280             	3.41685821e+02
281             	3.41665374e+02
282             	3.41644123e+02
283             	3.41623645e+02
284             	3.41606245e+02
285             	3.41594526e+02
286             	3.41589514e+02
287             	3.41592094e+02
288             	3.41602552e+02
289             	3.41619727e+02
290             	3.41642331e+02
291             	3.41668558e+02
292             	3.41696451e+02
293             	3.41721796e+02
294             	3.41743719e+02
295             	3.41759727e+02
296             	3.41768286e+02
297             	3.41768807e+02
298             	3.41760430e+02
299             	3.41743977e+02
300             	3.41720658e+02
301             	3.41694328e+02
302             	3.41666038e+02
303             	3.41638858e+02
304             	3.41615113e+02
305             	3.41596771e+02
306             	3.41585078e+02
307             	3.41580478e+02
308             	3.41582652e+02
309             	3.41590637e+02
310             	3.41602719e+02
311             	3.41617337e+02
312             	3.41633115e+02
313             	3.41648677e+02
314             	3.41662923e+02
315             	3.41672576e+02
316             	3.41678268e+02
317             	3.41678141e+02
318             	3.41672453e+02
319             	3.41661098e+02
320             	3.41644820e+02
321             	3.41625828e+02
322             	3.41605534e+02
323             	3.41585694e+02
324             	3.41567847e+02
325             	3.41553402e+02
326             	3.41543750e+02
327             	3.41539411e+02
328             	3.41540382e+02
329             	3.41548059e+02
330             	3.41561515e+02
331             	3.41579745e+02
332             	3.41602438e+02
333             	3.41627759e+02
334             	3.41654890e+02
335             	3.41682174e+02
336             	3.41708363e+02
337             	3.41732550e+02
338             	3.41752831e+02
339             	3.41768954e+02
340             	3.41780523e+02
341             	3.41786905e+02
342             	3.41788611e+02
343             	3.41784676e+02
344             	3.41776087e+02
345             	3.41763470e+02
346             	3.41745477e+02
347             	3.41724031e+02
348             	3.41700019e+02
349             	3.41673494e+02
350             	3.41646532e+02
351             	3.41620877e+02
352             	3.41600556e+02
353             	3.41588553e+02
354             	3.41585628e+02
355             	3.41592931e+02
356             	3.41610456e+02
357             	3.41633573e+02
358             	3.41660464e+02
359             	3.41688750e+02
360             	3.41714145e+02
361             	3.41735327e+02
362             	3.41750032e+02
363             	3.41757345e+02
364             	3.41756905e+02
365             	3.41749785e+02
366             	3.41737353e+02
367             	3.41721609e+02
368             	3.41704433e+02
369             	3.41687986e+02
370             	3.41673039e+02
371             	3.41661408e+02
372             	3.41653796e+02
373             	3.41649035e+02
374             	3.41646649e+02
375             	3.41644645e+02
376             	3.41642298e+02
377             	3.41638696e+02
378             	3.41633590e+02
379             	3.41627875e+02
380             	3.41622906e+02
381             	3.41621646e+02
382             	3.41624540e+02
383             	3.41632620e+02
384             	3.41646740e+02
385             	3.41665692e+02
386             	3.41687408e+02
387             	3.41710417e+02
388             	3.41729939e+02
389             	3.41739394e+02
390             	3.41737527e+02
391             	3.41724009e+02
392             	3.41698620e+02
393             	3.41664941e+02
394             	3.41624808e+02
395             	3.41582255e+02
396             	3.41540340e+02
397             	3.41502492e+02
398             	3.41470950e+02
399             	3.41446989e+02
400             	3.41431390e+02
401             	3.41424679e+02
402             	3.41425957e+02
403             	3.41434330e+02
404             	3.41448307e+02
405             	3.41466411e+02
406             	3.41487006e+02
407             	3.41508854e+02
408             	3.41530402e+02
409             	3.41550552e+02
410             	3.41568387e+02
411             	3.41579410e+02
412             	3.41584616e+02
413             	3.41583787e+02
414             	3.41576407e+02
415             	3.41562325e+02
416             	3.41543910e+02
417             	3.41521833e+02
418             	3.41499124e+02
419             	3.41477519e+02
420             	3.41460353e+02
421             	3.41449334e+02
422             	3.41444926e+02
423             	3.41451220e+02
424             	3.41466262e+02
425             	3.41491073e+02
426             	3.41523571e+02
427             	3.41561870e+02
428             	3.41602772e+02
429             	3.41644138e+02
430             	3.41681347e+02
431             	3.41708474e+02
432             	3.41725457e+02
433             	3.41730355e+02
434             	3.41721695e+02
435             	3.41701693e+02
436             	3.41671566e+02
437             	3.41634698e+02
438             	3.41594305e+02
439             	3.41554175e+02
440             	3.41517279e+02
441             	3.41487425e+02
442             	3.41466321e+02
443             	3.41456389e+02
444             	3.41457638e+02
445             	3.41472112e+02
446             	3.41498141e+02
447             	3.41533761e+02
448             	3.41576965e+02
449             	3.41625072e+02
450             	3.41673503e+02
451             	3.41719581e+02
452             	3.41760081e+02
453             	3.41792546e+02
454             	3.41815709e+02
455             	3.41829253e+02
456             	3.41833122e+02
457             	3.41828587e+02
458             	3.41816931e+02
459             	3.41796422e+02
460             	3.41770268e+02
461             	3.41739086e+02
462             	3.41704062e+02
463             	3.41665371e+02
464             	3.41626660e+02
465             	3.41588854e+02
466             	3.41553423e+02
467             	3.41524526e+02
468             	3.41504153e+02
469             	3.41494046e+02
470             	3.41494157e+02
471             	3.41504609e+02
472             	3.41523756e+02
473             	3.41549757e+02
474             	3.41580453e+02
475             	3.41613459e+02
476             	3.41646384e+02
477             	3.41677639e+02
478             	3.41705123e+02
479             	3.41722871e+02
480             	3.41732597e+02
481             	3.41733153e+02
482             	3.41722787e+02
483             	3.41702397e+02
484             	3.41673912e+02
485             	3.41639890e+02
486             	3.41601694e+02
487             	3.41564239e+02
488             	3.41529454e+02
489             	3.41502019e+02
490             	3.41482619e+02
491             	3.41474440e+02
492             	3.41478110e+02
493             	3.41493826e+02
494             	3.41520337e+02
495             	3.41555399e+02
496             	3.41596667e+02
497             	3.41636956e+02
498             	3.41674315e+02
499             	3.41704018e+02
500             	3.41723374e+02
501             	3.41731070e+02
502             	3.41727368e+02
503             	3.41713214e+02
504             	3.41690571e+02
505             	3.41661998e+02
506             	3.41630709e+02
507             	3.41599620e+02
508             	3.41572244e+02
509             	3.41550131e+02
510             	3.41535371e+02
511             	3.41528884e+02
512             	3.41532248e+02
513             	3.41544520e+02
514             	3.41564244e+02
515             	3.41590038e+02
516             	3.41618948e+02
517             	3.41648583e+02
518             	3.41676421e+02
519             	3.41699709e+02
520             	3.41717464e+02
521             	3.41728007e+02
522             	3.41731246e+02
523             	3.41727661e+02
524             	3.41718059e+02
525             	3.41703916e+02
526             	3.41687652e+02
527             	3.41670935e+02
528             	3.41655135e+02
529             	3.41641719e+02
530             	3.41631258e+02
531             	3.41623869e+02
532             	3.41620239e+02
533             	3.41618665e+02
534             	3.41619153e+02
535             	3.41621095e+02
536             	3.41623776e+02
537             	3.41626991e+02
538             	3.41630383e+02
539             	3.41633885e+02
540             	3.41637842e+02
541             	3.41641563e+02
542             	3.41645194e+02
543             	3.41648635e+02
544             	3.41652610e+02
545             	3.41657150e+02
546             	3.41662672e+02
547             	3.41669689e+02
548             	3.41678211e+02
549             	3.41687803e+02
550             	3.41698225e+02
551             	3.41708711e+02
552             	3.41718362e+02
553             	3.41726175e+02
554             	3.41731358e+02
555             	3.41733572e+02
556             	3.41732563e+02
557             	3.41728279e+02
558             	3.41721147e+02
559             	3.41711432e+02
560             	3.41700233e+02
561             	3.41688278e+02
562             	3.41676077e+02
563             	3.41664790e+02
564             	3.41654983e+02
565             	3.41647321e+02
566             	3.41642252e+02
567             	3.41639739e+02
568             	3.41639774e+02
569             	3.41641978e+02
570             	3.41646438e+02
571             	3.41653152e+02
572             	3.41661351e+02
573             	3.41671016e+02
574             	3.41682384e+02
575             	3.41695098e+02
576             	3.41708908e+02
577             	3.41723661e+02
578             	3.41738911e+02
579             	3.41753871e+02
580             	3.41767178e+02
581             	3.41776941e+02
582             	3.41782632e+02
583             	3.41783522e+02
584             	3.41779199e+02
585             	3.41770286e+02
586             	3.41757643e+02
587             	3.41742810e+02
588             	3.41726783e+02
589             	3.41711713e+02
590             	3.41698230e+02
591             	3.41687644e+02
592             	3.41681264e+02
593             	3.41678926e+02
594             	3.41680757e+02
595             	3.41686384e+02
596             	3.41694701e+02
597             	3.41704960e+02
598             	3.41715957e+02
599             	3.41726571e+02
600             	3.41736323e+02
601             	3.41742426e+02
602             	3.41745260e+02
603             	3.41744304e+02
604             	3.41739180e+02
605             	3.41730314e+02
606             	3.41717031e+02
607             	3.41700183e+02
608             	3.41681566e+02
609             	3.41661850e+02
610             	3.41641649e+02
611             	3.41622390e+02
612             	3.41605848e+02
613             	3.41593173e+02
614             	3.41585362e+02
615             	3.41583013e+02
616             	3.41586002e+02
617             	3.41593733e+02
618             	3.41605016e+02
619             	3.41618572e+02
620             	3.41633073e+02
621             	3.41647120e+02
