# Region        : cellZone component_0
# Cells         : 153
# Volume        : 2.81748537e-01
# Time          	volAverage(T)
1               	3.00286507e+02
2               	3.00569259e+02
3               	3.00835851e+02
4               	3.01093797e+02
5               	3.01348218e+02
6               	3.01600586e+02
7               	3.01851357e+02
8               	3.02101107e+02
9               	3.02350231e+02
10              	3.02598425e+02
11              	3.02845099e+02
12              	3.03089875e+02
13              	3.03332940e+02
14              	3.03573938e+02
15              	3.03814026e+02
16              	3.04052497e+02
17              	3.04290016e+02
18              	3.04525930e+02
19              	3.04761081e+02
20              	3.04994241e+02
21              	3.05226541e+02
22              	3.05455650e+02
23              	3.05682551e+02
24              	3.05904200e+02
25              	3.06120385e+02
26              	3.06335205e+02
27              	3.06550507e+02
28              	3.06765693e+02
29              	3.06979493e+02
30              	3.07191329e+02
31              	3.07400803e+02
32              	3.07607853e+02
33              	3.07814287e+02
34              	3.08019625e+02
35              	3.08221701e+02
36              	3.08419926e+02
37              	3.08614683e+02
38              	3.08806115e+02
39              	3.08994289e+02
40              	3.09179197e+02
41              	3.09360330e+02
42              	3.09537922e+02
43              	3.09711531e+02
44              	3.09880824e+02
45              	3.10046387e+02
46              	3.10208433e+02
47              	3.10366386e+02
48              	3.10520231e+02
49              	3.10672324e+02
50              	3.10822243e+02
51              	3.10969895e+02
52              	3.11114959e+02
53              	3.11257146e+02
54              	3.11396807e+02
55              	3.11532313e+02
56              	3.11663316e+02
57              	3.11788475e+02
58              	3.11912851e+02
59              	3.12033712e+02
60              	3.12151670e+02
61              	3.12266212e+02
62              	3.12379400e+02
63              	3.12491491e+02
64              	3.12603739e+02
65              	3.12714233e+02
66              	3.12822886e+02
67              	3.12928656e+02
68              	3.13032397e+02
69              	3.13130200e+02
70              	3.13225339e+02
71              	3.13317058e+02
72              	3.13404762e+02
73              	3.13489707e+02
74              	3.13572957e+02
75              	3.13654536e+02
76              	3.13740324e+02
77              	3.13824598e+02
78              	3.13909239e+02
79              	3.13985739e+02
80              	3.14062650e+02
81              	3.14136586e+02
82              	3.14208261e+02
83              	3.14277045e+02
84              	3.14343133e+02
85              	3.14407222e+02
86              	3.14471127e+02
87              	3.14535985e+02
88              	3.14601976e+02
89              	3.14667054e+02
90              	3.14732129e+02
91              	3.14796565e+02
92              	3.14859527e+02
93              	3.14920330e+02
94              	3.14977405e+02
95              	3.15034464e+02
96              	3.15089599e+02
97              	3.15145720e+02
98              	3.15200243e+02
99              	3.15255014e+02
100             	3.15308066e+02
101             	3.15361063e+02
102             	3.15409442e+02
103             	3.15458009e+02
104             	3.15503639e+02
105             	3.15548492e+02
106             	3.15590905e+02
107             	3.15632896e+02
108             	3.15673255e+02
109             	3.15715330e+02
110             	3.15758126e+02
111             	3.15802486e+02
112             	3.15847169e+02
113             	3.15889781e+02
114             	3.15930258e+02
115             	3.15969192e+02
116             	3.16004250e+02
117             	3.16036514e+02
118             	3.16066670e+02
119             	3.16095599e+02
120             	3.16124782e+02
121             	3.16154847e+02
122             	3.16185881e+02
123             	3.16218871e+02
124             	3.16253126e+02
125             	3.16286029e+02
126             	3.16318173e+02
127             	3.16348190e+02
128             	3.16376708e+02
129             	3.16403146e+02
130             	3.16427673e+02
131             	3.16451569e+02
132             	3.16475047e+02
133             	3.16499569e+02
134             	3.16525308e+02
135             	3.16551220e+02
136             	3.16577232e+02
137             	3.16603480e+02
138             	3.16628823e+02
139             	3.16650859e+02
140             	3.16671319e+02
141             	3.16689439e+02
142             	3.16706708e+02
143             	3.16723602e+02
144             	3.16740609e+02
145             	3.16758656e+02
146             	3.16778738e+02
147             	3.16800713e+02
148             	3.16823196e+02
149             	3.16845532e+02
150             	3.16867187e+02
151             	3.16887097e+02
152             	3.16903594e+02
153             	3.16917914e+02
154             	3.16930391e+02
155             	3.16941721e+02
156             	3.16952783e+02
157             	3.16964297e+02
158             	3.16977592e+02
159             	3.16993451e+02
160             	3.17009858e+02
161             	3.17027041e+02
162             	3.17043517e+02
163             	3.17059521e+02
164             	3.17073812e+02
165             	3.17086012e+02
166             	3.17096637e+02
167             	3.17106946e+02
168             	3.17116973e+02
169             	3.17127906e+02
170             	3.17139997e+02
171             	3.17153130e+02
172             	3.17166312e+02
173             	3.17179651e+02
174             	3.17193080e+02
175             	3.17204510e+02
176             	3.17215036e+02
177             	3.17224441e+02
178             	3.17233140e+02
179             	3.17241428e+02
180             	3.17249283e+02
181             	3.17257898e+02
182             	3.17266521e+02
183             	3.17276041e+02
184             	3.17286417e+02
185             	3.17297126e+02
186             	3.17308043e+02
187             	3.17318254e+02
188             	3.17328049e+02
189             	3.17337053e+02
190             	3.17344801e+02
191             	3.17351713e+02
192             	3.17357902e+02
193             	3.17363965e+02
194             	3.17370543e+02
195             	3.17377663e+02
196             	3.17385431e+02
197             	3.17393660e+02
198             	3.17402071e+02
199             	3.17410022e+02
200             	3.17417610e+02
201             	3.17424652e+02
202             	3.17430790e+02
203             	3.17436265e+02
204             	3.17441191e+02
205             	3.17446095e+02
206             	3.17451228e+02
207             	3.17456545e+02
208             	3.17462446e+02
209             	3.17468767e+02
210             	3.17475467e+02
211             	3.17482176e+02
212             	3.17488705e+02
213             	3.17494917e+02
214             	3.17500675e+02
215             	3.17505885e+02
216             	3.17510460e+02
217             	3.17514632e+02
218             	3.17518778e+02
219             	3.17522789e+02
220             	3.17526918e+02
221             	3.17531373e+02
222             	3.17536136e+02
223             	3.17541074e+02
224             	3.17546159e+02
225             	3.17551204e+02
226             	3.17555768e+02
227             	3.17560011e+02
228             	3.17564087e+02
229             	3.17567780e+02
230             	3.17571103e+02
231             	3.17574241e+02
232             	3.17577559e+02
233             	3.17581103e+02
234             	3.17584835e+02
235             	3.17588850e+02
236             	3.17593094e+02
237             	3.17597411e+02
238             	3.17601249e+02
239             	3.17604838e+02
240             	3.17608129e+02
241             	3.17610966e+02
242             	3.17613419e+02
243             	3.17615652e+02
244             	3.17618100e+02
245             	3.17620631e+02
246             	3.17623339e+02
247             	3.17626258e+02
248             	3.17629395e+02
249             	3.17632627e+02
250             	3.17635790e+02
251             	3.17638818e+02
252             	3.17641598e+02
253             	3.17644182e+02
254             	3.17646616e+02
255             	3.17648931e+02
256             	3.17651177e+02
257             	3.17653395e+02
258             	3.17655589e+02
259             	3.17657774e+02
260             	3.17660002e+02
261             	3.17662335e+02
262             	3.17664700e+02
263             	3.17667178e+02
264             	3.17669618e+02
265             	3.17672008e+02
266             	3.17674278e+02
267             	3.17676455e+02
268             	3.17678514e+02
269             	3.17680483e+02
270             	3.17682355e+02
271             	3.17684116e+02
272             	3.17685837e+02
273             	3.17687582e+02
274             	3.17689360e+02
275             	3.17691199e+02
276             	3.17693117e+02
277             	3.17695051e+02
278             	3.17697028e+02
279             	3.17699003e+02
280             	3.17700917e+02
281             	3.17702808e+02
282             	3.17704612e+02
283             	3.17706345e+02
284             	3.17708058e+02
285             	3.17709688e+02
286             	3.17711247e+02
287             	3.17712779e+02
288             	3.17714277e+02
289             	3.17715775e+02
290             	3.17717256e+02
291             	3.17718791e+02
292             	3.17720350e+02
293             	3.17721864e+02
294             	3.17723362e+02
295             	3.17724825e+02
296             	3.17726273e+02
297             	3.17727708e+02
298             	3.17729092e+02
299             	3.17730395e+02
300             	3.17731695e+02
301             	3.17733024e+02
302             	3.17734347e+02
303             	3.17735674e+02
304             	3.17737023e+02
305             	3.17738357e+02
306             	3.17739691e+02
307             	3.17741016e+02
308             	3.17742314e+02
309             	3.17743587e+02
310             	3.17744834e+02
311             	3.17746049e+02
312             	3.17747234e+02
313             	3.17748391e+02
314             	3.17749524e+02
315             	3.17750642e+02
316             	3.17751752e+02
317             	3.17752865e+02
318             	3.17753980e+02
319             	3.17755105e+02
320             	3.17756226e+02
321             	3.17757352e+02
322             	3.17758472e+02
323             	3.17759585e+02
324             	3.17760698e+02
325             	3.17761801e+02
326             	3.17762887e+02
327             	3.17763954e+02
328             	3.17764981e+02
329             	3.17766002e+02
330             	3.17767004e+02
331             	3.17767987e+02
332             	3.17768966e+02
333             	3.17769934e+02
334             	3.17770898e+02
335             	3.17771866e+02
336             	3.17772833e+02
337             	3.17773803e+02
338             	3.17774774e+02
339             	3.17775732e+02
340             	3.17776682e+02
341             	3.17777633e+02
342             	3.17778580e+02
343             	3.17779518e+02
344             	3.17780447e+02
345             	3.17781349e+02
346             	3.17782239e+02
347             	3.17783124e+02
348             	3.17783997e+02
349             	3.17784858e+02
350             	3.17785714e+02
351             	3.17786566e+02
352             	3.17787412e+02
353             	3.17788254e+02
354             	3.17789106e+02
355             	3.17789952e+02
356             	3.17790801e+02
357             	3.17791657e+02
358             	3.17792513e+02
359             	3.17793369e+02
360             	3.17794220e+02
361             	3.17795060e+02
362             	3.17795880e+02
363             	3.17796685e+02
364             	3.17797480e+02
365             	3.17798254e+02
366             	3.17799021e+02
367             	3.17799782e+02
368             	3.17800545e+02
369             	3.17801307e+02
370             	3.17802072e+02
371             	3.17802841e+02
372             	3.17803608e+02
373             	3.17804376e+02
374             	3.17805146e+02
375             	3.17805905e+02
376             	3.17806665e+02
377             	3.17807420e+02
378             	3.17808168e+02
379             	3.17808912e+02
380             	3.17809653e+02
381             	3.17810392e+02
382             	3.17811126e+02
383             	3.17811859e+02
384             	3.17812588e+02
385             	3.17813312e+02
386             	3.17814029e+02
387             	3.17814741e+02
388             	3.17815445e+02
389             	3.17816145e+02
390             	3.17816841e+02
391             	3.17817533e+02
392             	3.17818221e+02
393             	3.17818909e+02
394             	3.17819595e+02
395             	3.17820281e+02
396             	3.17820967e+02
397             	3.17821654e+02
398             	3.17822340e+02
399             	3.17823029e+02
400             	3.17823713e+02
401             	3.17824395e+02
402             	3.17825076e+02
403             	3.17825752e+02
404             	3.17826427e+02
405             	3.17827101e+02
406             	3.17827773e+02
407             	3.17828440e+02
408             	3.17829106e+02
409             	3.17829766e+02
410             	3.17830425e+02
411             	3.17831081e+02
412             	3.17831733e+02
413             	3.17832380e+02
414             	3.17833025e+02
415             	3.17833670e+02
416             	3.17834311e+02
417             	3.17834950e+02
418             	3.17835590e+02
419             	3.17836231e+02
420             	3.17836871e+02
421             	3.17837509e+02
422             	3.17838146e+02
423             	3.17838783e+02
424             	3.17839420e+02
425             	3.17840054e+02
426             	3.17840686e+02
427             	3.17841314e+02
428             	3.17841937e+02
429             	3.17842559e+02
430             	3.17843178e+02
431             	3.17843797e+02
432             	3.17844416e+02
433             	3.17845035e+02
434             	3.17845653e+02
435             	3.17846272e+02
436             	3.17846889e+02
437             	3.17847500e+02
438             	3.17848110e+02
439             	3.17848716e+02
440             	3.17849321e+02
441             	3.17849921e+02
442             	3.17850520e+02
443             	3.17851124e+02
444             	3.17851727e+02
445             	3.17852329e+02
446             	3.17852933e+02
447             	3.17853538e+02
448             	3.17854137e+02
449             	3.17854738e+02
450             	3.17855340e+02
451             	3.17855937e+02
452             	3.17856529e+02
453             	3.17857118e+02
454             	3.17857705e+02
455             	3.17858292e+02
456             	3.17858877e+02
457             	3.17859462e+02
458             	3.17860048e+02
459             	3.17860634e+02
460             	3.17861219e+02
461             	3.17861805e+02
462             	3.17862392e+02
463             	3.17862978e+02
464             	3.17863562e+02
465             	3.17864143e+02
466             	3.17864723e+02
467             	3.17865302e+02
468             	3.17865877e+02
469             	3.17866452e+02
470             	3.17867026e+02
471             	3.17867599e+02
472             	3.17868171e+02
473             	3.17868746e+02
474             	3.17869321e+02
475             	3.17869890e+02
476             	3.17870461e+02
477             	3.17871031e+02
478             	3.17871596e+02
479             	3.17872157e+02
480             	3.17872713e+02
481             	3.17873269e+02
482             	3.17873823e+02
483             	3.17874380e+02
484             	3.17874937e+02
485             	3.17875496e+02
486             	3.17876058e+02
487             	3.17876620e+02
488             	3.17877186e+02
489             	3.17877752e+02
490             	3.17878317e+02
491             	3.17878879e+02
492             	3.17879438e+02
493             	3.17879991e+02
494             	3.17880544e+02
495             	3.17881096e+02
496             	3.17881646e+02
497             	3.17882195e+02
498             	3.17882744e+02
499             	3.17883294e+02
500             	3.17883844e+02
501             	3.17884394e+02
502             	3.17884943e+02
503             	3.17885491e+02
504             	3.17886038e+02
505             	3.17886584e+02
506             	3.17887127e+02
507             	3.17887668e+02
508             	3.17888208e+02
509             	3.17888748e+02
510             	3.17889286e+02
511             	3.17889825e+02
512             	3.17890363e+02
513             	3.17890905e+02
514             	3.17891447e+02
515             	3.17891991e+02
516             	3.17892533e+02
517             	3.17893075e+02
518             	3.17893617e+02
519             	3.17894155e+02
520             	3.17894685e+02
521             	3.17895216e+02
522             	3.17895747e+02
523             	3.17896275e+02
524             	3.17896804e+02
525             	3.17897331e+02
526             	3.17897860e+02
527             	3.17898388e+02
528             	3.17898917e+02
529             	3.17899448e+02
530             	3.17899979e+02
531             	3.17900512e+02
532             	3.17901043e+02
533             	3.17901574e+02
534             	3.17902103e+02
535             	3.17902629e+02
536             	3.17903155e+02
537             	3.17903679e+02
538             	3.17904200e+02
539             	3.17904721e+02
540             	3.17905239e+02
541             	3.17905756e+02
542             	3.17906273e+02
543             	3.17906791e+02
544             	3.17907309e+02
545             	3.17907826e+02
546             	3.17908342e+02
547             	3.17908855e+02
548             	3.17909370e+02
549             	3.17909881e+02
550             	3.17910392e+02
551             	3.17910903e+02
552             	3.17911413e+02
553             	3.17911922e+02
554             	3.17912432e+02
555             	3.17912941e+02
556             	3.17913451e+02
557             	3.17913961e+02
558             	3.17914471e+02
559             	3.17914980e+02
560             	3.17915488e+02
561             	3.17915994e+02
562             	3.17916499e+02
563             	3.17917002e+02
564             	3.17917503e+02
565             	3.17918002e+02
566             	3.17918501e+02
567             	3.17918999e+02
568             	3.17919497e+02
569             	3.17919995e+02
570             	3.17920493e+02
571             	3.17920993e+02
572             	3.17921493e+02
573             	3.17921995e+02
574             	3.17922496e+02
575             	3.17922998e+02
576             	3.17923498e+02
577             	3.17923995e+02
578             	3.17924493e+02
579             	3.17924988e+02
580             	3.17925483e+02
581             	3.17925979e+02
582             	3.17926473e+02
583             	3.17926968e+02
584             	3.17927462e+02
585             	3.17927956e+02
586             	3.17928451e+02
587             	3.17928946e+02
588             	3.17929442e+02
589             	3.17929938e+02
590             	3.17930433e+02
591             	3.17930928e+02
592             	3.17931421e+02
593             	3.17931915e+02
594             	3.17932408e+02
595             	3.17932900e+02
596             	3.17933391e+02
597             	3.17933881e+02
598             	3.17934371e+02
599             	3.17934860e+02
600             	3.17935348e+02
601             	3.17935835e+02
602             	3.17936321e+02
603             	3.17936806e+02
604             	3.17937289e+02
605             	3.17937771e+02
606             	3.17938252e+02
607             	3.17938731e+02
608             	3.17939209e+02
609             	3.17939687e+02
610             	3.17940164e+02
611             	3.17940641e+02
612             	3.17941118e+02
613             	3.17941594e+02
614             	3.17942069e+02
615             	3.17942543e+02
616             	3.17943017e+02
617             	3.17943490e+02
618             	3.17943964e+02
619             	3.17944436e+02
620             	3.17944907e+02
621             	3.17945377e+02
