# Region        : cellZone component_3
# Cells         : 147
# Volume        : 2.63406138e-01
# Time          	volAverage(T)
1               	3.00369302e+02
2               	3.00733278e+02
3               	3.01064350e+02
4               	3.01376534e+02
5               	3.01681499e+02
6               	3.01982169e+02
7               	3.02278840e+02
8               	3.02571551e+02
9               	3.02860697e+02
10              	3.03147318e+02
11              	3.03430543e+02
12              	3.03711051e+02
13              	3.03990727e+02
14              	3.04271683e+02
15              	3.04554474e+02
16              	3.04836571e+02
17              	3.05118190e+02
18              	3.05392579e+02
19              	3.05658972e+02
20              	3.05917998e+02
21              	3.06168914e+02
22              	3.06411906e+02
23              	3.06647437e+02
24              	3.06873666e+02
25              	3.07092598e+02
26              	3.07305175e+02
27              	3.07515534e+02
28              	3.07725421e+02
29              	3.07940560e+02
30              	3.08146215e+02
31              	3.08325692e+02
32              	3.08495313e+02
33              	3.08675766e+02
34              	3.08862736e+02
35              	3.09041176e+02
36              	3.09211249e+02
37              	3.09377301e+02
38              	3.09539286e+02
39              	3.09699496e+02
40              	3.09856092e+02
41              	3.10009615e+02
42              	3.10160384e+02
43              	3.10326609e+02
44              	3.10484120e+02
45              	3.10642868e+02
46              	3.10800404e+02
47              	3.10963227e+02
48              	3.11115819e+02
49              	3.11260738e+02
50              	3.11390636e+02
51              	3.11512647e+02
52              	3.11629961e+02
53              	3.11753002e+02
54              	3.11886245e+02
55              	3.11999671e+02
56              	3.12087936e+02
57              	3.12176826e+02
58              	3.12277754e+02
59              	3.12391623e+02
60              	3.12504542e+02
61              	3.12608257e+02
62              	3.12709858e+02
63              	3.12805007e+02
64              	3.12904740e+02
65              	3.13006292e+02
66              	3.13106045e+02
67              	3.13206232e+02
68              	3.13315402e+02
69              	3.13434056e+02
70              	3.13555198e+02
71              	3.13679152e+02
72              	3.13798497e+02
73              	3.13906285e+02
74              	3.14009992e+02
75              	3.14105588e+02
76              	3.14201415e+02
77              	3.14293462e+02
78              	3.14382163e+02
79              	3.14472150e+02
80              	3.14565823e+02
81              	3.14659175e+02
82              	3.14753360e+02
83              	3.14849840e+02
84              	3.14946801e+02
85              	3.15044864e+02
86              	3.15141000e+02
87              	3.15239608e+02
88              	3.15337004e+02
89              	3.15433509e+02
90              	3.15529782e+02
91              	3.15624051e+02
92              	3.15717041e+02
93              	3.15807757e+02
94              	3.15896250e+02
95              	3.15981985e+02
96              	3.16064400e+02
97              	3.16146196e+02
98              	3.16229272e+02
99              	3.16313604e+02
100             	3.16398572e+02
101             	3.16485561e+02
102             	3.16572703e+02
103             	3.16659911e+02
104             	3.16746125e+02
105             	3.16833015e+02
106             	3.16915731e+02
107             	3.16996548e+02
108             	3.17075762e+02
109             	3.17153340e+02
110             	3.17230593e+02
111             	3.17308293e+02
112             	3.17386757e+02
113             	3.17465768e+02
114             	3.17544483e+02
115             	3.17622519e+02
116             	3.17699128e+02
117             	3.17772992e+02
118             	3.17845366e+02
119             	3.17915808e+02
120             	3.17984902e+02
121             	3.18053058e+02
122             	3.18120285e+02
123             	3.18185418e+02
124             	3.18251588e+02
125             	3.18318861e+02
126             	3.18386546e+02
127             	3.18453338e+02
128             	3.18519365e+02
129             	3.18584230e+02
130             	3.18647533e+02
131             	3.18710032e+02
132             	3.18771907e+02
133             	3.18832996e+02
134             	3.18888676e+02
135             	3.18945249e+02
136             	3.19002423e+02
137             	3.19059035e+02
138             	3.19113792e+02
139             	3.19167579e+02
140             	3.19221135e+02
141             	3.19274773e+02
142             	3.19327087e+02
143             	3.19378074e+02
144             	3.19427482e+02
145             	3.19475586e+02
146             	3.19522076e+02
147             	3.19566909e+02
148             	3.19610383e+02
149             	3.19652739e+02
150             	3.19694797e+02
151             	3.19737250e+02
152             	3.19780229e+02
153             	3.19823464e+02
154             	3.19866232e+02
155             	3.19908833e+02
156             	3.19950801e+02
157             	3.19992005e+02
158             	3.20032072e+02
159             	3.20071485e+02
160             	3.20110506e+02
161             	3.20148781e+02
162             	3.20187108e+02
163             	3.20225347e+02
164             	3.20264492e+02
165             	3.20304802e+02
166             	3.20346139e+02
167             	3.20387153e+02
168             	3.20427835e+02
169             	3.20468729e+02
170             	3.20508819e+02
171             	3.20545766e+02
172             	3.20582647e+02
173             	3.20618386e+02
174             	3.20650926e+02
175             	3.20680714e+02
176             	3.20708159e+02
177             	3.20733505e+02
178             	3.20757640e+02
179             	3.20780256e+02
180             	3.20802536e+02
181             	3.20824453e+02
182             	3.20845274e+02
183             	3.20866590e+02
184             	3.20889601e+02
185             	3.20914055e+02
186             	3.20939683e+02
187             	3.20965862e+02
188             	3.20992280e+02
189             	3.21018825e+02
190             	3.21044884e+02
191             	3.21070346e+02
192             	3.21094475e+02
193             	3.21117683e+02
194             	3.21140059e+02
195             	3.21161558e+02
196             	3.21182556e+02
197             	3.21202845e+02
198             	3.21222535e+02
199             	3.21241370e+02
200             	3.21259454e+02
201             	3.21277231e+02
202             	3.21294635e+02
203             	3.21311796e+02
204             	3.21328952e+02
205             	3.21346473e+02
206             	3.21364055e+02
207             	3.21381630e+02
208             	3.21399268e+02
209             	3.21416905e+02
210             	3.21434844e+02
211             	3.21452770e+02
212             	3.21470608e+02
213             	3.21488452e+02
214             	3.21506591e+02
215             	3.21524782e+02
216             	3.21541999e+02
217             	3.21559291e+02
218             	3.21577190e+02
219             	3.21594793e+02
220             	3.21611435e+02
221             	3.21627351e+02
222             	3.21642318e+02
223             	3.21655909e+02
224             	3.21668759e+02
225             	3.21680675e+02
226             	3.21692284e+02
227             	3.21703682e+02
228             	3.21714866e+02
229             	3.21726541e+02
230             	3.21738245e+02
231             	3.21749691e+02
232             	3.21760650e+02
233             	3.21771589e+02
234             	3.21782405e+02
235             	3.21792977e+02
236             	3.21803274e+02
237             	3.21813406e+02
238             	3.21823713e+02
239             	3.21833975e+02
240             	3.21844163e+02
241             	3.21854310e+02
242             	3.21864311e+02
243             	3.21874028e+02
244             	3.21883616e+02
245             	3.21892877e+02
246             	3.21901989e+02
247             	3.21910939e+02
248             	3.21919913e+02
249             	3.21928894e+02
250             	3.21937950e+02
251             	3.21947056e+02
252             	3.21956216e+02
253             	3.21965447e+02
254             	3.21974741e+02
255             	3.21983957e+02
256             	3.21993125e+02
257             	3.22002255e+02
258             	3.22011317e+02
259             	3.22020330e+02
260             	3.22029285e+02
261             	3.22038024e+02
262             	3.22046551e+02
263             	3.22054806e+02
264             	3.22062723e+02
265             	3.22070243e+02
266             	3.22077164e+02
267             	3.22083632e+02
268             	3.22089933e+02
269             	3.22095952e+02
270             	3.22101610e+02
271             	3.22106985e+02
272             	3.22111922e+02
273             	3.22116623e+02
274             	3.22120964e+02
275             	3.22125278e+02
276             	3.22129687e+02
277             	3.22134232e+02
278             	3.22138853e+02
279             	3.22143445e+02
280             	3.22148514e+02
281             	3.22153948e+02
282             	3.22159517e+02
283             	3.22165181e+02
284             	3.22170856e+02
285             	3.22176487e+02
286             	3.22181777e+02
287             	3.22186772e+02
288             	3.22191373e+02
289             	3.22195688e+02
290             	3.22199939e+02
291             	3.22204072e+02
292             	3.22208192e+02
293             	3.22212168e+02
294             	3.22216109e+02
295             	3.22220199e+02
296             	3.22224118e+02
297             	3.22228077e+02
298             	3.22232165e+02
299             	3.22236207e+02
300             	3.22240237e+02
301             	3.22244330e+02
302             	3.22248292e+02
303             	3.22252296e+02
304             	3.22256334e+02
305             	3.22260465e+02
306             	3.22264668e+02
307             	3.22268978e+02
308             	3.22273399e+02
309             	3.22277871e+02
310             	3.22282375e+02
311             	3.22286872e+02
312             	3.22291173e+02
313             	3.22295309e+02
314             	3.22299305e+02
315             	3.22303127e+02
316             	3.22306736e+02
317             	3.22310138e+02
318             	3.22313317e+02
319             	3.22316499e+02
320             	3.22319408e+02
321             	3.22322328e+02
322             	3.22325259e+02
323             	3.22328222e+02
324             	3.22331617e+02
325             	3.22334886e+02
326             	3.22338214e+02
327             	3.22341400e+02
328             	3.22344493e+02
329             	3.22347202e+02
330             	3.22349921e+02
331             	3.22352594e+02
332             	3.22354893e+02
333             	3.22357294e+02
334             	3.22359815e+02
335             	3.22362634e+02
336             	3.22365355e+02
337             	3.22368429e+02
338             	3.22371379e+02
339             	3.22374220e+02
340             	3.22376864e+02
341             	3.22379296e+02
342             	3.22381543e+02
343             	3.22383763e+02
344             	3.22385973e+02
345             	3.22388135e+02
346             	3.22390318e+02
347             	3.22392654e+02
348             	3.22395093e+02
349             	3.22397399e+02
350             	3.22399768e+02
351             	3.22402200e+02
352             	3.22404553e+02
353             	3.22406802e+02
354             	3.22409017e+02
355             	3.22411288e+02
356             	3.22413709e+02
357             	3.22416243e+02
358             	3.22418854e+02
359             	3.22421354e+02
360             	3.22423807e+02
361             	3.22426295e+02
362             	3.22428671e+02
363             	3.22430911e+02
364             	3.22433199e+02
365             	3.22435265e+02
366             	3.22436830e+02
367             	3.22438112e+02
368             	3.22439297e+02
369             	3.22440502e+02
370             	3.22441812e+02
371             	3.22443210e+02
372             	3.22444803e+02
373             	3.22446635e+02
374             	3.22448688e+02
375             	3.22450763e+02
376             	3.22452992e+02
377             	3.22455423e+02
378             	3.22457837e+02
379             	3.22460169e+02
380             	3.22462388e+02
381             	3.22464407e+02
382             	3.22466219e+02
383             	3.22467857e+02
384             	3.22469336e+02
385             	3.22470597e+02
386             	3.22471834e+02
387             	3.22473109e+02
388             	3.22474427e+02
389             	3.22475748e+02
390             	3.22477151e+02
391             	3.22478632e+02
392             	3.22480125e+02
393             	3.22481591e+02
394             	3.22482934e+02
395             	3.22484244e+02
396             	3.22485628e+02
397             	3.22487062e+02
398             	3.22488534e+02
399             	3.22489994e+02
400             	3.22491367e+02
401             	3.22492725e+02
402             	3.22494090e+02
403             	3.22495357e+02
404             	3.22496559e+02
405             	3.22497854e+02
406             	3.22499248e+02
407             	3.22500705e+02
408             	3.22502211e+02
409             	3.22503752e+02
410             	3.22505355e+02
411             	3.22506991e+02
412             	3.22508631e+02
413             	3.22510399e+02
414             	3.22512097e+02
415             	3.22513702e+02
416             	3.22515211e+02
417             	3.22516566e+02
418             	3.22517833e+02
419             	3.22518984e+02
420             	3.22520174e+02
421             	3.22521337e+02
422             	3.22522504e+02
423             	3.22523675e+02
424             	3.22524952e+02
425             	3.22526278e+02
426             	3.22527600e+02
427             	3.22528876e+02
428             	3.22529991e+02
429             	3.22531159e+02
430             	3.22532251e+02
431             	3.22533383e+02
432             	3.22534515e+02
433             	3.22535527e+02
434             	3.22536553e+02
435             	3.22537577e+02
436             	3.22538530e+02
437             	3.22539434e+02
438             	3.22540336e+02
439             	3.22541250e+02
440             	3.22542229e+02
441             	3.22543177e+02
442             	3.22544144e+02
443             	3.22545148e+02
444             	3.22546129e+02
445             	3.22547039e+02
446             	3.22547974e+02
447             	3.22548999e+02
448             	3.22550108e+02
449             	3.22551208e+02
450             	3.22552253e+02
451             	3.22553354e+02
452             	3.22554436e+02
453             	3.22555390e+02
454             	3.22556251e+02
455             	3.22557068e+02
456             	3.22557825e+02
457             	3.22558543e+02
458             	3.22559314e+02
459             	3.22560175e+02
460             	3.22561061e+02
461             	3.22561968e+02
462             	3.22562912e+02
463             	3.22563891e+02
464             	3.22564860e+02
465             	3.22565769e+02
466             	3.22566648e+02
467             	3.22567529e+02
468             	3.22568412e+02
469             	3.22569298e+02
470             	3.22570158e+02
471             	3.22571023e+02
472             	3.22571878e+02
473             	3.22572712e+02
474             	3.22573523e+02
475             	3.22574312e+02
476             	3.22575090e+02
477             	3.22575845e+02
478             	3.22576582e+02
479             	3.22577344e+02
480             	3.22578102e+02
481             	3.22578867e+02
482             	3.22579641e+02
483             	3.22580424e+02
484             	3.22581211e+02
485             	3.22581983e+02
486             	3.22582710e+02
487             	3.22583392e+02
488             	3.22584021e+02
489             	3.22584592e+02
490             	3.22585134e+02
491             	3.22585686e+02
492             	3.22586281e+02
493             	3.22586911e+02
494             	3.22587634e+02
495             	3.22588419e+02
496             	3.22589253e+02
497             	3.22590133e+02
498             	3.22591049e+02
499             	3.22591953e+02
500             	3.22592825e+02
501             	3.22593676e+02
502             	3.22594468e+02
503             	3.22595222e+02
504             	3.22595924e+02
505             	3.22596575e+02
506             	3.22597181e+02
507             	3.22597780e+02
508             	3.22598348e+02
509             	3.22598914e+02
510             	3.22599507e+02
511             	3.22600120e+02
512             	3.22600724e+02
513             	3.22601303e+02
514             	3.22601854e+02
515             	3.22602373e+02
516             	3.22602867e+02
517             	3.22603336e+02
518             	3.22603786e+02
519             	3.22604220e+02
520             	3.22604647e+02
521             	3.22605050e+02
522             	3.22605452e+02
523             	3.22605881e+02
524             	3.22606316e+02
525             	3.22606782e+02
526             	3.22607287e+02
527             	3.22607839e+02
528             	3.22608451e+02
529             	3.22609102e+02
530             	3.22609781e+02
531             	3.22610463e+02
532             	3.22611129e+02
533             	3.22611775e+02
534             	3.22612405e+02
535             	3.22613011e+02
536             	3.22613596e+02
537             	3.22614117e+02
538             	3.22614577e+02
539             	3.22614996e+02
540             	3.22615400e+02
541             	3.22615798e+02
542             	3.22616186e+02
543             	3.22616570e+02
544             	3.22616988e+02
545             	3.22617450e+02
546             	3.22617958e+02
547             	3.22618516e+02
548             	3.22619104e+02
549             	3.22619748e+02
550             	3.22620420e+02
551             	3.22621102e+02
552             	3.22621787e+02
553             	3.22622465e+02
554             	3.22623120e+02
555             	3.22623736e+02
556             	3.22624314e+02
557             	3.22624854e+02
558             	3.22625356e+02
559             	3.22625816e+02
560             	3.22626229e+02
561             	3.22626593e+02
562             	3.22626917e+02
563             	3.22627214e+02
564             	3.22627491e+02
565             	3.22627754e+02
566             	3.22628013e+02
567             	3.22628254e+02
568             	3.22628496e+02
569             	3.22628750e+02
570             	3.22629014e+02
571             	3.22629291e+02
572             	3.22629593e+02
573             	3.22629915e+02
574             	3.22630253e+02
575             	3.22630562e+02
576             	3.22630898e+02
577             	3.22631254e+02
578             	3.22631620e+02
579             	3.22632007e+02
580             	3.22632368e+02
581             	3.22632709e+02
582             	3.22633038e+02
583             	3.22633367e+02
584             	3.22633681e+02
585             	3.22633991e+02
586             	3.22634310e+02
587             	3.22634645e+02
588             	3.22634992e+02
589             	3.22635339e+02
590             	3.22635723e+02
591             	3.22636133e+02
592             	3.22636561e+02
593             	3.22637003e+02
594             	3.22637456e+02
595             	3.22637912e+02
596             	3.22638372e+02
597             	3.22638843e+02
598             	3.22639316e+02
599             	3.22639797e+02
600             	3.22640286e+02
601             	3.22640774e+02
602             	3.22641257e+02
603             	3.22641743e+02
604             	3.22642228e+02
605             	3.22642702e+02
606             	3.22643158e+02
607             	3.22643597e+02
608             	3.22644021e+02
609             	3.22644431e+02
610             	3.22644823e+02
611             	3.22645202e+02
612             	3.22645570e+02
613             	3.22645935e+02
614             	3.22646296e+02
615             	3.22646648e+02
616             	3.22646990e+02
617             	3.22647326e+02
618             	3.22647659e+02
619             	3.22647999e+02
620             	3.22648343e+02
621             	3.22648689e+02
