# Region        : cellZone fluid
# Cells         : 8715
# Volume        : 1.70374078e+01
# Time          	volAverage(T)
1               	3.00000237e+02
2               	3.00000478e+02
3               	3.00002026e+02
4               	3.00004581e+02
5               	3.00006506e+02
6               	3.00008688e+02
7               	3.00011041e+02
8               	3.00013560e+02
9               	3.00016296e+02
10              	3.00019730e+02
11              	3.00023249e+02
12              	3.00026339e+02
13              	3.00030364e+02
14              	3.00033915e+02
15              	3.00038570e+02
16              	3.00042000e+02
17              	3.00046394e+02
18              	3.00051530e+02
19              	3.00057759e+02
20              	3.00063762e+02
21              	3.00070464e+02
22              	3.00075791e+02
23              	3.00080222e+02
24              	3.00084726e+02
25              	3.00089369e+02
26              	3.00094198e+02
27              	3.00099644e+02
28              	3.00106027e+02
29              	3.00113232e+02
30              	3.00121719e+02
31              	3.00128251e+02
32              	3.00136947e+02
33              	3.00146224e+02
34              	3.00150722e+02
35              	3.00156721e+02
36              	3.00167508e+02
37              	3.00174421e+02
38              	3.00180713e+02
39              	3.00187623e+02
40              	3.00195029e+02
41              	3.00201215e+02
42              	3.00207230e+02
43              	3.00214836e+02
44              	3.00225366e+02
45              	3.00233624e+02
46              	3.00241449e+02
47              	3.00247119e+02
48              	3.00255619e+02
49              	3.00261719e+02
50              	3.00266580e+02
51              	3.00272397e+02
52              	3.00279135e+02
53              	3.00285369e+02
54              	3.00292282e+02
55              	3.00300229e+02
56              	3.00309354e+02
57              	3.00318418e+02
58              	3.00327283e+02
59              	3.00334736e+02
60              	3.00343002e+02
61              	3.00353075e+02
62              	3.00360796e+02
63              	3.00366870e+02
64              	3.00372018e+02
65              	3.00377855e+02
66              	3.00384959e+02
67              	3.00389453e+02
68              	3.00394063e+02
69              	3.00401677e+02
70              	3.00408064e+02
71              	3.00412791e+02
72              	3.00420325e+02
73              	3.00427273e+02
74              	3.00433958e+02
75              	3.00440041e+02
76              	3.00446454e+02
77              	3.00452397e+02
78              	3.00458517e+02
79              	3.00464964e+02
80              	3.00474157e+02
81              	3.00480439e+02
82              	3.00487787e+02
83              	3.00494809e+02
84              	3.00503626e+02
85              	3.00509799e+02
86              	3.00511879e+02
87              	3.00516302e+02
88              	3.00520511e+02
89              	3.00525847e+02
90              	3.00532460e+02
91              	3.00536146e+02
92              	3.00541989e+02
93              	3.00546184e+02
94              	3.00553036e+02
95              	3.00558351e+02
96              	3.00563540e+02
97              	3.00570677e+02
98              	3.00576620e+02
99              	3.00582413e+02
100             	3.00589623e+02
101             	3.00596007e+02
102             	3.00600016e+02
103             	3.00601917e+02
104             	3.00604882e+02
105             	3.00609252e+02
106             	3.00614637e+02
107             	3.00621213e+02
108             	3.00626180e+02
109             	3.00630739e+02
110             	3.00634896e+02
111             	3.00639786e+02
112             	3.00642461e+02
113             	3.00645361e+02
114             	3.00646779e+02
115             	3.00651635e+02
116             	3.00653048e+02
117             	3.00654478e+02
118             	3.00656202e+02
119             	3.00658878e+02
120             	3.00662929e+02
121             	3.00665397e+02
122             	3.00669753e+02
123             	3.00674126e+02
124             	3.00679285e+02
125             	3.00684910e+02
126             	3.00687935e+02
127             	3.00692869e+02
128             	3.00697740e+02
129             	3.00701657e+02
130             	3.00705113e+02
131             	3.00708086e+02
132             	3.00710687e+02
133             	3.00712831e+02
134             	3.00715075e+02
135             	3.00717142e+02
136             	3.00718356e+02
137             	3.00720327e+02
138             	3.00722184e+02
139             	3.00724587e+02
140             	3.00726312e+02
141             	3.00728850e+02
142             	3.00730907e+02
143             	3.00733023e+02
144             	3.00734636e+02
145             	3.00736373e+02
146             	3.00739054e+02
147             	3.00739905e+02
148             	3.00741086e+02
149             	3.00743112e+02
150             	3.00744902e+02
151             	3.00747095e+02
152             	3.00750246e+02
153             	3.00752933e+02
154             	3.00755358e+02
155             	3.00757948e+02
156             	3.00760388e+02
157             	3.00762336e+02
158             	3.00764985e+02
159             	3.00763812e+02
160             	3.00766241e+02
161             	3.00768104e+02
162             	3.00768424e+02
163             	3.00769042e+02
164             	3.00769611e+02
165             	3.00772208e+02
166             	3.00771454e+02
167             	3.00771792e+02
168             	3.00771563e+02
169             	3.00773054e+02
170             	3.00774494e+02
171             	3.00776049e+02
172             	3.00778055e+02
173             	3.00779585e+02
174             	3.00781945e+02
175             	3.00785524e+02
176             	3.00788585e+02
177             	3.00791584e+02
178             	3.00794220e+02
179             	3.00796615e+02
180             	3.00798503e+02
181             	3.00798581e+02
182             	3.00799501e+02
183             	3.00799494e+02
184             	3.00798567e+02
185             	3.00797625e+02
186             	3.00797780e+02
187             	3.00797113e+02
188             	3.00797310e+02
189             	3.00797631e+02
190             	3.00797740e+02
191             	3.00797804e+02
192             	3.00799228e+02
193             	3.00800224e+02
194             	3.00801059e+02
195             	3.00802206e+02
196             	3.00803587e+02
197             	3.00804239e+02
198             	3.00805037e+02
199             	3.00806377e+02
200             	3.00807590e+02
201             	3.00808842e+02
202             	3.00808606e+02
203             	3.00808042e+02
204             	3.00809665e+02
205             	3.00810665e+02
206             	3.00811250e+02
207             	3.00811532e+02
208             	3.00811634e+02
209             	3.00811387e+02
210             	3.00812667e+02
211             	3.00811173e+02
212             	3.00811057e+02
213             	3.00811014e+02
214             	3.00811496e+02
215             	3.00811737e+02
216             	3.00812382e+02
217             	3.00812861e+02
218             	3.00813257e+02
219             	3.00813747e+02
220             	3.00816112e+02
221             	3.00818172e+02
222             	3.00819656e+02
223             	3.00820274e+02
224             	3.00820216e+02
225             	3.00820403e+02
226             	3.00820227e+02
227             	3.00821159e+02
228             	3.00819730e+02
229             	3.00818825e+02
230             	3.00818075e+02
231             	3.00817708e+02
232             	3.00818577e+02
233             	3.00819408e+02
234             	3.00820855e+02
235             	3.00822818e+02
236             	3.00825266e+02
237             	3.00827729e+02
238             	3.00830067e+02
239             	3.00832207e+02
240             	3.00834012e+02
241             	3.00835478e+02
242             	3.00836289e+02
243             	3.00836905e+02
244             	3.00837013e+02
245             	3.00836691e+02
246             	3.00837032e+02
247             	3.00836326e+02
248             	3.00835606e+02
249             	3.00835180e+02
250             	3.00834812e+02
251             	3.00834539e+02
252             	3.00834488e+02
253             	3.00834619e+02
254             	3.00834851e+02
255             	3.00835282e+02
256             	3.00835811e+02
257             	3.00836450e+02
258             	3.00837042e+02
259             	3.00838226e+02
260             	3.00838817e+02
261             	3.00839374e+02
262             	3.00840203e+02
263             	3.00841423e+02
264             	3.00842536e+02
265             	3.00843366e+02
266             	3.00844228e+02
267             	3.00845163e+02
268             	3.00846162e+02
269             	3.00847137e+02
270             	3.00847996e+02
271             	3.00848799e+02
272             	3.00849624e+02
273             	3.00850334e+02
274             	3.00850882e+02
275             	3.00851384e+02
276             	3.00851890e+02
277             	3.00852385e+02
278             	3.00852951e+02
279             	3.00853562e+02
280             	3.00854623e+02
281             	3.00855637e+02
282             	3.00856657e+02
283             	3.00857707e+02
284             	3.00859041e+02
285             	3.00859924e+02
286             	3.00860647e+02
287             	3.00861286e+02
288             	3.00861663e+02
289             	3.00861784e+02
290             	3.00861781e+02
291             	3.00861744e+02
292             	3.00861831e+02
293             	3.00862180e+02
294             	3.00862416e+02
295             	3.00862790e+02
296             	3.00863189e+02
297             	3.00863943e+02
298             	3.00865230e+02
299             	3.00866123e+02
300             	3.00867138e+02
301             	3.00868345e+02
302             	3.00869631e+02
303             	3.00870952e+02
304             	3.00871810e+02
305             	3.00872760e+02
306             	3.00873493e+02
307             	3.00874426e+02
308             	3.00875037e+02
309             	3.00875428e+02
310             	3.00875736e+02
311             	3.00875951e+02
312             	3.00876050e+02
313             	3.00876309e+02
314             	3.00876313e+02
315             	3.00876546e+02
316             	3.00876812e+02
317             	3.00877130e+02
318             	3.00877579e+02
319             	3.00878105e+02
320             	3.00878659e+02
321             	3.00879445e+02
322             	3.00880265e+02
323             	3.00880556e+02
324             	3.00881076e+02
325             	3.00881405e+02
326             	3.00881803e+02
327             	3.00882153e+02
328             	3.00883443e+02
329             	3.00883858e+02
330             	3.00884562e+02
331             	3.00885396e+02
332             	3.00886383e+02
333             	3.00887484e+02
334             	3.00888518e+02
335             	3.00889385e+02
336             	3.00890031e+02
337             	3.00891125e+02
338             	3.00891886e+02
339             	3.00892303e+02
340             	3.00892469e+02
341             	3.00892359e+02
342             	3.00892356e+02
343             	3.00892639e+02
344             	3.00892635e+02
345             	3.00892583e+02
346             	3.00892895e+02
347             	3.00893389e+02
348             	3.00894259e+02
349             	3.00895224e+02
350             	3.00896249e+02
351             	3.00897332e+02
352             	3.00898311e+02
353             	3.00899131e+02
354             	3.00899686e+02
355             	3.00900072e+02
356             	3.00900433e+02
357             	3.00900624e+02
358             	3.00900682e+02
359             	3.00900905e+02
360             	3.00901452e+02
361             	3.00901849e+02
362             	3.00902140e+02
363             	3.00902757e+02
364             	3.00903570e+02
365             	3.00904434e+02
366             	3.00905286e+02
367             	3.00906310e+02
368             	3.00907236e+02
369             	3.00908206e+02
370             	3.00909102e+02
371             	3.00910018e+02
372             	3.00910836e+02
373             	3.00911505e+02
374             	3.00912044e+02
375             	3.00912565e+02
376             	3.00912935e+02
377             	3.00913076e+02
378             	3.00913125e+02
379             	3.00913222e+02
380             	3.00913372e+02
381             	3.00913606e+02
382             	3.00913909e+02
383             	3.00914229e+02
384             	3.00914408e+02
385             	3.00914630e+02
386             	3.00915118e+02
387             	3.00915540e+02
388             	3.00916248e+02
389             	3.00916880e+02
390             	3.00917390e+02
391             	3.00918000e+02
392             	3.00918565e+02
393             	3.00919135e+02
394             	3.00919637e+02
395             	3.00920151e+02
396             	3.00920680e+02
397             	3.00921081e+02
398             	3.00921384e+02
399             	3.00921661e+02
400             	3.00921809e+02
401             	3.00921957e+02
402             	3.00922130e+02
403             	3.00922294e+02
404             	3.00922435e+02
405             	3.00922600e+02
406             	3.00922901e+02
407             	3.00923203e+02
408             	3.00923487e+02
409             	3.00923729e+02
410             	3.00924016e+02
411             	3.00924319e+02
412             	3.00924634e+02
413             	3.00924970e+02
414             	3.00925342e+02
415             	3.00925741e+02
416             	3.00926314e+02
417             	3.00926846e+02
418             	3.00927315e+02
419             	3.00927855e+02
420             	3.00928355e+02
421             	3.00928816e+02
422             	3.00929274e+02
423             	3.00929690e+02
424             	3.00929552e+02
425             	3.00929898e+02
426             	3.00930202e+02
427             	3.00930389e+02
428             	3.00930519e+02
429             	3.00930558e+02
430             	3.00930633e+02
431             	3.00930746e+02
432             	3.00930868e+02
433             	3.00931274e+02
434             	3.00931436e+02
435             	3.00931729e+02
436             	3.00932153e+02
437             	3.00932520e+02
438             	3.00933061e+02
439             	3.00933676e+02
440             	3.00934330e+02
441             	3.00935003e+02
442             	3.00935516e+02
443             	3.00935799e+02
444             	3.00935923e+02
445             	3.00935942e+02
446             	3.00935955e+02
447             	3.00935991e+02
448             	3.00936062e+02
449             	3.00936090e+02
450             	3.00936137e+02
451             	3.00936313e+02
452             	3.00936400e+02
453             	3.00936549e+02
454             	3.00936748e+02
455             	3.00936925e+02
456             	3.00937111e+02
457             	3.00937311e+02
458             	3.00937521e+02
459             	3.00937824e+02
460             	3.00938131e+02
461             	3.00938460e+02
462             	3.00938822e+02
463             	3.00939178e+02
464             	3.00939558e+02
465             	3.00939894e+02
466             	3.00940213e+02
467             	3.00940497e+02
468             	3.00940785e+02
469             	3.00941061e+02
470             	3.00941108e+02
471             	3.00941375e+02
472             	3.00941626e+02
473             	3.00941794e+02
474             	3.00941936e+02
475             	3.00942059e+02
476             	3.00942180e+02
477             	3.00942227e+02
478             	3.00942282e+02
479             	3.00942358e+02
480             	3.00942442e+02
481             	3.00942511e+02
482             	3.00942594e+02
483             	3.00942707e+02
484             	3.00942856e+02
485             	3.00943099e+02
486             	3.00943371e+02
487             	3.00943994e+02
488             	3.00944224e+02
489             	3.00944535e+02
490             	3.00944731e+02
491             	3.00945054e+02
492             	3.00945390e+02
493             	3.00945635e+02
494             	3.00945830e+02
495             	3.00945846e+02
496             	3.00945787e+02
497             	3.00945992e+02
498             	3.00945807e+02
499             	3.00946073e+02
500             	3.00946305e+02
501             	3.00946524e+02
502             	3.00946728e+02
503             	3.00946787e+02
504             	3.00946841e+02
505             	3.00946863e+02
506             	3.00946806e+02
507             	3.00947056e+02
508             	3.00946909e+02
509             	3.00946801e+02
510             	3.00946885e+02
511             	3.00946881e+02
512             	3.00947143e+02
513             	3.00947238e+02
514             	3.00947371e+02
515             	3.00947583e+02
516             	3.00947839e+02
517             	3.00948134e+02
518             	3.00948420e+02
519             	3.00948728e+02
520             	3.00949004e+02
521             	3.00949294e+02
522             	3.00949562e+02
523             	3.00949840e+02
524             	3.00950108e+02
525             	3.00950308e+02
526             	3.00950541e+02
527             	3.00950652e+02
528             	3.00950409e+02
529             	3.00950659e+02
530             	3.00950865e+02
531             	3.00951017e+02
532             	3.00951079e+02
533             	3.00950999e+02
534             	3.00950833e+02
535             	3.00950759e+02
536             	3.00950582e+02
537             	3.00950437e+02
538             	3.00950624e+02
539             	3.00950784e+02
540             	3.00950967e+02
541             	3.00951254e+02
542             	3.00951606e+02
543             	3.00951696e+02
544             	3.00952033e+02
545             	3.00952000e+02
546             	3.00952284e+02
547             	3.00952516e+02
548             	3.00952651e+02
549             	3.00952827e+02
550             	3.00952736e+02
551             	3.00952701e+02
552             	3.00952764e+02
553             	3.00952862e+02
554             	3.00953043e+02
555             	3.00953233e+02
556             	3.00953428e+02
557             	3.00953575e+02
558             	3.00953806e+02
559             	3.00954027e+02
560             	3.00954226e+02
561             	3.00954336e+02
562             	3.00954485e+02
563             	3.00954318e+02
564             	3.00954159e+02
565             	3.00954025e+02
566             	3.00954598e+02
567             	3.00954437e+02
568             	3.00954413e+02
569             	3.00954542e+02
570             	3.00954760e+02
571             	3.00955058e+02
572             	3.00955378e+02
573             	3.00955747e+02
574             	3.00956195e+02
575             	3.00956592e+02
576             	3.00956936e+02
577             	3.00957231e+02
578             	3.00957451e+02
579             	3.00957141e+02
580             	3.00957291e+02
581             	3.00957404e+02
582             	3.00957402e+02
583             	3.00957438e+02
584             	3.00957437e+02
585             	3.00957342e+02
586             	3.00957171e+02
587             	3.00957025e+02
588             	3.00956959e+02
589             	3.00956978e+02
590             	3.00957064e+02
591             	3.00957212e+02
592             	3.00957325e+02
593             	3.00957585e+02
594             	3.00957829e+02
595             	3.00958042e+02
596             	3.00958217e+02
597             	3.00958368e+02
598             	3.00958539e+02
599             	3.00958672e+02
600             	3.00958768e+02
601             	3.00958850e+02
602             	3.00958917e+02
603             	3.00958942e+02
604             	3.00958973e+02
605             	3.00959014e+02
606             	3.00959069e+02
607             	3.00959114e+02
608             	3.00959176e+02
609             	3.00959214e+02
610             	3.00959268e+02
611             	3.00959322e+02
612             	3.00959378e+02
613             	3.00959438e+02
614             	3.00959533e+02
615             	3.00959635e+02
616             	3.00959717e+02
617             	3.00959817e+02
618             	3.00959972e+02
619             	3.00960082e+02
620             	3.00960235e+02
621             	3.00960394e+02
