# Region        : cellZone component_4
# Cells         : 86
# Volume        : 1.57327336e-01
# Time          	volAverage(T)
1               	3.00362778e+02
2               	3.00721206e+02
3               	3.01055894e+02
4               	3.01375144e+02
5               	3.01685492e+02
6               	3.01989129e+02
7               	3.02287931e+02
8               	3.02582265e+02
9               	3.02872111e+02
10              	3.03158451e+02
11              	3.03439224e+02
12              	3.03710735e+02
13              	3.03975583e+02
14              	3.04231305e+02
15              	3.04479510e+02
16              	3.04719859e+02
17              	3.04950374e+02
18              	3.05179635e+02
19              	3.05401938e+02
20              	3.05617995e+02
21              	3.05823987e+02
22              	3.06037074e+02
23              	3.06251774e+02
24              	3.06462704e+02
25              	3.06665530e+02
26              	3.06861835e+02
27              	3.07055251e+02
28              	3.07244974e+02
29              	3.07428578e+02
30              	3.07616371e+02
31              	3.07792922e+02
32              	3.07965272e+02
33              	3.08132785e+02
34              	3.08293821e+02
35              	3.08441692e+02
36              	3.08570196e+02
37              	3.08688111e+02
38              	3.08786662e+02
39              	3.08879182e+02
40              	3.09010425e+02
41              	3.09119312e+02
42              	3.09215382e+02
43              	3.09303825e+02
44              	3.09386644e+02
45              	3.09466006e+02
46              	3.09554760e+02
47              	3.09642436e+02
48              	3.09730288e+02
49              	3.09816684e+02
50              	3.09885738e+02
51              	3.09948951e+02
52              	3.10003447e+02
53              	3.10058402e+02
54              	3.10120920e+02
55              	3.10196023e+02
56              	3.10286345e+02
57              	3.10380496e+02
58              	3.10474084e+02
59              	3.10568674e+02
60              	3.10661550e+02
61              	3.10753549e+02
62              	3.10843643e+02
63              	3.10932707e+02
64              	3.11012003e+02
65              	3.11084790e+02
66              	3.11164584e+02
67              	3.11242624e+02
68              	3.11321801e+02
69              	3.11394572e+02
70              	3.11445812e+02
71              	3.11484015e+02
72              	3.11514102e+02
73              	3.11541372e+02
74              	3.11576861e+02
75              	3.11642186e+02
76              	3.11716063e+02
77              	3.11790492e+02
78              	3.11864554e+02
79              	3.11931199e+02
80              	3.12003906e+02
81              	3.12080046e+02
82              	3.12153725e+02
83              	3.12223166e+02
84              	3.12291159e+02
85              	3.12368646e+02
86              	3.12443101e+02
87              	3.12517495e+02
88              	3.12590638e+02
89              	3.12662914e+02
90              	3.12731026e+02
91              	3.12795887e+02
92              	3.12874669e+02
93              	3.12962695e+02
94              	3.13025958e+02
95              	3.13068092e+02
96              	3.13100797e+02
97              	3.13143925e+02
98              	3.13192498e+02
99              	3.13245720e+02
100             	3.13299769e+02
101             	3.13346349e+02
102             	3.13394989e+02
103             	3.13441843e+02
104             	3.13487770e+02
105             	3.13533017e+02
106             	3.13570357e+02
107             	3.13611959e+02
108             	3.13649791e+02
109             	3.13694213e+02
110             	3.13744370e+02
111             	3.13795136e+02
112             	3.13844501e+02
113             	3.13892782e+02
114             	3.13936280e+02
115             	3.13975295e+02
116             	3.14013890e+02
117             	3.14056311e+02
118             	3.14102014e+02
119             	3.14141428e+02
120             	3.14186837e+02
121             	3.14230967e+02
122             	3.14279346e+02
123             	3.14327762e+02
124             	3.14374470e+02
125             	3.14418724e+02
126             	3.14458284e+02
127             	3.14496859e+02
128             	3.14536773e+02
129             	3.14577923e+02
130             	3.14622249e+02
131             	3.14670340e+02
132             	3.14722801e+02
133             	3.14774992e+02
134             	3.14826714e+02
135             	3.14871754e+02
136             	3.14916491e+02
137             	3.14956187e+02
138             	3.14994383e+02
139             	3.15033165e+02
140             	3.15070526e+02
141             	3.15105024e+02
142             	3.15142753e+02
143             	3.15182518e+02
144             	3.15219325e+02
145             	3.15257530e+02
146             	3.15293768e+02
147             	3.15332061e+02
148             	3.15373622e+02
149             	3.15415864e+02
150             	3.15457502e+02
151             	3.15499466e+02
152             	3.15541153e+02
153             	3.15582863e+02
154             	3.15624688e+02
155             	3.15666075e+02
156             	3.15707430e+02
157             	3.15747649e+02
158             	3.15785605e+02
159             	3.15819316e+02
160             	3.15849954e+02
161             	3.15878235e+02
162             	3.15905128e+02
163             	3.15931047e+02
164             	3.15955185e+02
165             	3.15978151e+02
166             	3.16003000e+02
167             	3.16022538e+02
168             	3.16049858e+02
169             	3.16080488e+02
170             	3.16112718e+02
171             	3.16145336e+02
172             	3.16178343e+02
173             	3.16210720e+02
174             	3.16246238e+02
175             	3.16279230e+02
176             	3.16312473e+02
177             	3.16344245e+02
178             	3.16375502e+02
179             	3.16404836e+02
180             	3.16433115e+02
181             	3.16458702e+02
182             	3.16484476e+02
183             	3.16507798e+02
184             	3.16534262e+02
185             	3.16562818e+02
186             	3.16592439e+02
187             	3.16624699e+02
188             	3.16660389e+02
189             	3.16697842e+02
190             	3.16728708e+02
191             	3.16762933e+02
192             	3.16791294e+02
193             	3.16822613e+02
194             	3.16854109e+02
195             	3.16878754e+02
196             	3.16903849e+02
197             	3.16925918e+02
198             	3.16944931e+02
199             	3.16962278e+02
200             	3.16978666e+02
201             	3.16993875e+02
202             	3.17009063e+02
203             	3.17025667e+02
204             	3.17042028e+02
205             	3.17058467e+02
206             	3.17076875e+02
207             	3.17097329e+02
208             	3.17120914e+02
209             	3.17138557e+02
210             	3.17162669e+02
211             	3.17188793e+02
212             	3.17217326e+02
213             	3.17247526e+02
214             	3.17280312e+02
215             	3.17307306e+02
216             	3.17332560e+02
217             	3.17357224e+02
218             	3.17380943e+02
219             	3.17403761e+02
220             	3.17426606e+02
221             	3.17448591e+02
222             	3.17469349e+02
223             	3.17489212e+02
224             	3.17508162e+02
225             	3.17525410e+02
226             	3.17542405e+02
227             	3.17561438e+02
228             	3.17574566e+02
229             	3.17591051e+02
230             	3.17611421e+02
231             	3.17634083e+02
232             	3.17651880e+02
233             	3.17674206e+02
234             	3.17693212e+02
235             	3.17712117e+02
236             	3.17730719e+02
237             	3.17747883e+02
238             	3.17763520e+02
239             	3.17777629e+02
240             	3.17790112e+02
241             	3.17801646e+02
242             	3.17808314e+02
243             	3.17814855e+02
244             	3.17824276e+02
245             	3.17836215e+02
246             	3.17850397e+02
247             	3.17867717e+02
248             	3.17886098e+02
249             	3.17899746e+02
250             	3.17918555e+02
251             	3.17938654e+02
252             	3.17958439e+02
253             	3.17977936e+02
254             	3.17996829e+02
255             	3.18015309e+02
256             	3.18031917e+02
257             	3.18039993e+02
258             	3.18052146e+02
259             	3.18062246e+02
260             	3.18073469e+02
261             	3.18087820e+02
262             	3.18103629e+02
263             	3.18109768e+02
264             	3.18121057e+02
265             	3.18137225e+02
266             	3.18156062e+02
267             	3.18169833e+02
268             	3.18188276e+02
269             	3.18201182e+02
270             	3.18215245e+02
271             	3.18229157e+02
272             	3.18240505e+02
273             	3.18250675e+02
274             	3.18262312e+02
275             	3.18265417e+02
276             	3.18269753e+02
277             	3.18276072e+02
278             	3.18285151e+02
279             	3.18294152e+02
280             	3.18307303e+02
281             	3.18316940e+02
282             	3.18327725e+02
283             	3.18340451e+02
284             	3.18356091e+02
285             	3.18363408e+02
286             	3.18375372e+02
287             	3.18382621e+02
288             	3.18395274e+02
289             	3.18402735e+02
290             	3.18413946e+02
291             	3.18421091e+02
292             	3.18428274e+02
293             	3.18434539e+02
294             	3.18439423e+02
295             	3.18442860e+02
296             	3.18445113e+02
297             	3.18447781e+02
298             	3.18450519e+02
299             	3.18453717e+02
300             	3.18457780e+02
301             	3.18463605e+02
302             	3.18473028e+02
303             	3.18471404e+02
304             	3.18474921e+02
305             	3.18482147e+02
306             	3.18491073e+02
307             	3.18501673e+02
308             	3.18512793e+02
309             	3.18518293e+02
310             	3.18523118e+02
311             	3.18528326e+02
312             	3.18533945e+02
313             	3.18539303e+02
314             	3.18543691e+02
315             	3.18545322e+02
316             	3.18541114e+02
317             	3.18536925e+02
318             	3.18533230e+02
319             	3.18528911e+02
320             	3.18523949e+02
321             	3.18519467e+02
322             	3.18515261e+02
323             	3.18512798e+02
324             	3.18513167e+02
325             	3.18517637e+02
326             	3.18512532e+02
327             	3.18514765e+02
328             	3.18518357e+02
329             	3.18523539e+02
330             	3.18529530e+02
331             	3.18536361e+02
332             	3.18543662e+02
333             	3.18547469e+02
334             	3.18550873e+02
335             	3.18554977e+02
336             	3.18558786e+02
337             	3.18561855e+02
338             	3.18565077e+02
339             	3.18568629e+02
340             	3.18572060e+02
341             	3.18573629e+02
342             	3.18577810e+02
343             	3.18578597e+02
344             	3.18581234e+02
345             	3.18587644e+02
346             	3.18588665e+02
347             	3.18590679e+02
348             	3.18595768e+02
349             	3.18603918e+02
350             	3.18614312e+02
351             	3.18618483e+02
352             	3.18627540e+02
353             	3.18637853e+02
354             	3.18649104e+02
355             	3.18650900e+02
356             	3.18657535e+02
357             	3.18659160e+02
358             	3.18662841e+02
359             	3.18665861e+02
360             	3.18669703e+02
361             	3.18671937e+02
362             	3.18672998e+02
363             	3.18673833e+02
364             	3.18675141e+02
365             	3.18677070e+02
366             	3.18680046e+02
367             	3.18684451e+02
368             	3.18683252e+02
369             	3.18686987e+02
370             	3.18693347e+02
371             	3.18693305e+02
372             	3.18699456e+02
373             	3.18705908e+02
374             	3.18713614e+02
375             	3.18722489e+02
376             	3.18731663e+02
377             	3.18737667e+02
378             	3.18744162e+02
379             	3.18750261e+02
380             	3.18753014e+02
381             	3.18755902e+02
382             	3.18758948e+02
383             	3.18762936e+02
384             	3.18767157e+02
385             	3.18770888e+02
386             	3.18768737e+02
387             	3.18771594e+02
388             	3.18776098e+02
389             	3.18774269e+02
390             	3.18775869e+02
391             	3.18779971e+02
392             	3.18785546e+02
393             	3.18794793e+02
394             	3.18802782e+02
395             	3.18810651e+02
396             	3.18814885e+02
397             	3.18817409e+02
398             	3.18822189e+02
399             	3.18828287e+02
400             	3.18835072e+02
401             	3.18841398e+02
402             	3.18847496e+02
403             	3.18853723e+02
404             	3.18853262e+02
405             	3.18858592e+02
406             	3.18858178e+02
407             	3.18859198e+02
408             	3.18863181e+02
409             	3.18868784e+02
410             	3.18874117e+02
411             	3.18880798e+02
412             	3.18888955e+02
413             	3.18894677e+02
414             	3.18901632e+02
415             	3.18909901e+02
416             	3.18916451e+02
417             	3.18919357e+02
418             	3.18919431e+02
419             	3.18920608e+02
420             	3.18921531e+02
421             	3.18921443e+02
422             	3.18920420e+02
423             	3.18922039e+02
424             	3.18917607e+02
425             	3.18918184e+02
426             	3.18918084e+02
427             	3.18920631e+02
428             	3.18925792e+02
429             	3.18932968e+02
430             	3.18941124e+02
431             	3.18942695e+02
432             	3.18946819e+02
433             	3.18951555e+02
434             	3.18957688e+02
435             	3.18964278e+02
436             	3.18971874e+02
437             	3.18970434e+02
438             	3.18972695e+02
439             	3.18976505e+02
440             	3.18981426e+02
441             	3.18985585e+02
442             	3.18987914e+02
443             	3.18989999e+02
444             	3.18995051e+02
445             	3.18998039e+02
446             	3.19003112e+02
447             	3.19002936e+02
448             	3.19009462e+02
449             	3.19011391e+02
450             	3.19018421e+02
451             	3.19025263e+02
452             	3.19026803e+02
453             	3.19030525e+02
454             	3.19032970e+02
455             	3.19036071e+02
456             	3.19038650e+02
457             	3.19040859e+02
458             	3.19042452e+02
459             	3.19043672e+02
460             	3.19044953e+02
461             	3.19048966e+02
462             	3.19052538e+02
463             	3.19054709e+02
464             	3.19056775e+02
465             	3.19061479e+02
466             	3.19067022e+02
467             	3.19072241e+02
468             	3.19077562e+02
469             	3.19085199e+02
470             	3.19085734e+02
471             	3.19092019e+02
472             	3.19101933e+02
473             	3.19101482e+02
474             	3.19105639e+02
475             	3.19111675e+02
476             	3.19117698e+02
477             	3.19122994e+02
478             	3.19128524e+02
479             	3.19133580e+02
480             	3.19136349e+02
481             	3.19137103e+02
482             	3.19137033e+02
483             	3.19136763e+02
484             	3.19135093e+02
485             	3.19136038e+02
486             	3.19137161e+02
487             	3.19138369e+02
488             	3.19142424e+02
489             	3.19137566e+02
490             	3.19139296e+02
491             	3.19142227e+02
492             	3.19143729e+02
493             	3.19144708e+02
494             	3.19147832e+02
495             	3.19152132e+02
496             	3.19156305e+02
497             	3.19160890e+02
498             	3.19166583e+02
499             	3.19173002e+02
500             	3.19171686e+02
501             	3.19175277e+02
502             	3.19179168e+02
503             	3.19176719e+02
504             	3.19178534e+02
505             	3.19178218e+02
506             	3.19179679e+02
507             	3.19180784e+02
508             	3.19181638e+02
509             	3.19182928e+02
510             	3.19184754e+02
511             	3.19186420e+02
512             	3.19187765e+02
513             	3.19189756e+02
514             	3.19193095e+02
515             	3.19195329e+02
516             	3.19197586e+02
517             	3.19200751e+02
518             	3.19203734e+02
519             	3.19204878e+02
520             	3.19206449e+02
521             	3.19210447e+02
522             	3.19206898e+02
523             	3.19207705e+02
524             	3.19211119e+02
525             	3.19215400e+02
526             	3.19218643e+02
527             	3.19219738e+02
528             	3.19219429e+02
529             	3.19220474e+02
530             	3.19221292e+02
531             	3.19220915e+02
532             	3.19219589e+02
533             	3.19218460e+02
534             	3.19216947e+02
535             	3.19215719e+02
536             	3.19214899e+02
537             	3.19214329e+02
538             	3.19212946e+02
539             	3.19211864e+02
540             	3.19211354e+02
541             	3.19211230e+02
542             	3.19211530e+02
543             	3.19212049e+02
544             	3.19212936e+02
545             	3.19214151e+02
546             	3.19215345e+02
547             	3.19217283e+02
548             	3.19219852e+02
549             	3.19224509e+02
550             	3.19227201e+02
551             	3.19223314e+02
552             	3.19225082e+02
553             	3.19227245e+02
554             	3.19229423e+02
555             	3.19231561e+02
556             	3.19233486e+02
557             	3.19235026e+02
558             	3.19235139e+02
559             	3.19235149e+02
560             	3.19235550e+02
561             	3.19236144e+02
562             	3.19236029e+02
563             	3.19236600e+02
564             	3.19236944e+02
565             	3.19236874e+02
566             	3.19236714e+02
567             	3.19236364e+02
568             	3.19236113e+02
569             	3.19236756e+02
570             	3.19231373e+02
571             	3.19230375e+02
572             	3.19231043e+02
573             	3.19232084e+02
574             	3.19233935e+02
575             	3.19235950e+02
576             	3.19238325e+02
577             	3.19240065e+02
578             	3.19241534e+02
579             	3.19243556e+02
580             	3.19244244e+02
581             	3.19244861e+02
582             	3.19246171e+02
583             	3.19246158e+02
584             	3.19247603e+02
585             	3.19248426e+02
586             	3.19249595e+02
587             	3.19249662e+02
588             	3.19249877e+02
589             	3.19249430e+02
590             	3.19249349e+02
591             	3.19250751e+02
592             	3.19253058e+02
593             	3.19249153e+02
594             	3.19250731e+02
595             	3.19252746e+02
596             	3.19255019e+02
597             	3.19257495e+02
598             	3.19259749e+02
599             	3.19261752e+02
600             	3.19263618e+02
601             	3.19265212e+02
602             	3.19266727e+02
603             	3.19266800e+02
604             	3.19266899e+02
605             	3.19267421e+02
606             	3.19268769e+02
607             	3.19270010e+02
608             	3.19270990e+02
609             	3.19271589e+02
610             	3.19273171e+02
611             	3.19275992e+02
612             	3.19278364e+02
613             	3.19280279e+02
614             	3.19280052e+02
615             	3.19279771e+02
616             	3.19279826e+02
617             	3.19281454e+02
618             	3.19283432e+02
619             	3.19285171e+02
620             	3.19287154e+02
621             	3.19289346e+02
