# Region        : cellZone component_0
# Cells         : 208
# Volume        : 1.85734929e-01
# Time          	volAverage(T)
1               	3.04229689e+02
2               	3.08312809e+02
3               	3.11422682e+02
4               	3.13835142e+02
5               	3.16093537e+02
6               	3.18373312e+02
7               	3.20576427e+02
8               	3.22617316e+02
9               	3.24548224e+02
10              	3.26387121e+02
11              	3.28142131e+02
12              	3.29812306e+02
13              	3.31354784e+02
14              	3.32847748e+02
15              	3.34307338e+02
16              	3.35737942e+02
17              	3.37078768e+02
18              	3.38332014e+02
19              	3.39509198e+02
20              	3.40597647e+02
21              	3.41662751e+02
22              	3.42670249e+02
23              	3.43654056e+02
24              	3.44586034e+02
25              	3.45392166e+02
26              	3.46095226e+02
27              	3.46748697e+02
28              	3.47438304e+02
29              	3.48149930e+02
30              	3.48848660e+02
31              	3.49437341e+02
32              	3.50044591e+02
33              	3.50591240e+02
34              	3.51177035e+02
35              	3.51803424e+02
36              	3.52223434e+02
37              	3.52425914e+02
38              	3.52560699e+02
39              	3.52688049e+02
40              	3.52886008e+02
41              	3.53232696e+02
42              	3.53652303e+02
43              	3.54080799e+02
44              	3.54489356e+02
45              	3.54890073e+02
46              	3.55272805e+02
47              	3.55794660e+02
48              	3.56251404e+02
49              	3.56621256e+02
50              	3.56914600e+02
51              	3.57124187e+02
52              	3.57279755e+02
53              	3.57403460e+02
54              	3.57534736e+02
55              	3.57692755e+02
56              	3.57889466e+02
57              	3.58112225e+02
58              	3.58350205e+02
59              	3.58584726e+02
60              	3.58843964e+02
61              	3.59072972e+02
62              	3.59331938e+02
63              	3.59592637e+02
64              	3.59811467e+02
65              	3.59966851e+02
66              	3.60035470e+02
67              	3.60138752e+02
68              	3.60280517e+02
69              	3.60485453e+02
70              	3.60736196e+02
71              	3.60978801e+02
72              	3.61184710e+02
73              	3.61356906e+02
74              	3.61601618e+02
75              	3.61850830e+02
76              	3.62032137e+02
77              	3.62151706e+02
78              	3.62240951e+02
79              	3.62348230e+02
80              	3.62540404e+02
81              	3.62790248e+02
82              	3.63047978e+02
83              	3.63248948e+02
84              	3.63437434e+02
85              	3.63737822e+02
86              	3.64089166e+02
87              	3.64383016e+02
88              	3.64562501e+02
89              	3.64575042e+02
90              	3.64477192e+02
91              	3.64463866e+02
92              	3.64501941e+02
93              	3.64574948e+02
94              	3.64656717e+02
95              	3.64729112e+02
96              	3.64830324e+02
97              	3.64929976e+02
98              	3.65051590e+02
99              	3.65152155e+02
100             	3.65158904e+02
101             	3.65108486e+02
102             	3.64989606e+02
103             	3.64889888e+02
104             	3.64836164e+02
105             	3.64893119e+02
106             	3.65052699e+02
107             	3.65169924e+02
108             	3.65260762e+02
109             	3.65375621e+02
110             	3.65521110e+02
111             	3.65726185e+02
112             	3.65914796e+02
113             	3.66001714e+02
114             	3.66018386e+02
115             	3.66022630e+02
116             	3.66022203e+02
117             	3.66089131e+02
118             	3.66210144e+02
119             	3.66346784e+02
120             	3.66494653e+02
121             	3.66656697e+02
122             	3.66803766e+02
123             	3.66956837e+02
124             	3.67113467e+02
125             	3.67232070e+02
126             	3.67250455e+02
127             	3.67186833e+02
128             	3.67086869e+02
129             	3.66997661e+02
130             	3.66980763e+02
131             	3.67042697e+02
132             	3.67123136e+02
133             	3.67209056e+02
134             	3.67308980e+02
135             	3.67423022e+02
136             	3.67552715e+02
137             	3.67682085e+02
138             	3.67803224e+02
139             	3.67894626e+02
140             	3.67936423e+02
141             	3.67935034e+02
142             	3.67918094e+02
143             	3.67911723e+02
144             	3.67939186e+02
145             	3.68002908e+02
146             	3.68064347e+02
147             	3.68134793e+02
148             	3.68232621e+02
149             	3.68347496e+02
150             	3.68466440e+02
151             	3.68577564e+02
152             	3.68623781e+02
153             	3.68617617e+02
154             	3.68602016e+02
155             	3.68608142e+02
156             	3.68638513e+02
157             	3.68686039e+02
158             	3.68723778e+02
159             	3.68779107e+02
160             	3.68846578e+02
161             	3.68916815e+02
162             	3.68980124e+02
163             	3.69053978e+02
164             	3.69111177e+02
165             	3.69143238e+02
166             	3.69151957e+02
167             	3.69157885e+02
168             	3.69169441e+02
169             	3.69203201e+02
170             	3.69249723e+02
171             	3.69314723e+02
172             	3.69395954e+02
173             	3.69460036e+02
174             	3.69538865e+02
175             	3.69624896e+02
176             	3.69697605e+02
177             	3.69759441e+02
178             	3.69793672e+02
179             	3.69809411e+02
180             	3.69816386e+02
181             	3.69826348e+02
182             	3.69845580e+02
183             	3.69873595e+02
184             	3.69911288e+02
185             	3.69953120e+02
186             	3.69992412e+02
187             	3.70040592e+02
188             	3.70082757e+02
189             	3.70124515e+02
190             	3.70147051e+02
191             	3.70155760e+02
192             	3.70158441e+02
193             	3.70165158e+02
194             	3.70182926e+02
195             	3.70207550e+02
196             	3.70228864e+02
197             	3.70257584e+02
198             	3.70299595e+02
199             	3.70356576e+02
200             	3.70393149e+02
201             	3.70431898e+02
202             	3.70475299e+02
203             	3.70508504e+02
204             	3.70519131e+02
205             	3.70519386e+02
206             	3.70522620e+02
207             	3.70535319e+02
208             	3.70549006e+02
209             	3.70570517e+02
210             	3.70592943e+02
211             	3.70618296e+02
212             	3.70648825e+02
213             	3.70681148e+02
214             	3.70708401e+02
215             	3.70731106e+02
216             	3.70738069e+02
217             	3.70733950e+02
218             	3.70727997e+02
219             	3.70725963e+02
220             	3.70727893e+02
221             	3.70731353e+02
222             	3.70744208e+02
223             	3.70766527e+02
224             	3.70789188e+02
225             	3.70818141e+02
226             	3.70845644e+02
227             	3.70865483e+02
228             	3.70882117e+02
229             	3.70895627e+02
230             	3.70904263e+02
231             	3.70911738e+02
232             	3.70916592e+02
233             	3.70923867e+02
234             	3.70938001e+02
235             	3.70953370e+02
236             	3.70968290e+02
237             	3.70984747e+02
238             	3.71001801e+02
239             	3.71018393e+02
240             	3.71032766e+02
241             	3.71042417e+02
242             	3.71044826e+02
243             	3.71040373e+02
244             	3.71036703e+02
245             	3.71042253e+02
246             	3.71049883e+02
247             	3.71062602e+02
248             	3.71082216e+02
249             	3.71101843e+02
250             	3.71121790e+02
251             	3.71138591e+02
252             	3.71155786e+02
253             	3.71169632e+02
254             	3.71176442e+02
255             	3.71176304e+02
256             	3.71173904e+02
257             	3.71176470e+02
258             	3.71180673e+02
259             	3.71183695e+02
260             	3.71189572e+02
261             	3.71200513e+02
262             	3.71213687e+02
263             	3.71224481e+02
264             	3.71233497e+02
265             	3.71238515e+02
266             	3.71242465e+02
267             	3.71243728e+02
268             	3.71242283e+02
269             	3.71241111e+02
270             	3.71243169e+02
271             	3.71249840e+02
272             	3.71264158e+02
273             	3.71282463e+02
274             	3.71300422e+02
275             	3.71314399e+02
276             	3.71325512e+02
277             	3.71336215e+02
278             	3.71346254e+02
279             	3.71350912e+02
280             	3.71351066e+02
281             	3.71348566e+02
282             	3.71346694e+02
283             	3.71346232e+02
284             	3.71347386e+02
285             	3.71352606e+02
286             	3.71360387e+02
287             	3.71367253e+02
288             	3.71372787e+02
289             	3.71378747e+02
290             	3.71380048e+02
291             	3.71379211e+02
292             	3.71379716e+02
293             	3.71380941e+02
294             	3.71379498e+02
295             	3.71380841e+02
296             	3.71385252e+02
297             	3.71389692e+02
298             	3.71396910e+02
299             	3.71406879e+02
300             	3.71416462e+02
301             	3.71426825e+02
302             	3.71435872e+02
303             	3.71442430e+02
304             	3.71445494e+02
305             	3.71446052e+02
306             	3.71447426e+02
307             	3.71449930e+02
308             	3.71452599e+02
309             	3.71456555e+02
310             	3.71461766e+02
311             	3.71466936e+02
312             	3.71471178e+02
313             	3.71475309e+02
314             	3.71478120e+02
315             	3.71479198e+02
316             	3.71480156e+02
317             	3.71479577e+02
318             	3.71478725e+02
319             	3.71479181e+02
320             	3.71480046e+02
321             	3.71482587e+02
322             	3.71488250e+02
323             	3.71495514e+02
324             	3.71501709e+02
325             	3.71506317e+02
326             	3.71511690e+02
327             	3.71516637e+02
328             	3.71518915e+02
329             	3.71519818e+02
330             	3.71521608e+02
331             	3.71523439e+02
332             	3.71526136e+02
333             	3.71529913e+02
334             	3.71534083e+02
335             	3.71537436e+02
336             	3.71539765e+02
337             	3.71541666e+02
338             	3.71543100e+02
339             	3.71543332e+02
340             	3.71543263e+02
341             	3.71542730e+02
342             	3.71542998e+02
343             	3.71543167e+02
344             	3.71544267e+02
345             	3.71547811e+02
346             	3.71552507e+02
347             	3.71556546e+02
348             	3.71560471e+02
349             	3.71564140e+02
350             	3.71567086e+02
351             	3.71569141e+02
352             	3.71570518e+02
353             	3.71572035e+02
354             	3.71573242e+02
355             	3.71574728e+02
356             	3.71576734e+02
357             	3.71579044e+02
358             	3.71581696e+02
359             	3.71585359e+02
360             	3.71589373e+02
361             	3.71592982e+02
362             	3.71595610e+02
363             	3.71597320e+02
364             	3.71598244e+02
365             	3.71598199e+02
366             	3.71597701e+02
367             	3.71597601e+02
368             	3.71597583e+02
369             	3.71598412e+02
370             	3.71601083e+02
371             	3.71604533e+02
372             	3.71608834e+02
373             	3.71612990e+02
374             	3.71615999e+02
375             	3.71617476e+02
376             	3.71617998e+02
377             	3.71617860e+02
378             	3.71617616e+02
379             	3.71617174e+02
380             	3.71617108e+02
381             	3.71618035e+02
382             	3.71619202e+02
383             	3.71619680e+02
384             	3.71620298e+02
385             	3.71622169e+02
386             	3.71623640e+02
387             	3.71624932e+02
388             	3.71625316e+02
389             	3.71624370e+02
390             	3.71623313e+02
391             	3.71622520e+02
392             	3.71622400e+02
393             	3.71623103e+02
394             	3.71625255e+02
395             	3.71628436e+02
396             	3.71631959e+02
397             	3.71635377e+02
398             	3.71638450e+02
399             	3.71641302e+02
400             	3.71643334e+02
401             	3.71643723e+02
402             	3.71643102e+02
403             	3.71642099e+02
404             	3.71641120e+02
405             	3.71640297e+02
406             	3.71639856e+02
407             	3.71640571e+02
408             	3.71642272e+02
409             	3.71644550e+02
410             	3.71646518e+02
411             	3.71648469e+02
412             	3.71649882e+02
413             	3.71649916e+02
414             	3.71648894e+02
415             	3.71647532e+02
416             	3.71646072e+02
417             	3.71644437e+02
418             	3.71643564e+02
419             	3.71643259e+02
420             	3.71644071e+02
421             	3.71646317e+02
422             	3.71649038e+02
423             	3.71651758e+02
424             	3.71654240e+02
425             	3.71656269e+02
426             	3.71657654e+02
427             	3.71658308e+02
428             	3.71658488e+02
429             	3.71657854e+02
430             	3.71656794e+02
431             	3.71655750e+02
432             	3.71655244e+02
433             	3.71655464e+02
434             	3.71656256e+02
435             	3.71657779e+02
436             	3.71660028e+02
437             	3.71662487e+02
438             	3.71664456e+02
439             	3.71665608e+02
440             	3.71666352e+02
441             	3.71666875e+02
442             	3.71666984e+02
443             	3.71666430e+02
444             	3.71665797e+02
445             	3.71665104e+02
446             	3.71664385e+02
447             	3.71663947e+02
448             	3.71663771e+02
449             	3.71663944e+02
450             	3.71664592e+02
451             	3.71665790e+02
452             	3.71667244e+02
453             	3.71668797e+02
454             	3.71670219e+02
455             	3.71671470e+02
456             	3.71672649e+02
457             	3.71673657e+02
458             	3.71674545e+02
459             	3.71675333e+02
460             	3.71675943e+02
461             	3.71676392e+02
462             	3.71676518e+02
463             	3.71676375e+02
464             	3.71676141e+02
465             	3.71676073e+02
466             	3.71676335e+02
467             	3.71676665e+02
468             	3.71677198e+02
469             	3.71677762e+02
470             	3.71678522e+02
471             	3.71679423e+02
472             	3.71680269e+02
473             	3.71680821e+02
474             	3.71681251e+02
475             	3.71681441e+02
476             	3.71681202e+02
477             	3.71680809e+02
478             	3.71680444e+02
479             	3.71680372e+02
480             	3.71680443e+02
481             	3.71680629e+02
482             	3.71681163e+02
483             	3.71681941e+02
484             	3.71682919e+02
485             	3.71683804e+02
486             	3.71684434e+02
487             	3.71684839e+02
488             	3.71685039e+02
489             	3.71684786e+02
490             	3.71684244e+02
491             	3.71683602e+02
492             	3.71683147e+02
493             	3.71682997e+02
494             	3.71682946e+02
495             	3.71683280e+02
496             	3.71683985e+02
497             	3.71684869e+02
498             	3.71685759e+02
499             	3.71686472e+02
500             	3.71686922e+02
501             	3.71687194e+02
502             	3.71687263e+02
503             	3.71686980e+02
504             	3.71686468e+02
505             	3.71685876e+02
506             	3.71685380e+02
507             	3.71685207e+02
508             	3.71685359e+02
509             	3.71685969e+02
510             	3.71686879e+02
511             	3.71687851e+02
512             	3.71688682e+02
513             	3.71689357e+02
514             	3.71690055e+02
515             	3.71690581e+02
516             	3.71690766e+02
517             	3.71690591e+02
518             	3.71690164e+02
519             	3.71689726e+02
520             	3.71689425e+02
521             	3.71689363e+02
522             	3.71689491e+02
523             	3.71689735e+02
524             	3.71690129e+02
525             	3.71690708e+02
526             	3.71691439e+02
527             	3.71692212e+02
528             	3.71692948e+02
529             	3.71693513e+02
530             	3.71693849e+02
531             	3.71694010e+02
532             	3.71693988e+02
533             	3.71693832e+02
534             	3.71693605e+02
535             	3.71693375e+02
536             	3.71693205e+02
537             	3.71693117e+02
538             	3.71693157e+02
539             	3.71693276e+02
540             	3.71693520e+02
541             	3.71693892e+02
542             	3.71694276e+02
543             	3.71694662e+02
544             	3.71695070e+02
545             	3.71695460e+02
546             	3.71695801e+02
547             	3.71696054e+02
548             	3.71696264e+02
549             	3.71696437e+02
550             	3.71696580e+02
551             	3.71696716e+02
552             	3.71696810e+02
553             	3.71696846e+02
554             	3.71696817e+02
555             	3.71696813e+02
556             	3.71696843e+02
557             	3.71696897e+02
558             	3.71696938e+02
559             	3.71697004e+02
560             	3.71697089e+02
561             	3.71697211e+02
562             	3.71697395e+02
563             	3.71697585e+02
564             	3.71697756e+02
565             	3.71697939e+02
566             	3.71698110e+02
567             	3.71698226e+02
568             	3.71698284e+02
569             	3.71698291e+02
570             	3.71698246e+02
571             	3.71698158e+02
572             	3.71698058e+02
573             	3.71697953e+02
574             	3.71697868e+02
575             	3.71697811e+02
576             	3.71697799e+02
577             	3.71697827e+02
578             	3.71697894e+02
579             	3.71698009e+02
580             	3.71698157e+02
581             	3.71698336e+02
582             	3.71698541e+02
583             	3.71698757e+02
584             	3.71698983e+02
585             	3.71699199e+02
586             	3.71699400e+02
587             	3.71699587e+02
588             	3.71699760e+02
589             	3.71699912e+02
590             	3.71700056e+02
591             	3.71700160e+02
592             	3.71700237e+02
593             	3.71700301e+02
594             	3.71700341e+02
595             	3.71700372e+02
596             	3.71700397e+02
597             	3.71700412e+02
598             	3.71700417e+02
599             	3.71700406e+02
600             	3.71700399e+02
601             	3.71700398e+02
602             	3.71700400e+02
603             	3.71700423e+02
604             	3.71700465e+02
605             	3.71700514e+02
606             	3.71700570e+02
607             	3.71700641e+02
608             	3.71700722e+02
609             	3.71700828e+02
610             	3.71700941e+02
611             	3.71701001e+02
612             	3.71701034e+02
613             	3.71701043e+02
614             	3.71701067e+02
615             	3.71701080e+02
616             	3.71701087e+02
617             	3.71701085e+02
618             	3.71701074e+02
619             	3.71701080e+02
620             	3.71701082e+02
621             	3.71701076e+02
