# Region        : cellZone component_0
# Cells         : 102
# Volume        : 1.64035876e-01
# Time          	volAverage(T)
1               	3.01089709e+02
2               	3.02162763e+02
3               	3.03163497e+02
4               	3.04120838e+02
5               	3.05054174e+02
6               	3.05968040e+02
7               	3.06867071e+02
8               	3.07762747e+02
9               	3.08650359e+02
10              	3.09524445e+02
11              	3.10368877e+02
12              	3.11181216e+02
13              	3.11974510e+02
14              	3.12754932e+02
15              	3.13542615e+02
16              	3.14301827e+02
17              	3.15011173e+02
18              	3.15722666e+02
19              	3.16445778e+02
20              	3.17173925e+02
21              	3.17855786e+02
22              	3.18526114e+02
23              	3.19193923e+02
24              	3.19876786e+02
25              	3.20565153e+02
26              	3.21250943e+02
27              	3.21946108e+02
28              	3.22642681e+02
29              	3.23339665e+02
30              	3.24022337e+02
31              	3.24694466e+02
32              	3.25359488e+02
33              	3.26022851e+02
34              	3.26692891e+02
35              	3.27373844e+02
36              	3.28051967e+02
37              	3.28727090e+02
38              	3.29408033e+02
39              	3.30088617e+02
40              	3.30755576e+02
41              	3.31415364e+02
42              	3.32066947e+02
43              	3.32715792e+02
44              	3.33357857e+02
45              	3.34002679e+02
46              	3.34652127e+02
47              	3.35301805e+02
48              	3.35935330e+02
49              	3.36555938e+02
50              	3.37150668e+02
51              	3.37729427e+02
52              	3.38280372e+02
53              	3.38776846e+02
54              	3.39284941e+02
55              	3.39827017e+02
56              	3.40362124e+02
57              	3.40899879e+02
58              	3.41434540e+02
59              	3.41987104e+02
60              	3.42524800e+02
61              	3.43063033e+02
62              	3.43597146e+02
63              	3.44123106e+02
64              	3.44653312e+02
65              	3.45150752e+02
66              	3.45671537e+02
67              	3.46206855e+02
68              	3.46747904e+02
69              	3.47270376e+02
70              	3.47784895e+02
71              	3.48296732e+02
72              	3.48808800e+02
73              	3.49249472e+02
74              	3.49635668e+02
75              	3.50014793e+02
76              	3.50403511e+02
77              	3.50808546e+02
78              	3.51230948e+02
79              	3.51671770e+02
80              	3.52112474e+02
81              	3.52565031e+02
82              	3.53015898e+02
83              	3.53471782e+02
84              	3.53915474e+02
85              	3.54347469e+02
86              	3.54773250e+02
87              	3.55211022e+02
88              	3.55653195e+02
89              	3.56104301e+02
90              	3.56550943e+02
91              	3.57024897e+02
92              	3.57495014e+02
93              	3.57934814e+02
94              	3.58355267e+02
95              	3.58748991e+02
96              	3.59119508e+02
97              	3.59474391e+02
98              	3.59796013e+02
99              	3.60148088e+02
100             	3.60493309e+02
101             	3.60844921e+02
102             	3.61204482e+02
103             	3.61561203e+02
104             	3.61928753e+02
105             	3.62298590e+02
106             	3.62671973e+02
107             	3.63048951e+02
108             	3.63439851e+02
109             	3.63840996e+02
110             	3.64220031e+02
111             	3.64607266e+02
112             	3.64981426e+02
113             	3.65339858e+02
114             	3.65678398e+02
115             	3.65989838e+02
116             	3.66265131e+02
117             	3.66537368e+02
118             	3.66809224e+02
119             	3.67081551e+02
120             	3.67361696e+02
121             	3.67650673e+02
122             	3.67948319e+02
123             	3.68258872e+02
124             	3.68583675e+02
125             	3.68920399e+02
126             	3.69265532e+02
127             	3.69625208e+02
128             	3.69995020e+02
129             	3.70343271e+02
130             	3.70684288e+02
131             	3.71003845e+02
132             	3.71316398e+02
133             	3.71618617e+02
134             	3.71893017e+02
135             	3.72113740e+02
136             	3.72323745e+02
137             	3.72530714e+02
138             	3.72743398e+02
139             	3.73002577e+02
140             	3.73276888e+02
141             	3.73551926e+02
142             	3.73853089e+02
143             	3.74160414e+02
144             	3.74484480e+02
145             	3.74790308e+02
146             	3.75093532e+02
147             	3.75393799e+02
148             	3.75681270e+02
149             	3.75958651e+02
150             	3.76227206e+02
151             	3.76468770e+02
152             	3.76684258e+02
153             	3.76910870e+02
154             	3.77145895e+02
155             	3.77385589e+02
156             	3.77610243e+02
157             	3.77862660e+02
158             	3.78127100e+02
159             	3.78410796e+02
160             	3.78705224e+02
161             	3.78982003e+02
162             	3.79228756e+02
163             	3.79477952e+02
164             	3.79712559e+02
165             	3.79918553e+02
166             	3.80094570e+02
167             	3.80268950e+02
168             	3.80452874e+02
169             	3.80648018e+02
170             	3.80854209e+02
171             	3.81076752e+02
172             	3.81313261e+02
173             	3.81539201e+02
174             	3.81768530e+02
175             	3.81979426e+02
176             	3.82185716e+02
177             	3.82376597e+02
178             	3.82552437e+02
179             	3.82726520e+02
180             	3.82893157e+02
181             	3.83062837e+02
182             	3.83252743e+02
183             	3.83460048e+02
184             	3.83673912e+02
185             	3.83903281e+02
186             	3.84167266e+02
187             	3.84390969e+02
188             	3.84618026e+02
189             	3.84839405e+02
190             	3.85020835e+02
191             	3.85152493e+02
192             	3.85244305e+02
193             	3.85316139e+02
194             	3.85403825e+02
195             	3.85501062e+02
196             	3.85609518e+02
197             	3.85734511e+02
198             	3.85893074e+02
199             	3.86084012e+02
200             	3.86298709e+02
201             	3.86502965e+02
202             	3.86711728e+02
203             	3.86945949e+02
204             	3.87150549e+02
205             	3.87334397e+02
206             	3.87484934e+02
207             	3.87605641e+02
208             	3.87709483e+02
209             	3.87826804e+02
210             	3.87964955e+02
211             	3.88097094e+02
212             	3.88234375e+02
213             	3.88364561e+02
214             	3.88557183e+02
215             	3.88679634e+02
216             	3.88771233e+02
217             	3.88854852e+02
218             	3.88948177e+02
219             	3.89036456e+02
220             	3.89110335e+02
221             	3.89209740e+02
222             	3.89336993e+02
223             	3.89447489e+02
224             	3.89549722e+02
225             	3.89676819e+02
226             	3.89787890e+02
227             	3.89905103e+02
228             	3.90007719e+02
229             	3.90084601e+02
230             	3.90160493e+02
231             	3.90219330e+02
232             	3.90279208e+02
233             	3.90377069e+02
234             	3.90491966e+02
235             	3.90621132e+02
236             	3.90750129e+02
237             	3.90887759e+02
238             	3.91044483e+02
239             	3.91192501e+02
240             	3.91364188e+02
241             	3.91543650e+02
242             	3.91709928e+02
243             	3.91848475e+02
244             	3.91959185e+02
245             	3.92036432e+02
246             	3.92115885e+02
247             	3.92245883e+02
248             	3.92343441e+02
249             	3.92446035e+02
250             	3.92546613e+02
251             	3.92689147e+02
252             	3.92808098e+02
253             	3.92915238e+02
254             	3.93000570e+02
255             	3.93064638e+02
256             	3.93114166e+02
257             	3.93177815e+02
258             	3.93278588e+02
259             	3.93384552e+02
260             	3.93493612e+02
261             	3.93623790e+02
262             	3.93758979e+02
263             	3.93912370e+02
264             	3.94057147e+02
265             	3.94206022e+02
266             	3.94344466e+02
267             	3.94440529e+02
268             	3.94499062e+02
269             	3.94523219e+02
270             	3.94516748e+02
271             	3.94517032e+02
272             	3.94568400e+02
273             	3.94620792e+02
274             	3.94645998e+02
275             	3.94693659e+02
276             	3.94736147e+02
277             	3.94840375e+02
278             	3.94921158e+02
279             	3.94983458e+02
280             	3.95028873e+02
281             	3.95068163e+02
282             	3.95120211e+02
283             	3.95194548e+02
284             	3.95283750e+02
285             	3.95332010e+02
286             	3.95386636e+02
287             	3.95451400e+02
288             	3.95534796e+02
289             	3.95626162e+02
290             	3.95714399e+02
291             	3.95803847e+02
292             	3.95890207e+02
293             	3.95983069e+02
294             	3.96077230e+02
295             	3.96173820e+02
296             	3.96279011e+02
297             	3.96386506e+02
298             	3.96496097e+02
299             	3.96623382e+02
300             	3.96744781e+02
301             	3.96865720e+02
302             	3.96982046e+02
303             	3.97090387e+02
304             	3.97190709e+02
305             	3.97287763e+02
306             	3.97371813e+02
307             	3.97443430e+02
308             	3.97507549e+02
309             	3.97568422e+02
310             	3.97640705e+02
311             	3.97721472e+02
312             	3.97805383e+02
313             	3.97890529e+02
314             	3.97979629e+02
315             	3.98061595e+02
316             	3.98132668e+02
317             	3.98190742e+02
318             	3.98236323e+02
319             	3.98276758e+02
320             	3.98315569e+02
321             	3.98353108e+02
322             	3.98392375e+02
323             	3.98438600e+02
324             	3.98490442e+02
325             	3.98552166e+02
326             	3.98625693e+02
327             	3.98716063e+02
328             	3.98814581e+02
329             	3.98906418e+02
330             	3.99018168e+02
331             	3.99137561e+02
332             	3.99234798e+02
333             	3.99313595e+02
334             	3.99376196e+02
335             	3.99419201e+02
336             	3.99470671e+02
337             	3.99530106e+02
338             	3.99597727e+02
339             	3.99674864e+02
340             	3.99769433e+02
341             	3.99869557e+02
342             	3.99949589e+02
343             	4.00040974e+02
344             	4.00131478e+02
345             	4.00207332e+02
346             	4.00266861e+02
347             	4.00315844e+02
348             	4.00356187e+02
349             	4.00398060e+02
350             	4.00448244e+02
351             	4.00508207e+02
352             	4.00575754e+02
353             	4.00651932e+02
354             	4.00739463e+02
355             	4.00811066e+02
356             	4.00893030e+02
357             	4.00980390e+02
358             	4.01058621e+02
359             	4.01127901e+02
360             	4.01182574e+02
361             	4.01223602e+02
362             	4.01255400e+02
363             	4.01281362e+02
364             	4.01304147e+02
365             	4.01333615e+02
366             	4.01373594e+02
367             	4.01420631e+02
368             	4.01474923e+02
369             	4.01535733e+02
370             	4.01604210e+02
371             	4.01659162e+02
372             	4.01730336e+02
373             	4.01807965e+02
374             	4.01860975e+02
375             	4.01916963e+02
376             	4.01966024e+02
377             	4.02003239e+02
378             	4.02033061e+02
379             	4.02054888e+02
380             	4.02070083e+02
381             	4.02088244e+02
382             	4.02111768e+02
383             	4.02140965e+02
384             	4.02178894e+02
385             	4.02228558e+02
386             	4.02287745e+02
387             	4.02357944e+02
388             	4.02409317e+02
389             	4.02475886e+02
390             	4.02540079e+02
391             	4.02590437e+02
392             	4.02624397e+02
393             	4.02652342e+02
394             	4.02679000e+02
395             	4.02708924e+02
396             	4.02745850e+02
397             	4.02793060e+02
398             	4.02847304e+02
399             	4.02903402e+02
400             	4.02952278e+02
401             	4.02992496e+02
402             	4.03026722e+02
403             	4.03057583e+02
404             	4.03086778e+02
405             	4.03116581e+02
406             	4.03148997e+02
407             	4.03185169e+02
408             	4.03223555e+02
409             	4.03264862e+02
410             	4.03307956e+02
411             	4.03346719e+02
412             	4.03381671e+02
413             	4.03415703e+02
414             	4.03448943e+02
415             	4.03478183e+02
416             	4.03503772e+02
417             	4.03526127e+02
418             	4.03546189e+02
419             	4.03565558e+02
420             	4.03584226e+02
421             	4.03604990e+02
422             	4.03628734e+02
423             	4.03655177e+02
424             	4.03684229e+02
425             	4.03715757e+02
426             	4.03749407e+02
427             	4.03784355e+02
428             	4.03819870e+02
429             	4.03855608e+02
430             	4.03890295e+02
431             	4.03924907e+02
432             	4.03958807e+02
433             	4.03991703e+02
434             	4.04025746e+02
435             	4.04061624e+02
436             	4.04099516e+02
437             	4.04138316e+02
438             	4.04178009e+02
439             	4.04218311e+02
440             	4.04256995e+02
441             	4.04294326e+02
442             	4.04329595e+02
443             	4.04361853e+02
444             	4.04391162e+02
445             	4.04416870e+02
446             	4.04438376e+02
447             	4.04456927e+02
448             	4.04474043e+02
449             	4.04491219e+02
450             	4.04509465e+02
451             	4.04530693e+02
452             	4.04555062e+02
453             	4.04582293e+02
454             	4.04610567e+02
455             	4.04639495e+02
456             	4.04667932e+02
457             	4.04695196e+02
458             	4.04721174e+02
459             	4.04745540e+02
460             	4.04768642e+02
461             	4.04790163e+02
462             	4.04810417e+02
463             	4.04830287e+02
464             	4.04850608e+02
465             	4.04871585e+02
466             	4.04892505e+02
467             	4.04913799e+02
468             	4.04935353e+02
469             	4.04957068e+02
470             	4.04978642e+02
471             	4.05000749e+02
472             	4.05022903e+02
473             	4.05044987e+02
474             	4.05067474e+02
475             	4.05090005e+02
476             	4.05112217e+02
477             	4.05134160e+02
478             	4.05155695e+02
479             	4.05177113e+02
480             	4.05197761e+02
481             	4.05217828e+02
482             	4.05238086e+02
483             	4.05258462e+02
484             	4.05279326e+02
485             	4.05300725e+02
486             	4.05322304e+02
487             	4.05344236e+02
488             	4.05366667e+02
489             	4.05388779e+02
490             	4.05410906e+02
491             	4.05432457e+02
492             	4.05453469e+02
493             	4.05473892e+02
494             	4.05493418e+02
495             	4.05511986e+02
496             	4.05530214e+02
497             	4.05547803e+02
498             	4.05564732e+02
499             	4.05580774e+02
500             	4.05596267e+02
501             	4.05611436e+02
502             	4.05626117e+02
503             	4.05640693e+02
504             	4.05655130e+02
505             	4.05670724e+02
506             	4.05687911e+02
507             	4.05706038e+02
508             	4.05724842e+02
509             	4.05744373e+02
510             	4.05763704e+02
511             	4.05783224e+02
512             	4.05801760e+02
513             	4.05819559e+02
514             	4.05835825e+02
515             	4.05850887e+02
516             	4.05865018e+02
517             	4.05879064e+02
518             	4.05893916e+02
519             	4.05909277e+02
520             	4.05925864e+02
521             	4.05944421e+02
522             	4.05964346e+02
523             	4.05984588e+02
524             	4.06004946e+02
525             	4.06023238e+02
526             	4.06039420e+02
527             	4.06054411e+02
528             	4.06068746e+02
529             	4.06082474e+02
530             	4.06095681e+02
531             	4.06108276e+02
532             	4.06120561e+02
533             	4.06132248e+02
534             	4.06143689e+02
535             	4.06154944e+02
536             	4.06166448e+02
537             	4.06177636e+02
538             	4.06189260e+02
539             	4.06201049e+02
540             	4.06212866e+02
541             	4.06225914e+02
542             	4.06239533e+02
543             	4.06254080e+02
544             	4.06269383e+02
545             	4.06284774e+02
546             	4.06300723e+02
547             	4.06317084e+02
548             	4.06333496e+02
549             	4.06349741e+02
550             	4.06365171e+02
551             	4.06379582e+02
552             	4.06393011e+02
553             	4.06405518e+02
554             	4.06417106e+02
555             	4.06427867e+02
556             	4.06438281e+02
557             	4.06448652e+02
558             	4.06458963e+02
559             	4.06469220e+02
560             	4.06479483e+02
561             	4.06489768e+02
562             	4.06500151e+02
563             	4.06510684e+02
564             	4.06521331e+02
565             	4.06532049e+02
566             	4.06542990e+02
567             	4.06553811e+02
568             	4.06564804e+02
569             	4.06576036e+02
570             	4.06587211e+02
571             	4.06598504e+02
572             	4.06609901e+02
573             	4.06621415e+02
574             	4.06633026e+02
575             	4.06644678e+02
576             	4.06656207e+02
577             	4.06668010e+02
578             	4.06680154e+02
579             	4.06692404e+02
580             	4.06704658e+02
581             	4.06716701e+02
582             	4.06728427e+02
583             	4.06739772e+02
584             	4.06750771e+02
585             	4.06761260e+02
586             	4.06771230e+02
587             	4.06780820e+02
588             	4.06790145e+02
589             	4.06799236e+02
590             	4.06808099e+02
591             	4.06816733e+02
592             	4.06825152e+02
593             	4.06833383e+02
594             	4.06841652e+02
595             	4.06850032e+02
596             	4.06858453e+02
597             	4.06866830e+02
598             	4.06875251e+02
599             	4.06883818e+02
600             	4.06892493e+02
601             	4.06901223e+02
602             	4.06909918e+02
603             	4.06918537e+02
604             	4.06926963e+02
605             	4.06935088e+02
606             	4.06942872e+02
607             	4.06950248e+02
608             	4.06957837e+02
609             	4.06965592e+02
610             	4.06973544e+02
611             	4.06981662e+02
612             	4.06989688e+02
613             	4.06997945e+02
614             	4.07006533e+02
615             	4.07015422e+02
616             	4.07024366e+02
617             	4.07033223e+02
618             	4.07041871e+02
619             	4.07050152e+02
620             	4.07057947e+02
621             	4.07065334e+02
