# Region        : cellZone component_3
# Cells         : 113
# Volume        : 1.51988427e-01
# Time          	volAverage(T)
1               	3.01140934e+02
2               	3.02243807e+02
3               	3.03146646e+02
4               	3.03891910e+02
5               	3.04560217e+02
6               	3.05181786e+02
7               	3.05760293e+02
8               	3.06294213e+02
9               	3.06793850e+02
10              	3.07266862e+02
11              	3.07722123e+02
12              	3.08169513e+02
13              	3.08596499e+02
14              	3.08996684e+02
15              	3.09379979e+02
16              	3.09737754e+02
17              	3.10093235e+02
18              	3.10427541e+02
19              	3.10764750e+02
20              	3.11087535e+02
21              	3.11383564e+02
22              	3.11652793e+02
23              	3.11895918e+02
24              	3.12116114e+02
25              	3.12311563e+02
26              	3.12479805e+02
27              	3.12639475e+02
28              	3.12789816e+02
29              	3.12935340e+02
30              	3.13080336e+02
31              	3.13231281e+02
32              	3.13386486e+02
33              	3.13553985e+02
34              	3.13731323e+02
35              	3.13915483e+02
36              	3.14101642e+02
37              	3.14281712e+02
38              	3.14440961e+02
39              	3.14580402e+02
40              	3.14696036e+02
41              	3.14784761e+02
42              	3.14847396e+02
43              	3.14889037e+02
44              	3.14910243e+02
45              	3.14921289e+02
46              	3.14939225e+02
47              	3.14966839e+02
48              	3.15004426e+02
49              	3.15059417e+02
50              	3.15140548e+02
51              	3.15248245e+02
52              	3.15366091e+02
53              	3.15469842e+02
54              	3.15563991e+02
55              	3.15636665e+02
56              	3.15683689e+02
57              	3.15709710e+02
58              	3.15721343e+02
59              	3.15719274e+02
60              	3.15707055e+02
61              	3.15688934e+02
62              	3.15674989e+02
63              	3.15671823e+02
64              	3.15676753e+02
65              	3.15697706e+02
66              	3.15734691e+02
67              	3.15797779e+02
68              	3.15884065e+02
69              	3.15973379e+02
70              	3.16067085e+02
71              	3.16158359e+02
72              	3.16237172e+02
73              	3.16298304e+02
74              	3.16337572e+02
75              	3.16359819e+02
76              	3.16361965e+02
77              	3.16349951e+02
78              	3.16329260e+02
79              	3.16309134e+02
80              	3.16303955e+02
81              	3.16319526e+02
82              	3.16356159e+02
83              	3.16409708e+02
84              	3.16475382e+02
85              	3.16551336e+02
86              	3.16627036e+02
87              	3.16700632e+02
88              	3.16763643e+02
89              	3.16811485e+02
90              	3.16840261e+02
91              	3.16856534e+02
92              	3.16864062e+02
93              	3.16863698e+02
94              	3.16854305e+02
95              	3.16841168e+02
96              	3.16827762e+02
97              	3.16814268e+02
98              	3.16811008e+02
99              	3.16818548e+02
100             	3.16841335e+02
101             	3.16885050e+02
102             	3.16949754e+02
103             	3.17014335e+02
104             	3.17077107e+02
105             	3.17130729e+02
106             	3.17168199e+02
107             	3.17181135e+02
108             	3.17171859e+02
109             	3.17142056e+02
110             	3.17099335e+02
111             	3.17061122e+02
112             	3.17029280e+02
113             	3.17013174e+02
114             	3.17017290e+02
115             	3.17041797e+02
116             	3.17085466e+02
117             	3.17146147e+02
118             	3.17193170e+02
119             	3.17227254e+02
120             	3.17244979e+02
121             	3.17250337e+02
122             	3.17244842e+02
123             	3.17230027e+02
124             	3.17205548e+02
125             	3.17177719e+02
126             	3.17159881e+02
127             	3.17158503e+02
128             	3.17174876e+02
129             	3.17219518e+02
130             	3.17281581e+02
131             	3.17344779e+02
132             	3.17400340e+02
133             	3.17437426e+02
134             	3.17452913e+02
135             	3.17449991e+02
136             	3.17427991e+02
137             	3.17390207e+02
138             	3.17344092e+02
139             	3.17287921e+02
140             	3.17246548e+02
141             	3.17226074e+02
142             	3.17225540e+02
143             	3.17249217e+02
144             	3.17287702e+02
145             	3.17333304e+02
146             	3.17369271e+02
147             	3.17390002e+02
148             	3.17390400e+02
149             	3.17368352e+02
150             	3.17326436e+02
151             	3.17265787e+02
152             	3.17202526e+02
153             	3.17155759e+02
154             	3.17134544e+02
155             	3.17140500e+02
156             	3.17170699e+02
157             	3.17217788e+02
158             	3.17265843e+02
159             	3.17308919e+02
160             	3.17331854e+02
161             	3.17330188e+02
162             	3.17303731e+02
163             	3.17266307e+02
164             	3.17213597e+02
165             	3.17156461e+02
166             	3.17102240e+02
167             	3.17054606e+02
168             	3.17018266e+02
169             	3.17002639e+02
170             	3.17006521e+02
171             	3.17024917e+02
172             	3.17054519e+02
173             	3.17091418e+02
174             	3.17132212e+02
175             	3.17174361e+02
176             	3.17217381e+02
177             	3.17260638e+02
178             	3.17304029e+02
179             	3.17346821e+02
180             	3.17388316e+02
181             	3.17425429e+02
182             	3.17453972e+02
183             	3.17470549e+02
184             	3.17475123e+02
185             	3.17469423e+02
186             	3.17454099e+02
187             	3.17437201e+02
188             	3.17426205e+02
189             	3.17425788e+02
190             	3.17437038e+02
191             	3.17459309e+02
192             	3.17489264e+02
193             	3.17520935e+02
194             	3.17555690e+02
195             	3.17587459e+02
196             	3.17611914e+02
197             	3.17627437e+02
198             	3.17636497e+02
199             	3.17639535e+02
200             	3.17637803e+02
201             	3.17634182e+02
202             	3.17628684e+02
203             	3.17627798e+02
204             	3.17631978e+02
205             	3.17641109e+02
206             	3.17654434e+02
207             	3.17671734e+02
208             	3.17692113e+02
209             	3.17714778e+02
210             	3.17739541e+02
211             	3.17766826e+02
212             	3.17796858e+02
213             	3.17825920e+02
214             	3.17851613e+02
215             	3.17872659e+02
216             	3.17889004e+02
217             	3.17900779e+02
218             	3.17908128e+02
219             	3.17911569e+02
220             	3.17909939e+02
221             	3.17904745e+02
222             	3.17895567e+02
223             	3.17885026e+02
224             	3.17874803e+02
225             	3.17866786e+02
226             	3.17861339e+02
227             	3.17858911e+02
228             	3.17859841e+02
229             	3.17864200e+02
230             	3.17872048e+02
231             	3.17883005e+02
232             	3.17896535e+02
233             	3.17910852e+02
234             	3.17924111e+02
235             	3.17935768e+02
236             	3.17943217e+02
237             	3.17946055e+02
238             	3.17944656e+02
239             	3.17939758e+02
240             	3.17932686e+02
241             	3.17925021e+02
242             	3.17917973e+02
243             	3.17912797e+02
244             	3.17909864e+02
245             	3.17908899e+02
246             	3.17910298e+02
247             	3.17913999e+02
248             	3.17919573e+02
249             	3.17926499e+02
250             	3.17934753e+02
251             	3.17943977e+02
252             	3.17954201e+02
253             	3.17965718e+02
254             	3.17978079e+02
255             	3.17990916e+02
256             	3.18002467e+02
257             	3.18012031e+02
258             	3.18019306e+02
259             	3.18023188e+02
260             	3.18022757e+02
261             	3.18017505e+02
262             	3.18008190e+02
263             	3.17995931e+02
264             	3.17981971e+02
265             	3.17968065e+02
266             	3.17957657e+02
267             	3.17950634e+02
268             	3.17947241e+02
269             	3.17947602e+02
270             	3.17951747e+02
271             	3.17959076e+02
272             	3.17968317e+02
273             	3.17978309e+02
274             	3.17988168e+02
275             	3.17997048e+02
276             	3.18004588e+02
277             	3.18010562e+02
278             	3.18013867e+02
279             	3.18013815e+02
280             	3.18010465e+02
281             	3.18003308e+02
282             	3.17993383e+02
283             	3.17981998e+02
284             	3.17969826e+02
285             	3.17958460e+02
286             	3.17949325e+02
287             	3.17943633e+02
288             	3.17941377e+02
289             	3.17942729e+02
290             	3.17947258e+02
291             	3.17954423e+02
292             	3.17963140e+02
293             	3.17972619e+02
294             	3.17981284e+02
295             	3.17986953e+02
296             	3.17989462e+02
297             	3.17988968e+02
298             	3.17986127e+02
299             	3.17981508e+02
300             	3.17974970e+02
301             	3.17966635e+02
302             	3.17957263e+02
303             	3.17947564e+02
304             	3.17939887e+02
305             	3.17935469e+02
306             	3.17934416e+02
307             	3.17936583e+02
308             	3.17941577e+02
309             	3.17948424e+02
310             	3.17955711e+02
311             	3.17962165e+02
312             	3.17966459e+02
313             	3.17968290e+02
314             	3.17967792e+02
315             	3.17965436e+02
316             	3.17961942e+02
317             	3.17958055e+02
318             	3.17953906e+02
319             	3.17949782e+02
320             	3.17945698e+02
321             	3.17941924e+02
322             	3.17939350e+02
323             	3.17938686e+02
324             	3.17939927e+02
325             	3.17943227e+02
326             	3.17948943e+02
327             	3.17957047e+02
328             	3.17967453e+02
329             	3.17979093e+02
330             	3.17990743e+02
331             	3.18000636e+02
332             	3.18007165e+02
333             	3.18009285e+02
334             	3.18007172e+02
335             	3.18001141e+02
336             	3.17992509e+02
337             	3.17982610e+02
338             	3.17972819e+02
339             	3.17964928e+02
340             	3.17959766e+02
341             	3.17958338e+02
342             	3.17959892e+02
343             	3.17964282e+02
344             	3.17971089e+02
345             	3.17979292e+02
346             	3.17987633e+02
347             	3.17994360e+02
348             	3.17998515e+02
349             	3.17999568e+02
350             	3.17997928e+02
351             	3.17993963e+02
352             	3.17988409e+02
353             	3.17982066e+02
354             	3.17975503e+02
355             	3.17969633e+02
356             	3.17964801e+02
357             	3.17961539e+02
358             	3.17959946e+02
359             	3.17959822e+02
360             	3.17960721e+02
361             	3.17962594e+02
362             	3.17965331e+02
363             	3.17968767e+02
364             	3.17972983e+02
365             	3.17978036e+02
366             	3.17983835e+02
367             	3.17990083e+02
368             	3.17995889e+02
369             	3.18000301e+02
370             	3.18001678e+02
371             	3.17999553e+02
372             	3.17994262e+02
373             	3.17986498e+02
374             	3.17977249e+02
375             	3.17967606e+02
376             	3.17959617e+02
377             	3.17954387e+02
378             	3.17952510e+02
379             	3.17953767e+02
380             	3.17957575e+02
381             	3.17963351e+02
382             	3.17970287e+02
383             	3.17977155e+02
384             	3.17982343e+02
385             	3.17985155e+02
386             	3.17985182e+02
387             	3.17982540e+02
388             	3.17978142e+02
389             	3.17971927e+02
390             	3.17964804e+02
391             	3.17957819e+02
392             	3.17952120e+02
393             	3.17948460e+02
394             	3.17947126e+02
395             	3.17948049e+02
396             	3.17951128e+02
397             	3.17955886e+02
398             	3.17961619e+02
399             	3.17967282e+02
400             	3.17972047e+02
401             	3.17975651e+02
402             	3.17977646e+02
403             	3.17978043e+02
404             	3.17977045e+02
405             	3.17975224e+02
406             	3.17972463e+02
407             	3.17968822e+02
408             	3.17964530e+02
409             	3.17960049e+02
410             	3.17956134e+02
411             	3.17953526e+02
412             	3.17952533e+02
413             	3.17953469e+02
414             	3.17956206e+02
415             	3.17960196e+02
416             	3.17965027e+02
417             	3.17970081e+02
418             	3.17974621e+02
419             	3.17977716e+02
420             	3.17979235e+02
421             	3.17979072e+02
422             	3.17977711e+02
423             	3.17975624e+02
424             	3.17973156e+02
425             	3.17970160e+02
426             	3.17966753e+02
427             	3.17963287e+02
428             	3.17960373e+02
429             	3.17958163e+02
430             	3.17956943e+02
431             	3.17956974e+02
432             	3.17958241e+02
433             	3.17960582e+02
434             	3.17963778e+02
435             	3.17967725e+02
436             	3.17971964e+02
437             	3.17976318e+02
438             	3.17980358e+02
439             	3.17983798e+02
440             	3.17986453e+02
441             	3.17987865e+02
442             	3.17987988e+02
443             	3.17986966e+02
444             	3.17984971e+02
445             	3.17982349e+02
446             	3.17979751e+02
447             	3.17977226e+02
448             	3.17975012e+02
449             	3.17973402e+02
450             	3.17972701e+02
451             	3.17973071e+02
452             	3.17974319e+02
453             	3.17976251e+02
454             	3.17978613e+02
455             	3.17981126e+02
456             	3.17983516e+02
457             	3.17985650e+02
458             	3.17987486e+02
459             	3.17989127e+02
460             	3.17990516e+02
461             	3.17991637e+02
462             	3.17992469e+02
463             	3.17992936e+02
464             	3.17993047e+02
465             	3.17992756e+02
466             	3.17991954e+02
467             	3.17990678e+02
468             	3.17989072e+02
469             	3.17987235e+02
470             	3.17985319e+02
471             	3.17983468e+02
472             	3.17981800e+02
473             	3.17980493e+02
474             	3.17979635e+02
475             	3.17979379e+02
476             	3.17979654e+02
477             	3.17980304e+02
478             	3.17981192e+02
479             	3.17982188e+02
480             	3.17983234e+02
481             	3.17984220e+02
482             	3.17985048e+02
483             	3.17985669e+02
484             	3.17985941e+02
485             	3.17985938e+02
486             	3.17985685e+02
487             	3.17985254e+02
488             	3.17984692e+02
489             	3.17983994e+02
490             	3.17983141e+02
491             	3.17982361e+02
492             	3.17981705e+02
493             	3.17981271e+02
494             	3.17981048e+02
495             	3.17981002e+02
496             	3.17981131e+02
497             	3.17981516e+02
498             	3.17982163e+02
499             	3.17983063e+02
500             	3.17984080e+02
501             	3.17985095e+02
502             	3.17985970e+02
503             	3.17986566e+02
504             	3.17986852e+02
505             	3.17986807e+02
506             	3.17986403e+02
507             	3.17985686e+02
508             	3.17984715e+02
509             	3.17983543e+02
510             	3.17982228e+02
511             	3.17980844e+02
512             	3.17979479e+02
513             	3.17978283e+02
514             	3.17977471e+02
515             	3.17977073e+02
516             	3.17977037e+02
517             	3.17977349e+02
518             	3.17977969e+02
519             	3.17978852e+02
520             	3.17979903e+02
521             	3.17980953e+02
522             	3.17981740e+02
523             	3.17982186e+02
524             	3.17982230e+02
525             	3.17981876e+02
526             	3.17981190e+02
527             	3.17980187e+02
528             	3.17979013e+02
529             	3.17977810e+02
530             	3.17976675e+02
531             	3.17975939e+02
532             	3.17975581e+02
533             	3.17975567e+02
534             	3.17975849e+02
535             	3.17976424e+02
536             	3.17977208e+02
537             	3.17978068e+02
538             	3.17978919e+02
539             	3.17979667e+02
540             	3.17980102e+02
541             	3.17980243e+02
542             	3.17980192e+02
543             	3.17979921e+02
544             	3.17979555e+02
545             	3.17979136e+02
546             	3.17978771e+02
547             	3.17978363e+02
548             	3.17977928e+02
549             	3.17977483e+02
550             	3.17976965e+02
551             	3.17976431e+02
552             	3.17976000e+02
553             	3.17975878e+02
554             	3.17976031e+02
555             	3.17976420e+02
556             	3.17977005e+02
557             	3.17977735e+02
558             	3.17978537e+02
559             	3.17979301e+02
560             	3.17979895e+02
561             	3.17980240e+02
562             	3.17980371e+02
563             	3.17980305e+02
564             	3.17980074e+02
565             	3.17979677e+02
566             	3.17979182e+02
567             	3.17978633e+02
568             	3.17978100e+02
569             	3.17977587e+02
570             	3.17977114e+02
571             	3.17976700e+02
572             	3.17976346e+02
573             	3.17976048e+02
574             	3.17975822e+02
575             	3.17975698e+02
576             	3.17975638e+02
577             	3.17975631e+02
578             	3.17975709e+02
579             	3.17975887e+02
580             	3.17976211e+02
581             	3.17976664e+02
582             	3.17977210e+02
583             	3.17977818e+02
584             	3.17978417e+02
585             	3.17978922e+02
586             	3.17979307e+02
587             	3.17979547e+02
588             	3.17979651e+02
589             	3.17979632e+02
590             	3.17979497e+02
591             	3.17979306e+02
592             	3.17979067e+02
593             	3.17978811e+02
594             	3.17978554e+02
595             	3.17978318e+02
596             	3.17978091e+02
597             	3.17977872e+02
598             	3.17977684e+02
599             	3.17977506e+02
600             	3.17977322e+02
601             	3.17977114e+02
602             	3.17976919e+02
603             	3.17976741e+02
604             	3.17976580e+02
605             	3.17976449e+02
606             	3.17976362e+02
607             	3.17976345e+02
608             	3.17976432e+02
609             	3.17976651e+02
610             	3.17976951e+02
611             	3.17977275e+02
612             	3.17977641e+02
613             	3.17978038e+02
614             	3.17978428e+02
615             	3.17978775e+02
616             	3.17979070e+02
617             	3.17979301e+02
618             	3.17979465e+02
619             	3.17979536e+02
620             	3.17979531e+02
621             	3.17979460e+02
