# Region        : cellZone component_1
# Cells         : 200
# Volume        : 3.58228472e-01
# Time          	volAverage(T)
1               	3.00244868e+02
2               	3.00486905e+02
3               	3.00717216e+02
4               	3.00939526e+02
5               	3.01156876e+02
6               	3.01370598e+02
7               	3.01581278e+02
8               	3.01789700e+02
9               	3.01996726e+02
10              	3.02202214e+02
11              	3.02405856e+02
12              	3.02608365e+02
13              	3.02808839e+02
14              	3.03006291e+02
15              	3.03199194e+02
16              	3.03387809e+02
17              	3.03572464e+02
18              	3.03753096e+02
19              	3.03934573e+02
20              	3.04116423e+02
21              	3.04296740e+02
22              	3.04473911e+02
23              	3.04647828e+02
24              	3.04819686e+02
25              	3.04988729e+02
26              	3.05156182e+02
27              	3.05324258e+02
28              	3.05491439e+02
29              	3.05653602e+02
30              	3.05813518e+02
31              	3.05969754e+02
32              	3.06119517e+02
33              	3.06260776e+02
34              	3.06395098e+02
35              	3.06531776e+02
36              	3.06674140e+02
37              	3.06816827e+02
38              	3.06958195e+02
39              	3.07097911e+02
40              	3.07234466e+02
41              	3.07369380e+02
42              	3.07500888e+02
43              	3.07629672e+02
44              	3.07755166e+02
45              	3.07878309e+02
46              	3.07996440e+02
47              	3.08115096e+02
48              	3.08233566e+02
49              	3.08351814e+02
50              	3.08471451e+02
51              	3.08591476e+02
52              	3.08706179e+02
53              	3.08810955e+02
54              	3.08918598e+02
55              	3.09025072e+02
56              	3.09130788e+02
57              	3.09235505e+02
58              	3.09340444e+02
59              	3.09443536e+02
60              	3.09544276e+02
61              	3.09641253e+02
62              	3.09735443e+02
63              	3.09826903e+02
64              	3.09915259e+02
65              	3.10004533e+02
66              	3.10092449e+02
67              	3.10181247e+02
68              	3.10269887e+02
69              	3.10359696e+02
70              	3.10449152e+02
71              	3.10534733e+02
72              	3.10616130e+02
73              	3.10697412e+02
74              	3.10778820e+02
75              	3.10856322e+02
76              	3.10929425e+02
77              	3.10999009e+02
78              	3.11067129e+02
79              	3.11133799e+02
80              	3.11199808e+02
81              	3.11267277e+02
82              	3.11334020e+02
83              	3.11404035e+02
84              	3.11475101e+02
85              	3.11544824e+02
86              	3.11610059e+02
87              	3.11670684e+02
88              	3.11731575e+02
89              	3.11792114e+02
90              	3.11851146e+02
91              	3.11907647e+02
92              	3.11962524e+02
93              	3.12016397e+02
94              	3.12070015e+02
95              	3.12123653e+02
96              	3.12177863e+02
97              	3.12233174e+02
98              	3.12288884e+02
99              	3.12347233e+02
100             	3.12406799e+02
101             	3.12466783e+02
102             	3.12526604e+02
103             	3.12586782e+02
104             	3.12647575e+02
105             	3.12707827e+02
106             	3.12766924e+02
107             	3.12825596e+02
108             	3.12882807e+02
109             	3.12938738e+02
110             	3.12994143e+02
111             	3.13048886e+02
112             	3.13103619e+02
113             	3.13157969e+02
114             	3.13211170e+02
115             	3.13263488e+02
116             	3.13317267e+02
117             	3.13372210e+02
118             	3.13427458e+02
119             	3.13482651e+02
120             	3.13537847e+02
121             	3.13591335e+02
122             	3.13642879e+02
123             	3.13693099e+02
124             	3.13742126e+02
125             	3.13790536e+02
126             	3.13838713e+02
127             	3.13887004e+02
128             	3.13935560e+02
129             	3.13984321e+02
130             	3.14032763e+02
131             	3.14081481e+02
132             	3.14130044e+02
133             	3.14178094e+02
134             	3.14225250e+02
135             	3.14271981e+02
136             	3.14318267e+02
137             	3.14364124e+02
138             	3.14409484e+02
139             	3.14454479e+02
140             	3.14498888e+02
141             	3.14542764e+02
142             	3.14586132e+02
143             	3.14629051e+02
144             	3.14671511e+02
145             	3.14711555e+02
146             	3.14753341e+02
147             	3.14795463e+02
148             	3.14837195e+02
149             	3.14878869e+02
150             	3.14920701e+02
151             	3.14962233e+02
152             	3.15002927e+02
153             	3.15042992e+02
154             	3.15082792e+02
155             	3.15122261e+02
156             	3.15161368e+02
157             	3.15199753e+02
158             	3.15237765e+02
159             	3.15275769e+02
160             	3.15313756e+02
161             	3.15350937e+02
162             	3.15387451e+02
163             	3.15423180e+02
164             	3.15458086e+02
165             	3.15492642e+02
166             	3.15526492e+02
167             	3.15560531e+02
168             	3.15593366e+02
169             	3.15625942e+02
170             	3.15658699e+02
171             	3.15691643e+02
172             	3.15724695e+02
173             	3.15757466e+02
174             	3.15789937e+02
175             	3.15822242e+02
176             	3.15853514e+02
177             	3.15884260e+02
178             	3.15914636e+02
179             	3.15944352e+02
180             	3.15973542e+02
181             	3.16002519e+02
182             	3.16030990e+02
183             	3.16059069e+02
184             	3.16087170e+02
185             	3.16114825e+02
186             	3.16141769e+02
187             	3.16168561e+02
188             	3.16195418e+02
189             	3.16222546e+02
190             	3.16248787e+02
191             	3.16275227e+02
192             	3.16301961e+02
193             	3.16328967e+02
194             	3.16355700e+02
195             	3.16382001e+02
196             	3.16407994e+02
197             	3.16433987e+02
198             	3.16460201e+02
199             	3.16486248e+02
200             	3.16510921e+02
201             	3.16535811e+02
202             	3.16560743e+02
203             	3.16585589e+02
204             	3.16610216e+02
205             	3.16634002e+02
206             	3.16657371e+02
207             	3.16680222e+02
208             	3.16702670e+02
209             	3.16725241e+02
210             	3.16746288e+02
211             	3.16768490e+02
212             	3.16791251e+02
213             	3.16813284e+02
214             	3.16835546e+02
215             	3.16857449e+02
216             	3.16878530e+02
217             	3.16898777e+02
218             	3.16917829e+02
219             	3.16936356e+02
220             	3.16954377e+02
221             	3.16971907e+02
222             	3.16989194e+02
223             	3.17006524e+02
224             	3.17022297e+02
225             	3.17039535e+02
226             	3.17057581e+02
227             	3.17076331e+02
228             	3.17095635e+02
229             	3.17114186e+02
230             	3.17133588e+02
231             	3.17152547e+02
232             	3.17170647e+02
233             	3.17188593e+02
234             	3.17206258e+02
235             	3.17223588e+02
236             	3.17240686e+02
237             	3.17257535e+02
238             	3.17273916e+02
239             	3.17290226e+02
240             	3.17306324e+02
241             	3.17322522e+02
242             	3.17338947e+02
243             	3.17355589e+02
244             	3.17372446e+02
245             	3.17388753e+02
246             	3.17405075e+02
247             	3.17421524e+02
248             	3.17437971e+02
249             	3.17453506e+02
250             	3.17469249e+02
251             	3.17484358e+02
252             	3.17498695e+02
253             	3.17512807e+02
254             	3.17526588e+02
255             	3.17539591e+02
256             	3.17552189e+02
257             	3.17564783e+02
258             	3.17577340e+02
259             	3.17588552e+02
260             	3.17600643e+02
261             	3.17613197e+02
262             	3.17626052e+02
263             	3.17639003e+02
264             	3.17651714e+02
265             	3.17664175e+02
266             	3.17676318e+02
267             	3.17687760e+02
268             	3.17699385e+02
269             	3.17711181e+02
270             	3.17722447e+02
271             	3.17733824e+02
272             	3.17745306e+02
273             	3.17756847e+02
274             	3.17768333e+02
275             	3.17779550e+02
276             	3.17790859e+02
277             	3.17801975e+02
278             	3.17812969e+02
279             	3.17823986e+02
280             	3.17834681e+02
281             	3.17845507e+02
282             	3.17855936e+02
283             	3.17866264e+02
284             	3.17876619e+02
285             	3.17887533e+02
286             	3.17897835e+02
287             	3.17908215e+02
288             	3.17918709e+02
289             	3.17929453e+02
290             	3.17940106e+02
291             	3.17950791e+02
292             	3.17961529e+02
293             	3.17972255e+02
294             	3.17983102e+02
295             	3.17993743e+02
296             	3.18004690e+02
297             	3.18015433e+02
298             	3.18025333e+02
299             	3.18035430e+02
300             	3.18045429e+02
301             	3.18055168e+02
302             	3.18064485e+02
303             	3.18073715e+02
304             	3.18082716e+02
305             	3.18091647e+02
306             	3.18100679e+02
307             	3.18109541e+02
308             	3.18118280e+02
309             	3.18127022e+02
310             	3.18135593e+02
311             	3.18143939e+02
312             	3.18152186e+02
313             	3.18160200e+02
314             	3.18168025e+02
315             	3.18175799e+02
316             	3.18183847e+02
317             	3.18191419e+02
318             	3.18199066e+02
319             	3.18206593e+02
320             	3.18214196e+02
321             	3.18222019e+02
322             	3.18230076e+02
323             	3.18238377e+02
324             	3.18246596e+02
325             	3.18254744e+02
326             	3.18262800e+02
327             	3.18270830e+02
328             	3.18278779e+02
329             	3.18286624e+02
330             	3.18294371e+02
331             	3.18301871e+02
332             	3.18308974e+02
333             	3.18315821e+02
334             	3.18322713e+02
335             	3.18329557e+02
336             	3.18336289e+02
337             	3.18342972e+02
338             	3.18349463e+02
339             	3.18355870e+02
340             	3.18361879e+02
341             	3.18367920e+02
342             	3.18373996e+02
343             	3.18379998e+02
344             	3.18386129e+02
345             	3.18392373e+02
346             	3.18398183e+02
347             	3.18403786e+02
348             	3.18409584e+02
349             	3.18415488e+02
350             	3.18421476e+02
351             	3.18427493e+02
352             	3.18433486e+02
353             	3.18439465e+02
354             	3.18445354e+02
355             	3.18451239e+02
356             	3.18457159e+02
357             	3.18463085e+02
358             	3.18468867e+02
359             	3.18474523e+02
360             	3.18480141e+02
361             	3.18485714e+02
362             	3.18491120e+02
363             	3.18496459e+02
364             	3.18501868e+02
365             	3.18507057e+02
366             	3.18512162e+02
367             	3.18517296e+02
368             	3.18522549e+02
369             	3.18527685e+02
370             	3.18532724e+02
371             	3.18537729e+02
372             	3.18542428e+02
373             	3.18547002e+02
374             	3.18551469e+02
375             	3.18555902e+02
376             	3.18560456e+02
377             	3.18565002e+02
378             	3.18569408e+02
379             	3.18573633e+02
380             	3.18577732e+02
381             	3.18582170e+02
382             	3.18586111e+02
383             	3.18590075e+02
384             	3.18594149e+02
385             	3.18598247e+02
386             	3.18602334e+02
387             	3.18606410e+02
388             	3.18610412e+02
389             	3.18614461e+02
390             	3.18618483e+02
391             	3.18622361e+02
392             	3.18626276e+02
393             	3.18630128e+02
394             	3.18633996e+02
395             	3.18637847e+02
396             	3.18641744e+02
397             	3.18645561e+02
398             	3.18649479e+02
399             	3.18653419e+02
400             	3.18657342e+02
401             	3.18661221e+02
402             	3.18665004e+02
403             	3.18668588e+02
404             	3.18672097e+02
405             	3.18675592e+02
406             	3.18679047e+02
407             	3.18682442e+02
408             	3.18685915e+02
409             	3.18689352e+02
410             	3.18692675e+02
411             	3.18695902e+02
412             	3.18699096e+02
413             	3.18702294e+02
414             	3.18705483e+02
415             	3.18708649e+02
416             	3.18711798e+02
417             	3.18714914e+02
418             	3.18718008e+02
419             	3.18721091e+02
420             	3.18724167e+02
421             	3.18727219e+02
422             	3.18730199e+02
423             	3.18733155e+02
424             	3.18736104e+02
425             	3.18739013e+02
426             	3.18741862e+02
427             	3.18744660e+02
428             	3.18747370e+02
429             	3.18750089e+02
430             	3.18752796e+02
431             	3.18755455e+02
432             	3.18758066e+02
433             	3.18760555e+02
434             	3.18762971e+02
435             	3.18765332e+02
436             	3.18767650e+02
437             	3.18769893e+02
438             	3.18772057e+02
439             	3.18774146e+02
440             	3.18776267e+02
441             	3.18778456e+02
442             	3.18780662e+02
443             	3.18782959e+02
444             	3.18785161e+02
445             	3.18787356e+02
446             	3.18789578e+02
447             	3.18791815e+02
448             	3.18794100e+02
449             	3.18796413e+02
450             	3.18798751e+02
451             	3.18801097e+02
452             	3.18803408e+02
453             	3.18805724e+02
454             	3.18807977e+02
455             	3.18810153e+02
456             	3.18812351e+02
457             	3.18814573e+02
458             	3.18816762e+02
459             	3.18818884e+02
460             	3.18820963e+02
461             	3.18823014e+02
462             	3.18825063e+02
463             	3.18827058e+02
464             	3.18828997e+02
465             	3.18830920e+02
466             	3.18832818e+02
467             	3.18834655e+02
468             	3.18836485e+02
469             	3.18838292e+02
470             	3.18840076e+02
471             	3.18841815e+02
472             	3.18843572e+02
473             	3.18845319e+02
474             	3.18847057e+02
475             	3.18848762e+02
476             	3.18850478e+02
477             	3.18852174e+02
478             	3.18853857e+02
479             	3.18855513e+02
480             	3.18857178e+02
481             	3.18858838e+02
482             	3.18860461e+02
483             	3.18862032e+02
484             	3.18863619e+02
485             	3.18865174e+02
486             	3.18866699e+02
487             	3.18868178e+02
488             	3.18869650e+02
489             	3.18871126e+02
490             	3.18872549e+02
491             	3.18873915e+02
492             	3.18875293e+02
493             	3.18876660e+02
494             	3.18878022e+02
495             	3.18879373e+02
496             	3.18880746e+02
497             	3.18882094e+02
498             	3.18883445e+02
499             	3.18884718e+02
500             	3.18886039e+02
501             	3.18887354e+02
502             	3.18888644e+02
503             	3.18889893e+02
504             	3.18891150e+02
505             	3.18892395e+02
506             	3.18893628e+02
507             	3.18894830e+02
508             	3.18896043e+02
509             	3.18897232e+02
510             	3.18898411e+02
511             	3.18899553e+02
512             	3.18900692e+02
513             	3.18901813e+02
514             	3.18902919e+02
515             	3.18903993e+02
516             	3.18905058e+02
517             	3.18906096e+02
518             	3.18907131e+02
519             	3.18908141e+02
520             	3.18909159e+02
521             	3.18910164e+02
522             	3.18911168e+02
523             	3.18912153e+02
524             	3.18913146e+02
525             	3.18914122e+02
526             	3.18915093e+02
527             	3.18916038e+02
528             	3.18916994e+02
529             	3.18917942e+02
530             	3.18918890e+02
531             	3.18919817e+02
532             	3.18920753e+02
533             	3.18921679e+02
534             	3.18922600e+02
535             	3.18923497e+02
536             	3.18924401e+02
537             	3.18925291e+02
538             	3.18926177e+02
539             	3.18927041e+02
540             	3.18927912e+02
541             	3.18928766e+02
542             	3.18929615e+02
543             	3.18930439e+02
544             	3.18931269e+02
545             	3.18932085e+02
546             	3.18932897e+02
547             	3.18933683e+02
548             	3.18934473e+02
549             	3.18935248e+02
550             	3.18936019e+02
551             	3.18936769e+02
552             	3.18937526e+02
553             	3.18938270e+02
554             	3.18939015e+02
555             	3.18939741e+02
556             	3.18940475e+02
557             	3.18941197e+02
558             	3.18941910e+02
559             	3.18942602e+02
560             	3.18943300e+02
561             	3.18943982e+02
562             	3.18944663e+02
563             	3.18945331e+02
564             	3.18946003e+02
565             	3.18946662e+02
566             	3.18947321e+02
567             	3.18947962e+02
568             	3.18948607e+02
569             	3.18949236e+02
570             	3.18949864e+02
571             	3.18950470e+02
572             	3.18951071e+02
573             	3.18951667e+02
574             	3.18952261e+02
575             	3.18952833e+02
576             	3.18953404e+02
577             	3.18953964e+02
578             	3.18954523e+02
579             	3.18955062e+02
580             	3.18955600e+02
581             	3.18956133e+02
582             	3.18956670e+02
583             	3.18957190e+02
584             	3.18957710e+02
585             	3.18958226e+02
586             	3.18958749e+02
587             	3.18959259e+02
588             	3.18959766e+02
589             	3.18960270e+02
590             	3.18960781e+02
591             	3.18961275e+02
592             	3.18961768e+02
593             	3.18962251e+02
594             	3.18962736e+02
595             	3.18963207e+02
596             	3.18963680e+02
597             	3.18964151e+02
598             	3.18964627e+02
599             	3.18965084e+02
600             	3.18965549e+02
601             	3.18966010e+02
602             	3.18966471e+02
603             	3.18966915e+02
604             	3.18967365e+02
605             	3.18967806e+02
606             	3.18968243e+02
607             	3.18968664e+02
608             	3.18969084e+02
609             	3.18969496e+02
610             	3.18969910e+02
611             	3.18970310e+02
612             	3.18970712e+02
613             	3.18971107e+02
614             	3.18971507e+02
615             	3.18971893e+02
616             	3.18972280e+02
617             	3.18972660e+02
618             	3.18973042e+02
619             	3.18973412e+02
620             	3.18973780e+02
621             	3.18974140e+02
