# Region        : cellZone component_3
# Cells         : 90
# Volume        : 1.30326643e-01
# Time          	volAverage(T)
1               	3.01651067e+02
2               	3.03287409e+02
3               	3.04831363e+02
4               	3.06318610e+02
5               	3.07771064e+02
6               	3.09194006e+02
7               	3.10590339e+02
8               	3.11969943e+02
9               	3.13340949e+02
10              	3.14701126e+02
11              	3.16035471e+02
12              	3.17344051e+02
13              	3.18638885e+02
14              	3.19922542e+02
15              	3.21164712e+02
16              	3.22381005e+02
17              	3.23534308e+02
18              	3.24636395e+02
19              	3.25700347e+02
20              	3.26746586e+02
21              	3.27802443e+02
22              	3.28847707e+02
23              	3.29903715e+02
24              	3.30961755e+02
25              	3.32028117e+02
26              	3.33071443e+02
27              	3.34101932e+02
28              	3.35113482e+02
29              	3.36106344e+02
30              	3.37060629e+02
31              	3.37971067e+02
32              	3.38829642e+02
33              	3.39655424e+02
34              	3.40456500e+02
35              	3.41238197e+02
36              	3.42011098e+02
37              	3.42769878e+02
38              	3.43537752e+02
39              	3.44315968e+02
40              	3.45124959e+02
41              	3.45904096e+02
42              	3.46635724e+02
43              	3.47343469e+02
44              	3.48077068e+02
45              	3.48792650e+02
46              	3.49473347e+02
47              	3.50147029e+02
48              	3.50838728e+02
49              	3.51537458e+02
50              	3.52238689e+02
51              	3.52923234e+02
52              	3.53582904e+02
53              	3.54256753e+02
54              	3.54922561e+02
55              	3.55518805e+02
56              	3.56107831e+02
57              	3.56654941e+02
58              	3.57183689e+02
59              	3.57713971e+02
60              	3.58241321e+02
61              	3.58777570e+02
62              	3.59311567e+02
63              	3.59840415e+02
64              	3.60361264e+02
65              	3.60883654e+02
66              	3.61410141e+02
67              	3.61957485e+02
68              	3.62530341e+02
69              	3.63084395e+02
70              	3.63647540e+02
71              	3.64200117e+02
72              	3.64765089e+02
73              	3.65325722e+02
74              	3.65892460e+02
75              	3.66454937e+02
76              	3.67011848e+02
77              	3.67574362e+02
78              	3.68119808e+02
79              	3.68669840e+02
80              	3.69204038e+02
81              	3.69715420e+02
82              	3.70195688e+02
83              	3.70647952e+02
84              	3.71060474e+02
85              	3.71469531e+02
86              	3.71861521e+02
87              	3.72239014e+02
88              	3.72620521e+02
89              	3.73012285e+02
90              	3.73420003e+02
91              	3.73834585e+02
92              	3.74259225e+02
93              	3.74693494e+02
94              	3.75142940e+02
95              	3.75600199e+02
96              	3.76066752e+02
97              	3.76542616e+02
98              	3.77037004e+02
99              	3.77514241e+02
100             	3.77957317e+02
101             	3.78347526e+02
102             	3.78737320e+02
103             	3.79112132e+02
104             	3.79469629e+02
105             	3.79805796e+02
106             	3.80123914e+02
107             	3.80436951e+02
108             	3.80744754e+02
109             	3.81069070e+02
110             	3.81400583e+02
111             	3.81744588e+02
112             	3.82110159e+02
113             	3.82484272e+02
114             	3.82884860e+02
115             	3.83308032e+02
116             	3.83737330e+02
117             	3.84149865e+02
118             	3.84552388e+02
119             	3.84940774e+02
120             	3.85304208e+02
121             	3.85657774e+02
122             	3.86005854e+02
123             	3.86351060e+02
124             	3.86693093e+02
125             	3.87033368e+02
126             	3.87385691e+02
127             	3.87723316e+02
128             	3.88057306e+02
129             	3.88401666e+02
130             	3.88747315e+02
131             	3.89093294e+02
132             	3.89431405e+02
133             	3.89780558e+02
134             	3.90120432e+02
135             	3.90457976e+02
136             	3.90787085e+02
137             	3.91107636e+02
138             	3.91422122e+02
139             	3.91725788e+02
140             	3.92022687e+02
141             	3.92279242e+02
142             	3.92538425e+02
143             	3.92783759e+02
144             	3.93022249e+02
145             	3.93255334e+02
146             	3.93478453e+02
147             	3.93707190e+02
148             	3.93934602e+02
149             	3.94166316e+02
150             	3.94405424e+02
151             	3.94653211e+02
152             	3.94915941e+02
153             	3.95191710e+02
154             	3.95474113e+02
155             	3.95752811e+02
156             	3.96040983e+02
157             	3.96324450e+02
158             	3.96613968e+02
159             	3.96897363e+02
160             	3.97170968e+02
161             	3.97441069e+02
162             	3.97704056e+02
163             	3.97954885e+02
164             	3.98189335e+02
165             	3.98414457e+02
166             	3.98627325e+02
167             	3.98833353e+02
168             	3.99039656e+02
169             	3.99238502e+02
170             	3.99428276e+02
171             	3.99618486e+02
172             	3.99812550e+02
173             	4.00013548e+02
174             	4.00220507e+02
175             	4.00426181e+02
176             	4.00640691e+02
177             	4.00862062e+02
178             	4.01094036e+02
179             	4.01333416e+02
180             	4.01584750e+02
181             	4.01843226e+02
182             	4.02099991e+02
183             	4.02362157e+02
184             	4.02619027e+02
185             	4.02871348e+02
186             	4.03105453e+02
187             	4.03341284e+02
188             	4.03567442e+02
189             	4.03784280e+02
190             	4.03990425e+02
191             	4.04193849e+02
192             	4.04391789e+02
193             	4.04571342e+02
194             	4.04741244e+02
195             	4.04915596e+02
196             	4.05084751e+02
197             	4.05262268e+02
198             	4.05444336e+02
199             	4.05637356e+02
200             	4.05835214e+02
201             	4.06038081e+02
202             	4.06247006e+02
203             	4.06462095e+02
204             	4.06663780e+02
205             	4.06868736e+02
206             	4.07087039e+02
207             	4.07296868e+02
208             	4.07505034e+02
209             	4.07711453e+02
210             	4.07914603e+02
211             	4.08114247e+02
212             	4.08297210e+02
213             	4.08478194e+02
214             	4.08652016e+02
215             	4.08819732e+02
216             	4.08970151e+02
217             	4.09120876e+02
218             	4.09268156e+02
219             	4.09403564e+02
220             	4.09542685e+02
221             	4.09673872e+02
222             	4.09803552e+02
223             	4.09932321e+02
224             	4.10062841e+02
225             	4.10196397e+02
226             	4.10338922e+02
227             	4.10485750e+02
228             	4.10639030e+02
229             	4.10802352e+02
230             	4.10965973e+02
231             	4.11139460e+02
232             	4.11315528e+02
233             	4.11492454e+02
234             	4.11680850e+02
235             	4.11872842e+02
236             	4.12066348e+02
237             	4.12240255e+02
238             	4.12388151e+02
239             	4.12534224e+02
240             	4.12676247e+02
241             	4.12809033e+02
242             	4.12931038e+02
243             	4.13047032e+02
244             	4.13157041e+02
245             	4.13267706e+02
246             	4.13378745e+02
247             	4.13482965e+02
248             	4.13592121e+02
249             	4.13708402e+02
250             	4.13829122e+02
251             	4.13960238e+02
252             	4.14089947e+02
253             	4.14222793e+02
254             	4.14359723e+02
255             	4.14500015e+02
256             	4.14641313e+02
257             	4.14783938e+02
258             	4.14924655e+02
259             	4.15063377e+02
260             	4.15198822e+02
261             	4.15329990e+02
262             	4.15459380e+02
263             	4.15585272e+02
264             	4.15707687e+02
265             	4.15827733e+02
266             	4.15935017e+02
267             	4.16049808e+02
268             	4.16166205e+02
269             	4.16278905e+02
270             	4.16388537e+02
271             	4.16506488e+02
272             	4.16624144e+02
273             	4.16743737e+02
274             	4.16864636e+02
275             	4.16987495e+02
276             	4.17101101e+02
277             	4.17214552e+02
278             	4.17328752e+02
279             	4.17446648e+02
280             	4.17546856e+02
281             	4.17642556e+02
282             	4.17736868e+02
283             	4.17830846e+02
284             	4.17923324e+02
285             	4.18015055e+02
286             	4.18104336e+02
287             	4.18192849e+02
288             	4.18280619e+02
289             	4.18368150e+02
290             	4.18454204e+02
291             	4.18538669e+02
292             	4.18623609e+02
293             	4.18709037e+02
294             	4.18798589e+02
295             	4.18888088e+02
296             	4.18979855e+02
297             	4.19071064e+02
298             	4.19164797e+02
299             	4.19261677e+02
300             	4.19357647e+02
301             	4.19453789e+02
302             	4.19542513e+02
303             	4.19635015e+02
304             	4.19727970e+02
305             	4.19822596e+02
306             	4.19914719e+02
307             	4.20005602e+02
308             	4.20096506e+02
309             	4.20188596e+02
310             	4.20280713e+02
311             	4.20373680e+02
312             	4.20465433e+02
313             	4.20556527e+02
314             	4.20644970e+02
315             	4.20730530e+02
316             	4.20814258e+02
317             	4.20894463e+02
318             	4.20972703e+02
319             	4.21045977e+02
320             	4.21117961e+02
321             	4.21187102e+02
322             	4.21254482e+02
323             	4.21324182e+02
324             	4.21394168e+02
325             	4.21463081e+02
326             	4.21532571e+02
327             	4.21600534e+02
328             	4.21669722e+02
329             	4.21739657e+02
330             	4.21805426e+02
331             	4.21870040e+02
332             	4.21934994e+02
333             	4.21999339e+02
334             	4.22064118e+02
335             	4.22128180e+02
336             	4.22192002e+02
337             	4.22253770e+02
338             	4.22317275e+02
339             	4.22381282e+02
340             	4.22444049e+02
341             	4.22506348e+02
342             	4.22567270e+02
343             	4.22626976e+02
344             	4.22686029e+02
345             	4.22744388e+02
346             	4.22804012e+02
347             	4.22866069e+02
348             	4.22928605e+02
349             	4.22992232e+02
350             	4.23056485e+02
351             	4.23119798e+02
352             	4.23181720e+02
353             	4.23243080e+02
354             	4.23302886e+02
355             	4.23361290e+02
356             	4.23418197e+02
357             	4.23473102e+02
358             	4.23526841e+02
359             	4.23579263e+02
360             	4.23631056e+02
361             	4.23682655e+02
362             	4.23728476e+02
363             	4.23778017e+02
364             	4.23828443e+02
365             	4.23878596e+02
366             	4.23927736e+02
367             	4.23976297e+02
368             	4.24023177e+02
369             	4.24069453e+02
370             	4.24114725e+02
371             	4.24158851e+02
372             	4.24207287e+02
373             	4.24250746e+02
374             	4.24293156e+02
375             	4.24337343e+02
376             	4.24383173e+02
377             	4.24431063e+02
378             	4.24480151e+02
379             	4.24526838e+02
380             	4.24575077e+02
381             	4.24623915e+02
382             	4.24674213e+02
383             	4.24722698e+02
384             	4.24772629e+02
385             	4.24821789e+02
386             	4.24869509e+02
387             	4.24915503e+02
388             	4.24961581e+02
389             	4.25007235e+02
390             	4.25049863e+02
391             	4.25095924e+02
392             	4.25134461e+02
393             	4.25181050e+02
394             	4.25226795e+02
395             	4.25270353e+02
396             	4.25311084e+02
397             	4.25353847e+02
398             	4.25394314e+02
399             	4.25434657e+02
400             	4.25484648e+02
401             	4.25535238e+02
402             	4.25574118e+02
403             	4.25613431e+02
404             	4.25655996e+02
405             	4.25697768e+02
406             	4.25737617e+02
407             	4.25772410e+02
408             	4.25798323e+02
409             	4.25817174e+02
410             	4.25842575e+02
411             	4.25872041e+02
412             	4.25900260e+02
413             	4.25927506e+02
414             	4.25960036e+02
415             	4.25990089e+02
416             	4.26030633e+02
417             	4.26075197e+02
418             	4.26110046e+02
419             	4.26149604e+02
420             	4.26190519e+02
421             	4.26230158e+02
422             	4.26262424e+02
423             	4.26298797e+02
424             	4.26334697e+02
425             	4.26368779e+02
426             	4.26400304e+02
427             	4.26433304e+02
428             	4.26463297e+02
429             	4.26479644e+02
430             	4.26496253e+02
431             	4.26510943e+02
432             	4.26526360e+02
433             	4.26543466e+02
434             	4.26560927e+02
435             	4.26570275e+02
436             	4.26589435e+02
437             	4.26616445e+02
438             	4.26647388e+02
439             	4.26677167e+02
440             	4.26712593e+02
441             	4.26752184e+02
442             	4.26789304e+02
443             	4.26826046e+02
444             	4.26864041e+02
445             	4.26903975e+02
446             	4.26947084e+02
447             	4.26989125e+02
448             	4.27030607e+02
449             	4.27068121e+02
450             	4.27103842e+02
451             	4.27141045e+02
452             	4.27170528e+02
453             	4.27195504e+02
454             	4.27217993e+02
455             	4.27237996e+02
456             	4.27255086e+02
457             	4.27270006e+02
458             	4.27283914e+02
459             	4.27297318e+02
460             	4.27310580e+02
461             	4.27324292e+02
462             	4.27339109e+02
463             	4.27355430e+02
464             	4.27373293e+02
465             	4.27393242e+02
466             	4.27413400e+02
467             	4.27436902e+02
468             	4.27463401e+02
469             	4.27491943e+02
470             	4.27520939e+02
471             	4.27551502e+02
472             	4.27583730e+02
473             	4.27616099e+02
474             	4.27648124e+02
475             	4.27679920e+02
476             	4.27711989e+02
477             	4.27743531e+02
478             	4.27774162e+02
479             	4.27803950e+02
480             	4.27831247e+02
481             	4.27856786e+02
482             	4.27880972e+02
483             	4.27904885e+02
484             	4.27929884e+02
485             	4.27948504e+02
486             	4.27971578e+02
487             	4.27987079e+02
488             	4.28000410e+02
489             	4.28013363e+02
490             	4.28027736e+02
491             	4.28042903e+02
492             	4.28058130e+02
493             	4.28073672e+02
494             	4.28089033e+02
495             	4.28108434e+02
496             	4.28128519e+02
497             	4.28148699e+02
498             	4.28168524e+02
499             	4.28188689e+02
500             	4.28209403e+02
501             	4.28229672e+02
502             	4.28249345e+02
503             	4.28268918e+02
504             	4.28287384e+02
505             	4.28306811e+02
506             	4.28323827e+02
507             	4.28338966e+02
508             	4.28352662e+02
509             	4.28364414e+02
510             	4.28374211e+02
511             	4.28381776e+02
512             	4.28387554e+02
513             	4.28391805e+02
514             	4.28396756e+02
515             	4.28399181e+02
516             	4.28401032e+02
517             	4.28403608e+02
518             	4.28407691e+02
519             	4.28414369e+02
520             	4.28422279e+02
521             	4.28434435e+02
522             	4.28449253e+02
523             	4.28466339e+02
524             	4.28484853e+02
525             	4.28505278e+02
526             	4.28527749e+02
527             	4.28551411e+02
528             	4.28575757e+02
529             	4.28601877e+02
530             	4.28625509e+02
531             	4.28653712e+02
532             	4.28673094e+02
533             	4.28694601e+02
534             	4.28713589e+02
535             	4.28733365e+02
536             	4.28753275e+02
537             	4.28773705e+02
538             	4.28791411e+02
539             	4.28807489e+02
540             	4.28821310e+02
541             	4.28833791e+02
542             	4.28845385e+02
543             	4.28857092e+02
544             	4.28869401e+02
545             	4.28879749e+02
546             	4.28890379e+02
547             	4.28902480e+02
548             	4.28916290e+02
549             	4.28931337e+02
550             	4.28947181e+02
551             	4.28964193e+02
552             	4.28981434e+02
553             	4.28998467e+02
554             	4.29016807e+02
555             	4.29032132e+02
556             	4.29048662e+02
557             	4.29060588e+02
558             	4.29070584e+02
559             	4.29080065e+02
560             	4.29089437e+02
561             	4.29096868e+02
562             	4.29103746e+02
563             	4.29110326e+02
564             	4.29117051e+02
565             	4.29124556e+02
566             	4.29133349e+02
567             	4.29142447e+02
568             	4.29152214e+02
569             	4.29164185e+02
570             	4.29176814e+02
571             	4.29186022e+02
572             	4.29195068e+02
573             	4.29211977e+02
574             	4.29230484e+02
575             	4.29248072e+02
576             	4.29266669e+02
577             	4.29283844e+02
578             	4.29301975e+02
579             	4.29319145e+02
580             	4.29338649e+02
581             	4.29359405e+02
582             	4.29380284e+02
583             	4.29401014e+02
584             	4.29419837e+02
585             	4.29436665e+02
586             	4.29452070e+02
587             	4.29467147e+02
588             	4.29480670e+02
589             	4.29495136e+02
590             	4.29510680e+02
591             	4.29522013e+02
592             	4.29532648e+02
593             	4.29543397e+02
594             	4.29554669e+02
595             	4.29565850e+02
596             	4.29577140e+02
597             	4.29591113e+02
598             	4.29600626e+02
599             	4.29607406e+02
600             	4.29613575e+02
601             	4.29619314e+02
602             	4.29624052e+02
603             	4.29627859e+02
604             	4.29631351e+02
605             	4.29635171e+02
606             	4.29639191e+02
607             	4.29643710e+02
608             	4.29649219e+02
609             	4.29654564e+02
610             	4.29660031e+02
611             	4.29666804e+02
612             	4.29673659e+02
613             	4.29679721e+02
614             	4.29686780e+02
615             	4.29693796e+02
616             	4.29700740e+02
617             	4.29701559e+02
618             	4.29710521e+02
619             	4.29720767e+02
620             	4.29729259e+02
621             	4.29736765e+02
