# Region        : cellZone component_3
# Cells         : 48
# Volume        : 6.54642489e-02
# Time          	volAverage(T)
1               	3.01641147e+02
2               	3.03251681e+02
3               	3.04613531e+02
4               	3.05823414e+02
5               	3.06968254e+02
6               	3.08052574e+02
7               	3.09095503e+02
8               	3.10085956e+02
9               	3.11037151e+02
10              	3.11955531e+02
11              	3.12840844e+02
12              	3.13709189e+02
13              	3.14534153e+02
14              	3.15312752e+02
15              	3.16060469e+02
16              	3.16750089e+02
17              	3.17379769e+02
18              	3.17941328e+02
19              	3.18455892e+02
20              	3.18914136e+02
21              	3.19388157e+02
22              	3.19947973e+02
23              	3.20569588e+02
24              	3.21191473e+02
25              	3.21815105e+02
26              	3.22456021e+02
27              	3.23106202e+02
28              	3.23771468e+02
29              	3.24406388e+02
30              	3.24978798e+02
31              	3.25504146e+02
32              	3.25998646e+02
33              	3.26470107e+02
34              	3.26892521e+02
35              	3.27272365e+02
36              	3.27646475e+02
37              	3.28020091e+02
38              	3.28344073e+02
39              	3.28672255e+02
40              	3.28978860e+02
41              	3.29241560e+02
42              	3.29519345e+02
43              	3.29813527e+02
44              	3.30033676e+02
45              	3.30207662e+02
46              	3.30369651e+02
47              	3.30557164e+02
48              	3.30777450e+02
49              	3.30952659e+02
50              	3.31142857e+02
51              	3.31291889e+02
52              	3.31396459e+02
53              	3.31567544e+02
54              	3.31737435e+02
55              	3.31876231e+02
56              	3.31941957e+02
57              	3.31989209e+02
58              	3.32033750e+02
59              	3.32048770e+02
60              	3.32004336e+02
61              	3.31879152e+02
62              	3.31745266e+02
63              	3.31551779e+02
64              	3.31398345e+02
65              	3.31225088e+02
66              	3.31051375e+02
67              	3.30853741e+02
68              	3.30657415e+02
69              	3.30460205e+02
70              	3.30290568e+02
71              	3.30149014e+02
72              	3.30026317e+02
73              	3.29920086e+02
74              	3.29833827e+02
75              	3.29790679e+02
76              	3.29772289e+02
77              	3.29763807e+02
78              	3.29738260e+02
79              	3.29729766e+02
80              	3.29727297e+02
81              	3.29718965e+02
82              	3.29706133e+02
83              	3.29683634e+02
84              	3.29663791e+02
85              	3.29647903e+02
86              	3.29650956e+02
87              	3.29676987e+02
88              	3.29703391e+02
89              	3.29738103e+02
90              	3.29786542e+02
91              	3.29844992e+02
92              	3.29876868e+02
93              	3.29913290e+02
94              	3.29923782e+02
95              	3.29935345e+02
96              	3.29922181e+02
97              	3.29910781e+02
98              	3.29905090e+02
99              	3.29882940e+02
100             	3.29834518e+02
101             	3.29783573e+02
102             	3.29718740e+02
103             	3.29652858e+02
104             	3.29612558e+02
105             	3.29592904e+02
106             	3.29591472e+02
107             	3.29617876e+02
108             	3.29669189e+02
109             	3.29743602e+02
110             	3.29796293e+02
111             	3.29870584e+02
112             	3.29957106e+02
113             	3.30000431e+02
114             	3.30067062e+02
115             	3.30093942e+02
116             	3.30100405e+02
117             	3.30091598e+02
118             	3.30097550e+02
119             	3.30054871e+02
120             	3.30013908e+02
121             	3.29949766e+02
122             	3.29859203e+02
123             	3.29773426e+02
124             	3.29694985e+02
125             	3.29623944e+02
126             	3.29560930e+02
127             	3.29513999e+02
128             	3.29480535e+02
129             	3.29459001e+02
130             	3.29447783e+02
131             	3.29449830e+02
132             	3.29454644e+02
133             	3.29450625e+02
134             	3.29444500e+02
135             	3.29442996e+02
136             	3.29424517e+02
137             	3.29423661e+02
138             	3.29432418e+02
139             	3.29450398e+02
140             	3.29468690e+02
141             	3.29494510e+02
142             	3.29517856e+02
143             	3.29524851e+02
144             	3.29551151e+02
145             	3.29591505e+02
146             	3.29637012e+02
147             	3.29687462e+02
148             	3.29753524e+02
149             	3.29827733e+02
150             	3.29907301e+02
151             	3.30000901e+02
152             	3.30078516e+02
153             	3.30180261e+02
154             	3.30293910e+02
155             	3.30407026e+02
156             	3.30508988e+02
157             	3.30581886e+02
158             	3.30640251e+02
159             	3.30667998e+02
160             	3.30700716e+02
161             	3.30730990e+02
162             	3.30736712e+02
163             	3.30731284e+02
164             	3.30709793e+02
165             	3.30663806e+02
166             	3.30638047e+02
167             	3.30627685e+02
168             	3.30626082e+02
169             	3.30632401e+02
170             	3.30651377e+02
171             	3.30639827e+02
172             	3.30649259e+02
173             	3.30686776e+02
174             	3.30695915e+02
175             	3.30702460e+02
176             	3.30684882e+02
177             	3.30663865e+02
178             	3.30666223e+02
179             	3.30658009e+02
180             	3.30641012e+02
181             	3.30609570e+02
182             	3.30576349e+02
183             	3.30549586e+02
184             	3.30534440e+02
185             	3.30529626e+02
186             	3.30533715e+02
187             	3.30551304e+02
188             	3.30563024e+02
189             	3.30582496e+02
190             	3.30603344e+02
191             	3.30623416e+02
192             	3.30651364e+02
193             	3.30683111e+02
194             	3.30727288e+02
195             	3.30776710e+02
196             	3.30822748e+02
197             	3.30867895e+02
198             	3.30917129e+02
199             	3.30972203e+02
200             	3.31027158e+02
201             	3.31075167e+02
202             	3.31112103e+02
203             	3.31140935e+02
204             	3.31167815e+02
205             	3.31187006e+02
206             	3.31194640e+02
207             	3.31194725e+02
208             	3.31197093e+02
209             	3.31196380e+02
210             	3.31190119e+02
211             	3.31186596e+02
212             	3.31173805e+02
213             	3.31166694e+02
214             	3.31158875e+02
215             	3.31153228e+02
216             	3.31152405e+02
217             	3.31161651e+02
218             	3.31176757e+02
219             	3.31193711e+02
220             	3.31217118e+02
221             	3.31240834e+02
222             	3.31269468e+02
223             	3.31300537e+02
224             	3.31336071e+02
225             	3.31366739e+02
226             	3.31396561e+02
227             	3.31443377e+02
228             	3.31477122e+02
229             	3.31496261e+02
230             	3.31505481e+02
231             	3.31511643e+02
232             	3.31525448e+02
233             	3.31538301e+02
234             	3.31549502e+02
235             	3.31556832e+02
236             	3.31557865e+02
237             	3.31551829e+02
238             	3.31546358e+02
239             	3.31538769e+02
240             	3.31526014e+02
241             	3.31510483e+02
242             	3.31502369e+02
243             	3.31494646e+02
244             	3.31482065e+02
245             	3.31478918e+02
246             	3.31479010e+02
247             	3.31478406e+02
248             	3.31483641e+02
249             	3.31489100e+02
250             	3.31500288e+02
251             	3.31511809e+02
252             	3.31524484e+02
253             	3.31540666e+02
254             	3.31559769e+02
255             	3.31575329e+02
256             	3.31596548e+02
257             	3.31619458e+02
258             	3.31634052e+02
259             	3.31640614e+02
260             	3.31648805e+02
261             	3.31656093e+02
262             	3.31665433e+02
263             	3.31672719e+02
264             	3.31681354e+02
265             	3.31687549e+02
266             	3.31693946e+02
267             	3.31698233e+02
268             	3.31698488e+02
269             	3.31696982e+02
270             	3.31703745e+02
271             	3.31718325e+02
272             	3.31731291e+02
273             	3.31739974e+02
274             	3.31752655e+02
275             	3.31762790e+02
276             	3.31770572e+02
277             	3.31785003e+02
278             	3.31796081e+02
279             	3.31810393e+02
280             	3.31828295e+02
281             	3.31842171e+02
282             	3.31853729e+02
283             	3.31860181e+02
284             	3.31860845e+02
285             	3.31864157e+02
286             	3.31865940e+02
287             	3.31869325e+02
288             	3.31870533e+02
289             	3.31873125e+02
290             	3.31871596e+02
291             	3.31870854e+02
292             	3.31869276e+02
293             	3.31864726e+02
294             	3.31860959e+02
295             	3.31862444e+02
296             	3.31870774e+02
297             	3.31879080e+02
298             	3.31892503e+02
299             	3.31904911e+02
300             	3.31919057e+02
301             	3.31923819e+02
302             	3.31925365e+02
303             	3.31923960e+02
304             	3.31924334e+02
305             	3.31924235e+02
306             	3.31925850e+02
307             	3.31934463e+02
308             	3.31940269e+02
309             	3.31941771e+02
310             	3.31946922e+02
311             	3.31950877e+02
312             	3.31952833e+02
313             	3.31951965e+02
314             	3.31954294e+02
315             	3.31956037e+02
316             	3.31962300e+02
317             	3.31968341e+02
318             	3.31978469e+02
319             	3.31986002e+02
320             	3.31996370e+02
321             	3.32004997e+02
322             	3.32017035e+02
323             	3.32027209e+02
324             	3.32039246e+02
325             	3.32047639e+02
326             	3.32056997e+02
327             	3.32063854e+02
328             	3.32071897e+02
329             	3.32074192e+02
330             	3.32078396e+02
331             	3.32081260e+02
332             	3.32085752e+02
333             	3.32085584e+02
334             	3.32086036e+02
335             	3.32083872e+02
336             	3.32084772e+02
337             	3.32078559e+02
338             	3.32073493e+02
339             	3.32069797e+02
340             	3.32066086e+02
341             	3.32061148e+02
342             	3.32057305e+02
343             	3.32051054e+02
344             	3.32050589e+02
345             	3.32050715e+02
346             	3.32055703e+02
347             	3.32058064e+02
348             	3.32064598e+02
349             	3.32072749e+02
350             	3.32082413e+02
351             	3.32087989e+02
352             	3.32098910e+02
353             	3.32104860e+02
354             	3.32111708e+02
355             	3.32116512e+02
356             	3.32121847e+02
357             	3.32124395e+02
358             	3.32127460e+02
359             	3.32126282e+02
360             	3.32125010e+02
361             	3.32123381e+02
362             	3.32124381e+02
363             	3.32123020e+02
364             	3.32123742e+02
365             	3.32122326e+02
366             	3.32117581e+02
367             	3.32119168e+02
368             	3.32119797e+02
369             	3.32116377e+02
370             	3.32116958e+02
371             	3.32115691e+02
372             	3.32116439e+02
373             	3.32113967e+02
374             	3.32116415e+02
375             	3.32113809e+02
376             	3.32113080e+02
377             	3.32110840e+02
378             	3.32110026e+02
379             	3.32110154e+02
380             	3.32114092e+02
381             	3.32115107e+02
382             	3.32117947e+02
383             	3.32117705e+02
384             	3.32121300e+02
385             	3.32119864e+02
386             	3.32117286e+02
387             	3.32112177e+02
388             	3.32110686e+02
389             	3.32107719e+02
390             	3.32106949e+02
391             	3.32102588e+02
392             	3.32101367e+02
393             	3.32098964e+02
394             	3.32098395e+02
395             	3.32096814e+02
396             	3.32098572e+02
397             	3.32099113e+02
398             	3.32101932e+02
399             	3.32102058e+02
400             	3.32105162e+02
401             	3.32108349e+02
402             	3.32114238e+02
403             	3.32116850e+02
404             	3.32119527e+02
405             	3.32120468e+02
406             	3.32125416e+02
407             	3.32128272e+02
408             	3.32132546e+02
409             	3.32133970e+02
410             	3.32137538e+02
411             	3.32138037e+02
412             	3.32139996e+02
413             	3.32138604e+02
414             	3.32138613e+02
415             	3.32132982e+02
416             	3.32130140e+02
417             	3.32125060e+02
418             	3.32122151e+02
419             	3.32116875e+02
420             	3.32113400e+02
421             	3.32106550e+02
422             	3.32101998e+02
423             	3.32095204e+02
424             	3.32090902e+02
425             	3.32085465e+02
426             	3.32083141e+02
427             	3.32081598e+02
428             	3.32080989e+02
429             	3.32078022e+02
430             	3.32079405e+02
431             	3.32080756e+02
432             	3.32085539e+02
433             	3.32088463e+02
434             	3.32093455e+02
435             	3.32096236e+02
436             	3.32098872e+02
437             	3.32103369e+02
438             	3.32110905e+02
439             	3.32114500e+02
440             	3.32120094e+02
441             	3.32123391e+02
442             	3.32128571e+02
443             	3.32129713e+02
444             	3.32131418e+02
445             	3.32133681e+02
446             	3.32138167e+02
447             	3.32138000e+02
448             	3.32138323e+02
449             	3.32134908e+02
450             	3.32133211e+02
451             	3.32128471e+02
452             	3.32125661e+02
453             	3.32120184e+02
454             	3.32118580e+02
455             	3.32114887e+02
456             	3.32109652e+02
457             	3.32100870e+02
458             	3.32096343e+02
459             	3.32092058e+02
460             	3.32093603e+02
461             	3.32094323e+02
462             	3.32098907e+02
463             	3.32099843e+02
464             	3.32103562e+02
465             	3.32106088e+02
466             	3.32114113e+02
467             	3.32118345e+02
468             	3.32124370e+02
469             	3.32128718e+02
470             	3.32135522e+02
471             	3.32137681e+02
472             	3.32143513e+02
473             	3.32147405e+02
474             	3.32154923e+02
475             	3.32159871e+02
476             	3.32165939e+02
477             	3.32168301e+02
478             	3.32172184e+02
479             	3.32173375e+02
480             	3.32176004e+02
481             	3.32175506e+02
482             	3.32177361e+02
483             	3.32174694e+02
484             	3.32173371e+02
485             	3.32169845e+02
486             	3.32169027e+02
487             	3.32166075e+02
488             	3.32166648e+02
489             	3.32164256e+02
490             	3.32163635e+02
491             	3.32160598e+02
492             	3.32160756e+02
493             	3.32158608e+02
494             	3.32160472e+02
495             	3.32157899e+02
496             	3.32156983e+02
497             	3.32154983e+02
498             	3.32154846e+02
499             	3.32151921e+02
500             	3.32150960e+02
501             	3.32149596e+02
502             	3.32150698e+02
503             	3.32149764e+02
504             	3.32151916e+02
505             	3.32152732e+02
506             	3.32154936e+02
507             	3.32154808e+02
508             	3.32157882e+02
509             	3.32158908e+02
510             	3.32161716e+02
511             	3.32161677e+02
512             	3.32161273e+02
513             	3.32160906e+02
514             	3.32163505e+02
515             	3.32163073e+02
516             	3.32162560e+02
517             	3.32161099e+02
518             	3.32156988e+02
519             	3.32157657e+02
520             	3.32157486e+02
521             	3.32161514e+02
522             	3.32162117e+02
523             	3.32161713e+02
524             	3.32156813e+02
525             	3.32154447e+02
526             	3.32154136e+02
527             	3.32157612e+02
528             	3.32158627e+02
529             	3.32160069e+02
530             	3.32157977e+02
531             	3.32160815e+02
532             	3.32161922e+02
533             	3.32162188e+02
534             	3.32158480e+02
535             	3.32157892e+02
536             	3.32157498e+02
537             	3.32160463e+02
538             	3.32160898e+02
539             	3.32163298e+02
540             	3.32163208e+02
541             	3.32165709e+02
542             	3.32165828e+02
543             	3.32168099e+02
544             	3.32168921e+02
545             	3.32171703e+02
546             	3.32171368e+02
547             	3.32173438e+02
548             	3.32172850e+02
549             	3.32174930e+02
550             	3.32173551e+02
551             	3.32173831e+02
552             	3.32171325e+02
553             	3.32171254e+02
554             	3.32168997e+02
555             	3.32169260e+02
556             	3.32167415e+02
557             	3.32168853e+02
558             	3.32168127e+02
559             	3.32169782e+02
560             	3.32168832e+02
561             	3.32170004e+02
562             	3.32168876e+02
563             	3.32169886e+02
564             	3.32167429e+02
565             	3.32167347e+02
566             	3.32165008e+02
567             	3.32165156e+02
568             	3.32163034e+02
569             	3.32163294e+02
570             	3.32161650e+02
571             	3.32162623e+02
572             	3.32161416e+02
573             	3.32162043e+02
574             	3.32160665e+02
575             	3.32163193e+02
576             	3.32163936e+02
577             	3.32166909e+02
578             	3.32167131e+02
579             	3.32169378e+02
580             	3.32169219e+02
581             	3.32171505e+02
582             	3.32171485e+02
583             	3.32173949e+02
584             	3.32173640e+02
585             	3.32175582e+02
586             	3.32175253e+02
587             	3.32177472e+02
588             	3.32177968e+02
589             	3.32180416e+02
590             	3.32179193e+02
591             	3.32179657e+02
592             	3.32178026e+02
593             	3.32179465e+02
594             	3.32178396e+02
595             	3.32179718e+02
596             	3.32178468e+02
597             	3.32179999e+02
598             	3.32179690e+02
599             	3.32182389e+02
600             	3.32182831e+02
601             	3.32185730e+02
602             	3.32186146e+02
603             	3.32188810e+02
604             	3.32188884e+02
605             	3.32191211e+02
606             	3.32190904e+02
607             	3.32192712e+02
608             	3.32192134e+02
609             	3.32193803e+02
610             	3.32193026e+02
611             	3.32193849e+02
612             	3.32193305e+02
613             	3.32195393e+02
614             	3.32194023e+02
615             	3.32195632e+02
616             	3.32195164e+02
617             	3.32196724e+02
618             	3.32195560e+02
619             	3.32196885e+02
620             	3.32196226e+02
621             	3.32197396e+02
