# Region        : cellZone component_3
# Cells         : 147
# Volume        : 2.35959519e-01
# Time          	volAverage(T)
1               	3.00733261e+02
2               	3.01449807e+02
3               	3.02045520e+02
4               	3.02557555e+02
5               	3.03046610e+02
6               	3.03530599e+02
7               	3.04001429e+02
8               	3.04452499e+02
9               	3.04887297e+02
10              	3.05313020e+02
11              	3.05732117e+02
12              	3.06138185e+02
13              	3.06536747e+02
14              	3.06938654e+02
15              	3.07306548e+02
16              	3.07631778e+02
17              	3.07972138e+02
18              	3.08313621e+02
19              	3.08621738e+02
20              	3.08900482e+02
21              	3.09154825e+02
22              	3.09395297e+02
23              	3.09616937e+02
24              	3.09824814e+02
25              	3.10020295e+02
26              	3.10211257e+02
27              	3.10395022e+02
28              	3.10584082e+02
29              	3.10806417e+02
30              	3.10950985e+02
31              	3.11026453e+02
32              	3.11094845e+02
33              	3.11201529e+02
34              	3.11332241e+02
35              	3.11475879e+02
36              	3.11627136e+02
37              	3.11761302e+02
38              	3.11884204e+02
39              	3.11989155e+02
40              	3.12089528e+02
41              	3.12189434e+02
42              	3.12296764e+02
43              	3.12420319e+02
44              	3.12557728e+02
45              	3.12698062e+02
46              	3.12830203e+02
47              	3.12959453e+02
48              	3.13089825e+02
49              	3.13216303e+02
50              	3.13349332e+02
51              	3.13485130e+02
52              	3.13634936e+02
53              	3.13718669e+02
54              	3.13723542e+02
55              	3.13692400e+02
56              	3.13750071e+02
57              	3.13831790e+02
58              	3.13913499e+02
59              	3.13992731e+02
60              	3.14080850e+02
61              	3.14157492e+02
62              	3.14230479e+02
63              	3.14304505e+02
64              	3.14375805e+02
65              	3.14439845e+02
66              	3.14500724e+02
67              	3.14574103e+02
68              	3.14658879e+02
69              	3.14741512e+02
70              	3.14819202e+02
71              	3.14890253e+02
72              	3.14952875e+02
73              	3.15008246e+02
74              	3.15058151e+02
75              	3.15099257e+02
76              	3.15143621e+02
77              	3.15194247e+02
78              	3.15250515e+02
79              	3.15314174e+02
80              	3.15382148e+02
81              	3.15449831e+02
82              	3.15506009e+02
83              	3.15549367e+02
84              	3.15594151e+02
85              	3.15632655e+02
86              	3.15670505e+02
87              	3.15706190e+02
88              	3.15737380e+02
89              	3.15766253e+02
90              	3.15798494e+02
91              	3.15830901e+02
92              	3.15863335e+02
93              	3.15896162e+02
94              	3.15924301e+02
95              	3.15953172e+02
96              	3.15968902e+02
97              	3.15988513e+02
98              	3.16010184e+02
99              	3.16034912e+02
100             	3.16066881e+02
101             	3.16105118e+02
102             	3.16149233e+02
103             	3.16192539e+02
104             	3.16235257e+02
105             	3.16268907e+02
106             	3.16294307e+02
107             	3.16319461e+02
108             	3.16346465e+02
109             	3.16371074e+02
110             	3.16394024e+02
111             	3.16414830e+02
112             	3.16430971e+02
113             	3.16449740e+02
114             	3.16466510e+02
115             	3.16481852e+02
116             	3.16497136e+02
117             	3.16511122e+02
118             	3.16519956e+02
119             	3.16526319e+02
120             	3.16531132e+02
121             	3.16535575e+02
122             	3.16542607e+02
123             	3.16552523e+02
124             	3.16566342e+02
125             	3.16583179e+02
126             	3.16603540e+02
127             	3.16627525e+02
128             	3.16654398e+02
129             	3.16683861e+02
130             	3.16709025e+02
131             	3.16735564e+02
132             	3.16754461e+02
133             	3.16772179e+02
134             	3.16788192e+02
135             	3.16802220e+02
136             	3.16815578e+02
137             	3.16829408e+02
138             	3.16843183e+02
139             	3.16854440e+02
140             	3.16861696e+02
141             	3.16862337e+02
142             	3.16867674e+02
143             	3.16874373e+02
144             	3.16880700e+02
145             	3.16888552e+02
146             	3.16901623e+02
147             	3.16916909e+02
148             	3.16933334e+02
149             	3.16950552e+02
150             	3.16968618e+02
151             	3.16981175e+02
152             	3.16996081e+02
153             	3.17010225e+02
154             	3.17024627e+02
155             	3.17037974e+02
156             	3.17052078e+02
157             	3.17065131e+02
158             	3.17077405e+02
159             	3.17089098e+02
160             	3.17099279e+02
161             	3.17106970e+02
162             	3.17110377e+02
163             	3.17102751e+02
164             	3.17099670e+02
165             	3.17099007e+02
166             	3.17099578e+02
167             	3.17103952e+02
168             	3.17112167e+02
169             	3.17126413e+02
170             	3.17142223e+02
171             	3.17154614e+02
172             	3.17163749e+02
173             	3.17173961e+02
174             	3.17184310e+02
175             	3.17197464e+02
176             	3.17209677e+02
177             	3.17215759e+02
178             	3.17223870e+02
179             	3.17226292e+02
180             	3.17232328e+02
181             	3.17236969e+02
182             	3.17240767e+02
183             	3.17241670e+02
184             	3.17240006e+02
185             	3.17240161e+02
186             	3.17243115e+02
187             	3.17248216e+02
188             	3.17246414e+02
189             	3.17245207e+02
190             	3.17243226e+02
191             	3.17242108e+02
192             	3.17241911e+02
193             	3.17243626e+02
194             	3.17247193e+02
195             	3.17251640e+02
196             	3.17254177e+02
197             	3.17257185e+02
198             	3.17260618e+02
199             	3.17263409e+02
200             	3.17264977e+02
201             	3.17265090e+02
202             	3.17263643e+02
203             	3.17262098e+02
204             	3.17263416e+02
205             	3.17267281e+02
206             	3.17274434e+02
207             	3.17285852e+02
208             	3.17304079e+02
209             	3.17318882e+02
210             	3.17330594e+02
211             	3.17338869e+02
212             	3.17344906e+02
213             	3.17348233e+02
214             	3.17348632e+02
215             	3.17346916e+02
216             	3.17344245e+02
217             	3.17335806e+02
218             	3.17333990e+02
219             	3.17336142e+02
220             	3.17340709e+02
221             	3.17346569e+02
222             	3.17355960e+02
223             	3.17366808e+02
224             	3.17376762e+02
225             	3.17379322e+02
226             	3.17381795e+02
227             	3.17386863e+02
228             	3.17393528e+02
229             	3.17400266e+02
230             	3.17406186e+02
231             	3.17413250e+02
232             	3.17418583e+02
233             	3.17423933e+02
234             	3.17430085e+02
235             	3.17437865e+02
236             	3.17441106e+02
237             	3.17442831e+02
238             	3.17441603e+02
239             	3.17440545e+02
240             	3.17438126e+02
241             	3.17440213e+02
242             	3.17444597e+02
243             	3.17450336e+02
244             	3.17456520e+02
245             	3.17461627e+02
246             	3.17463210e+02
247             	3.17462015e+02
248             	3.17458684e+02
249             	3.17454972e+02
250             	3.17453537e+02
251             	3.17452818e+02
252             	3.17453059e+02
253             	3.17454929e+02
254             	3.17458799e+02
255             	3.17465122e+02
256             	3.17472401e+02
257             	3.17479235e+02
258             	3.17484672e+02
259             	3.17488440e+02
260             	3.17487744e+02
261             	3.17485295e+02
262             	3.17482954e+02
263             	3.17479301e+02
264             	3.17476703e+02
265             	3.17473576e+02
266             	3.17470954e+02
267             	3.17469820e+02
268             	3.17470079e+02
269             	3.17470826e+02
270             	3.17473531e+02
271             	3.17471742e+02
272             	3.17471907e+02
273             	3.17473753e+02
274             	3.17479019e+02
275             	3.17486562e+02
276             	3.17496481e+02
277             	3.17506780e+02
278             	3.17516172e+02
279             	3.17523251e+02
280             	3.17524222e+02
281             	3.17526655e+02
282             	3.17527859e+02
283             	3.17529461e+02
284             	3.17531542e+02
285             	3.17533810e+02
286             	3.17534272e+02
287             	3.17534299e+02
288             	3.17534443e+02
289             	3.17535737e+02
290             	3.17536709e+02
291             	3.17541058e+02
292             	3.17546810e+02
293             	3.17550998e+02
294             	3.17553815e+02
295             	3.17557150e+02
296             	3.17561044e+02
297             	3.17564216e+02
298             	3.17565428e+02
299             	3.17562524e+02
300             	3.17560794e+02
301             	3.17559981e+02
302             	3.17560099e+02
303             	3.17560515e+02
304             	3.17560360e+02
305             	3.17559471e+02
306             	3.17560331e+02
307             	3.17562140e+02
308             	3.17564610e+02
309             	3.17567164e+02
310             	3.17565775e+02
311             	3.17564965e+02
312             	3.17565119e+02
313             	3.17566480e+02
314             	3.17567050e+02
315             	3.17567476e+02
316             	3.17567366e+02
317             	3.17563059e+02
318             	3.17564235e+02
319             	3.17568349e+02
320             	3.17572633e+02
321             	3.17576858e+02
322             	3.17583325e+02
323             	3.17591376e+02
324             	3.17598063e+02
325             	3.17600826e+02
326             	3.17598346e+02
327             	3.17593200e+02
328             	3.17586646e+02
329             	3.17579680e+02
330             	3.17572189e+02
331             	3.17564741e+02
332             	3.17557933e+02
333             	3.17547541e+02
334             	3.17541478e+02
335             	3.17540489e+02
336             	3.17543340e+02
337             	3.17547402e+02
338             	3.17551821e+02
339             	3.17555543e+02
340             	3.17553898e+02
341             	3.17551255e+02
342             	3.17549251e+02
343             	3.17546642e+02
344             	3.17544771e+02
345             	3.17544720e+02
346             	3.17545230e+02
347             	3.17546875e+02
348             	3.17548612e+02
349             	3.17549486e+02
350             	3.17546178e+02
351             	3.17540772e+02
352             	3.17535733e+02
353             	3.17530805e+02
354             	3.17525749e+02
355             	3.17520535e+02
356             	3.17516668e+02
357             	3.17514183e+02
358             	3.17513668e+02
359             	3.17520717e+02
360             	3.17532865e+02
361             	3.17538052e+02
362             	3.17542684e+02
363             	3.17547908e+02
364             	3.17555181e+02
365             	3.17563204e+02
366             	3.17571002e+02
367             	3.17577077e+02
368             	3.17578638e+02
369             	3.17576452e+02
370             	3.17576326e+02
371             	3.17576601e+02
372             	3.17578046e+02
373             	3.17578719e+02
374             	3.17578512e+02
375             	3.17580281e+02
376             	3.17583950e+02
377             	3.17585923e+02
378             	3.17580874e+02
379             	3.17575435e+02
380             	3.17569871e+02
381             	3.17565499e+02
382             	3.17562753e+02
383             	3.17559419e+02
384             	3.17552452e+02
385             	3.17549263e+02
386             	3.17547327e+02
387             	3.17545382e+02
388             	3.17542237e+02
389             	3.17537877e+02
390             	3.17530518e+02
391             	3.17520296e+02
392             	3.17508636e+02
393             	3.17498756e+02
394             	3.17490146e+02
395             	3.17484433e+02
396             	3.17481895e+02
397             	3.17481709e+02
398             	3.17486121e+02
399             	3.17491956e+02
400             	3.17497916e+02
401             	3.17503400e+02
402             	3.17508177e+02
403             	3.17512567e+02
404             	3.17516579e+02
405             	3.17520016e+02
406             	3.17521780e+02
407             	3.17521496e+02
408             	3.17520031e+02
409             	3.17516787e+02
410             	3.17513156e+02
411             	3.17512237e+02
412             	3.17513913e+02
413             	3.17518371e+02
414             	3.17525471e+02
415             	3.17533478e+02
416             	3.17541582e+02
417             	3.17549193e+02
418             	3.17553633e+02
419             	3.17555659e+02
420             	3.17554903e+02
421             	3.17553227e+02
422             	3.17551923e+02
423             	3.17550778e+02
424             	3.17550966e+02
425             	3.17551857e+02
426             	3.17550438e+02
427             	3.17548388e+02
428             	3.17547656e+02
429             	3.17548733e+02
430             	3.17548402e+02
431             	3.17545773e+02
432             	3.17543103e+02
433             	3.17540763e+02
434             	3.17537814e+02
435             	3.17535051e+02
436             	3.17534609e+02
437             	3.17534678e+02
438             	3.17536212e+02
439             	3.17539282e+02
440             	3.17544935e+02
441             	3.17550846e+02
442             	3.17551879e+02
443             	3.17551007e+02
444             	3.17548997e+02
445             	3.17545644e+02
446             	3.17542759e+02
447             	3.17541957e+02
448             	3.17540139e+02
449             	3.17541940e+02
450             	3.17546694e+02
451             	3.17553978e+02
452             	3.17561654e+02
453             	3.17568926e+02
454             	3.17577496e+02
455             	3.17584762e+02
456             	3.17582511e+02
457             	3.17577740e+02
458             	3.17571357e+02
459             	3.17564218e+02
460             	3.17557284e+02
461             	3.17551003e+02
462             	3.17545586e+02
463             	3.17535407e+02
464             	3.17529545e+02
465             	3.17526840e+02
466             	3.17524834e+02
467             	3.17522990e+02
468             	3.17519911e+02
469             	3.17516029e+02
470             	3.17513394e+02
471             	3.17512567e+02
472             	3.17513574e+02
473             	3.17517625e+02
474             	3.17519553e+02
475             	3.17523548e+02
476             	3.17528104e+02
477             	3.17534462e+02
478             	3.17539738e+02
479             	3.17541230e+02
480             	3.17536924e+02
481             	3.17534181e+02
482             	3.17532044e+02
483             	3.17529775e+02
484             	3.17529326e+02
485             	3.17530492e+02
486             	3.17528144e+02
487             	3.17525226e+02
488             	3.17525497e+02
489             	3.17527575e+02
490             	3.17526809e+02
491             	3.17524913e+02
492             	3.17524144e+02
493             	3.17525565e+02
494             	3.17530062e+02
495             	3.17536845e+02
496             	3.17547138e+02
497             	3.17559683e+02
498             	3.17571569e+02
499             	3.17579806e+02
500             	3.17584952e+02
501             	3.17585155e+02
502             	3.17582799e+02
503             	3.17578541e+02
504             	3.17574311e+02
505             	3.17568980e+02
506             	3.17564384e+02
507             	3.17563458e+02
508             	3.17566599e+02
509             	3.17575570e+02
510             	3.17587645e+02
511             	3.17597477e+02
512             	3.17604733e+02
513             	3.17609169e+02
514             	3.17611668e+02
515             	3.17615559e+02
516             	3.17622241e+02
517             	3.17628410e+02
518             	3.17632999e+02
519             	3.17638512e+02
520             	3.17645912e+02
521             	3.17654136e+02
522             	3.17659731e+02
523             	3.17660330e+02
524             	3.17657380e+02
525             	3.17652681e+02
526             	3.17648123e+02
527             	3.17644584e+02
528             	3.17641799e+02
529             	3.17639638e+02
530             	3.17639049e+02
531             	3.17640052e+02
532             	3.17639099e+02
533             	3.17636264e+02
534             	3.17632965e+02
535             	3.17627479e+02
536             	3.17623010e+02
537             	3.17619655e+02
538             	3.17617908e+02
539             	3.17618476e+02
540             	3.17620794e+02
541             	3.17625318e+02
542             	3.17630425e+02
543             	3.17635159e+02
544             	3.17639160e+02
545             	3.17642031e+02
546             	3.17643245e+02
547             	3.17642327e+02
548             	3.17639714e+02
549             	3.17635194e+02
550             	3.17629688e+02
551             	3.17623526e+02
552             	3.17616463e+02
553             	3.17608887e+02
554             	3.17601544e+02
555             	3.17594721e+02
556             	3.17589326e+02
557             	3.17585601e+02
558             	3.17583361e+02
559             	3.17581747e+02
560             	3.17582031e+02
561             	3.17583833e+02
562             	3.17586505e+02
563             	3.17589528e+02
564             	3.17592098e+02
565             	3.17593925e+02
566             	3.17595296e+02
567             	3.17597158e+02
568             	3.17599783e+02
569             	3.17603372e+02
570             	3.17605879e+02
571             	3.17607683e+02
572             	3.17608970e+02
573             	3.17610641e+02
574             	3.17609756e+02
575             	3.17608965e+02
576             	3.17607995e+02
577             	3.17607356e+02
578             	3.17607153e+02
579             	3.17606810e+02
580             	3.17606119e+02
581             	3.17605046e+02
582             	3.17603214e+02
583             	3.17600448e+02
584             	3.17596717e+02
585             	3.17592267e+02
586             	3.17587294e+02
587             	3.17582367e+02
588             	3.17577795e+02
589             	3.17573830e+02
590             	3.17571055e+02
591             	3.17569071e+02
592             	3.17567696e+02
593             	3.17567000e+02
594             	3.17567063e+02
595             	3.17567021e+02
596             	3.17567384e+02
597             	3.17568108e+02
598             	3.17568483e+02
599             	3.17569133e+02
600             	3.17569927e+02
601             	3.17570724e+02
602             	3.17571356e+02
603             	3.17572214e+02
604             	3.17573379e+02
605             	3.17574694e+02
606             	3.17576247e+02
607             	3.17578316e+02
608             	3.17580963e+02
609             	3.17583978e+02
610             	3.17587203e+02
611             	3.17590721e+02
612             	3.17594321e+02
613             	3.17597306e+02
614             	3.17599842e+02
615             	3.17601803e+02
616             	3.17602892e+02
617             	3.17602933e+02
618             	3.17602185e+02
619             	3.17601141e+02
620             	3.17599932e+02
621             	3.17598650e+02
