# Region        : cellZone component_3
# Cells         : 29
# Volume        : 5.54074734e-02
# Time          	volAverage(T)
1               	3.02633622e+02
2               	3.05197685e+02
3               	3.07435781e+02
4               	3.09507644e+02
5               	3.11526473e+02
6               	3.13528264e+02
7               	3.15519969e+02
8               	3.17532255e+02
9               	3.19556638e+02
10              	3.21589895e+02
11              	3.23550044e+02
12              	3.25437130e+02
13              	3.27274567e+02
14              	3.29101035e+02
15              	3.30935235e+02
16              	3.32750727e+02
17              	3.34508051e+02
18              	3.36211035e+02
19              	3.37857313e+02
20              	3.39531586e+02
21              	3.41126449e+02
22              	3.42645247e+02
23              	3.44098808e+02
24              	3.45503971e+02
25              	3.46847378e+02
26              	3.48138708e+02
27              	3.49528272e+02
28              	3.50807630e+02
29              	3.52050977e+02
30              	3.53247620e+02
31              	3.54334253e+02
32              	3.55321313e+02
33              	3.56393576e+02
34              	3.57558039e+02
35              	3.58680497e+02
36              	3.59756136e+02
37              	3.60800492e+02
38              	3.61800807e+02
39              	3.62849208e+02
40              	3.63847009e+02
41              	3.64868232e+02
42              	3.65828322e+02
43              	3.66687698e+02
44              	3.67507835e+02
45              	3.68332565e+02
46              	3.69226487e+02
47              	3.70116273e+02
48              	3.70951455e+02
49              	3.71707092e+02
50              	3.72445341e+02
51              	3.73141483e+02
52              	3.73825694e+02
53              	3.74529028e+02
54              	3.75259455e+02
55              	3.76097155e+02
56              	3.76728223e+02
57              	3.77309824e+02
58              	3.77980174e+02
59              	3.78690795e+02
60              	3.79384948e+02
61              	3.80046142e+02
62              	3.80647942e+02
63              	3.81289844e+02
64              	3.81961073e+02
65              	3.82668467e+02
66              	3.83433639e+02
67              	3.84219383e+02
68              	3.84880444e+02
69              	3.85522829e+02
70              	3.86161787e+02
71              	3.86772177e+02
72              	3.87295816e+02
73              	3.87743952e+02
74              	3.88149319e+02
75              	3.88536879e+02
76              	3.88970387e+02
77              	3.89452005e+02
78              	3.90011010e+02
79              	3.90621913e+02
80              	3.91186774e+02
81              	3.91662857e+02
82              	3.92162365e+02
83              	3.92625388e+02
84              	3.93080356e+02
85              	3.93454317e+02
86              	3.93781181e+02
87              	3.94097434e+02
88              	3.94401293e+02
89              	3.94742510e+02
90              	3.95133704e+02
91              	3.95592165e+02
92              	3.95990709e+02
93              	3.96382946e+02
94              	3.96808493e+02
95              	3.97209835e+02
96              	3.97530943e+02
97              	3.97773194e+02
98              	3.97995388e+02
99              	3.98200678e+02
100             	3.98451765e+02
101             	3.98721768e+02
102             	3.99010377e+02
103             	3.99293584e+02
104             	3.99588620e+02
105             	3.99887089e+02
106             	4.00189027e+02
107             	4.00483747e+02
108             	4.00739038e+02
109             	4.00960545e+02
110             	4.01152607e+02
111             	4.01322276e+02
112             	4.01493435e+02
113             	4.01690717e+02
114             	4.01899469e+02
115             	4.02125956e+02
116             	4.02373336e+02
117             	4.02627175e+02
118             	4.02859641e+02
119             	4.03075892e+02
120             	4.03312649e+02
121             	4.03519041e+02
122             	4.03691951e+02
123             	4.03850755e+02
124             	4.03999398e+02
125             	4.04156445e+02
126             	4.04332622e+02
127             	4.04530600e+02
128             	4.04742232e+02
129             	4.04957639e+02
130             	4.05163014e+02
131             	4.05378845e+02
132             	4.05587722e+02
133             	4.05792474e+02
134             	4.05990395e+02
135             	4.06144173e+02
136             	4.06300941e+02
137             	4.06457940e+02
138             	4.06609420e+02
139             	4.06749751e+02
140             	4.06878790e+02
141             	4.07004935e+02
142             	4.07134750e+02
143             	4.07263785e+02
144             	4.07406786e+02
145             	4.07560849e+02
146             	4.07725923e+02
147             	4.07890076e+02
148             	4.08047578e+02
149             	4.08197181e+02
150             	4.08347228e+02
151             	4.08500884e+02
152             	4.08647389e+02
153             	4.08783260e+02
154             	4.08909065e+02
155             	4.09027047e+02
156             	4.09140536e+02
157             	4.09249911e+02
158             	4.09354466e+02
159             	4.09455331e+02
160             	4.09564159e+02
161             	4.09655968e+02
162             	4.09741775e+02
163             	4.09829659e+02
164             	4.09920653e+02
165             	4.10012886e+02
166             	4.10109027e+02
167             	4.10205421e+02
168             	4.10289140e+02
169             	4.10377767e+02
170             	4.10465671e+02
171             	4.10547589e+02
172             	4.10619618e+02
173             	4.10680294e+02
174             	4.10736561e+02
175             	4.10783913e+02
176             	4.10825286e+02
177             	4.10866305e+02
178             	4.10910829e+02
179             	4.10948155e+02
180             	4.10987960e+02
181             	4.11029680e+02
182             	4.11072408e+02
183             	4.11115429e+02
184             	4.11159894e+02
185             	4.11201955e+02
186             	4.11240424e+02
187             	4.11277798e+02
188             	4.11314055e+02
189             	4.11348039e+02
190             	4.11375883e+02
191             	4.11399885e+02
192             	4.11424604e+02
193             	4.11445896e+02
194             	4.11461607e+02
195             	4.11472791e+02
196             	4.11482479e+02
197             	4.11496579e+02
198             	4.11502447e+02
199             	4.11508340e+02
200             	4.11517475e+02
201             	4.11527639e+02
202             	4.11539436e+02
203             	4.11553279e+02
204             	4.11568594e+02
205             	4.11584125e+02
206             	4.11600661e+02
207             	4.11617073e+02
208             	4.11630925e+02
209             	4.11642711e+02
210             	4.11652487e+02
211             	4.11657408e+02
212             	4.11659432e+02
213             	4.11660098e+02
214             	4.11659262e+02
215             	4.11656951e+02
216             	4.11651508e+02
217             	4.11647344e+02
218             	4.11641854e+02
219             	4.11637789e+02
220             	4.11631373e+02
221             	4.11623002e+02
222             	4.11613114e+02
223             	4.11601967e+02
224             	4.11591897e+02
225             	4.11577112e+02
226             	4.11561631e+02
227             	4.11547611e+02
228             	4.11534838e+02
229             	4.11520804e+02
230             	4.11505790e+02
231             	4.11492795e+02
232             	4.11480710e+02
233             	4.11469368e+02
234             	4.11459095e+02
235             	4.11449296e+02
236             	4.11438491e+02
237             	4.11428152e+02
238             	4.11416660e+02
239             	4.11403323e+02
240             	4.11386754e+02
241             	4.11367792e+02
242             	4.11346382e+02
243             	4.11322838e+02
244             	4.11298146e+02
245             	4.11273530e+02
246             	4.11249974e+02
247             	4.11225655e+02
248             	4.11202602e+02
249             	4.11182382e+02
250             	4.11163146e+02
251             	4.11143472e+02
252             	4.11124703e+02
253             	4.11106819e+02
254             	4.11089309e+02
255             	4.11073112e+02
256             	4.11053602e+02
257             	4.11032056e+02
258             	4.11009757e+02
259             	4.10989024e+02
260             	4.10970906e+02
261             	4.10952563e+02
262             	4.10931942e+02
263             	4.10913308e+02
264             	4.10895950e+02
265             	4.10877807e+02
266             	4.10860396e+02
267             	4.10842823e+02
268             	4.10824179e+02
269             	4.10804962e+02
270             	4.10785268e+02
271             	4.10764045e+02
272             	4.10741922e+02
273             	4.10719225e+02
274             	4.10696490e+02
275             	4.10673179e+02
276             	4.10650238e+02
277             	4.10627357e+02
278             	4.10605164e+02
279             	4.10583911e+02
280             	4.10562657e+02
281             	4.10542629e+02
282             	4.10522306e+02
283             	4.10502032e+02
284             	4.10482385e+02
285             	4.10463116e+02
286             	4.10443953e+02
287             	4.10424917e+02
288             	4.10406224e+02
289             	4.10388098e+02
290             	4.10370448e+02
291             	4.10353077e+02
292             	4.10336103e+02
293             	4.10319088e+02
294             	4.10301970e+02
295             	4.10284947e+02
296             	4.10267386e+02
297             	4.10249294e+02
298             	4.10233451e+02
299             	4.10218564e+02
300             	4.10203407e+02
301             	4.10188323e+02
302             	4.10173703e+02
303             	4.10158501e+02
304             	4.10144532e+02
305             	4.10130186e+02
306             	4.10114915e+02
307             	4.10098928e+02
308             	4.10082536e+02
309             	4.10066121e+02
310             	4.10049884e+02
311             	4.10035694e+02
312             	4.10020914e+02
313             	4.10006614e+02
314             	4.09992898e+02
315             	4.09979559e+02
316             	4.09966600e+02
317             	4.09953809e+02
318             	4.09940213e+02
319             	4.09926739e+02
320             	4.09912678e+02
321             	4.09897971e+02
322             	4.09883825e+02
323             	4.09869026e+02
324             	4.09853967e+02
325             	4.09838990e+02
326             	4.09824398e+02
327             	4.09810075e+02
328             	4.09795981e+02
329             	4.09782176e+02
330             	4.09768609e+02
331             	4.09755248e+02
332             	4.09742263e+02
333             	4.09729426e+02
334             	4.09717177e+02
335             	4.09704721e+02
336             	4.09692192e+02
337             	4.09679584e+02
338             	4.09666950e+02
339             	4.09654084e+02
340             	4.09641274e+02
341             	4.09628704e+02
342             	4.09616446e+02
343             	4.09604502e+02
344             	4.09592866e+02
345             	4.09581494e+02
346             	4.09570394e+02
347             	4.09559665e+02
348             	4.09549326e+02
349             	4.09539383e+02
350             	4.09529314e+02
351             	4.09519548e+02
352             	4.09509847e+02
353             	4.09499944e+02
354             	4.09489846e+02
355             	4.09479682e+02
356             	4.09469405e+02
357             	4.09459306e+02
358             	4.09449615e+02
359             	4.09440282e+02
360             	4.09431207e+02
361             	4.09422676e+02
362             	4.09414764e+02
363             	4.09407261e+02
364             	4.09399816e+02
365             	4.09392490e+02
366             	4.09385247e+02
367             	4.09377851e+02
368             	4.09370280e+02
369             	4.09362179e+02
370             	4.09353724e+02
371             	4.09344984e+02
372             	4.09336033e+02
373             	4.09326970e+02
374             	4.09317936e+02
375             	4.09308983e+02
376             	4.09300225e+02
377             	4.09291797e+02
378             	4.09283755e+02
379             	4.09276133e+02
380             	4.09269047e+02
381             	4.09262436e+02
382             	4.09256210e+02
383             	4.09250291e+02
384             	4.09244639e+02
385             	4.09239201e+02
386             	4.09233915e+02
387             	4.09228691e+02
388             	4.09223478e+02
389             	4.09218265e+02
390             	4.09213063e+02
391             	4.09207917e+02
392             	4.09202968e+02
393             	4.09198227e+02
394             	4.09193587e+02
395             	4.09189140e+02
396             	4.09184870e+02
397             	4.09180696e+02
398             	4.09176534e+02
399             	4.09172328e+02
400             	4.09168093e+02
401             	4.09163817e+02
402             	4.09159435e+02
403             	4.09154928e+02
404             	4.09150340e+02
405             	4.09145651e+02
406             	4.09140893e+02
407             	4.09136108e+02
408             	4.09131327e+02
409             	4.09126575e+02
410             	4.09121876e+02
411             	4.09117249e+02
412             	4.09112712e+02
413             	4.09108282e+02
414             	4.09103975e+02
415             	4.09099811e+02
416             	4.09095793e+02
417             	4.09091924e+02
418             	4.09088234e+02
419             	4.09084690e+02
420             	4.09081297e+02
421             	4.09078077e+02
422             	4.09075040e+02
423             	4.09072254e+02
424             	4.09069676e+02
425             	4.09067231e+02
426             	4.09064816e+02
427             	4.09062491e+02
428             	4.09060228e+02
429             	4.09058020e+02
430             	4.09055819e+02
431             	4.09053623e+02
432             	4.09051454e+02
433             	4.09049276e+02
434             	4.09047148e+02
435             	4.09045077e+02
436             	4.09043100e+02
437             	4.09041221e+02
438             	4.09039457e+02
439             	4.09037790e+02
440             	4.09036325e+02
441             	4.09035018e+02
442             	4.09033854e+02
443             	4.09032792e+02
444             	4.09031383e+02
445             	4.09030219e+02
446             	4.09029035e+02
447             	4.09027700e+02
448             	4.09026184e+02
449             	4.09024514e+02
450             	4.09022742e+02
451             	4.09020930e+02
452             	4.09019232e+02
453             	4.09018004e+02
454             	4.09016702e+02
455             	4.09015623e+02
456             	4.09014888e+02
457             	4.09014463e+02
458             	4.09014171e+02
459             	4.09013784e+02
460             	4.09013542e+02
461             	4.09013407e+02
462             	4.09013294e+02
463             	4.09012965e+02
464             	4.09012526e+02
465             	4.09012068e+02
466             	4.09011584e+02
467             	4.09011058e+02
468             	4.09010455e+02
469             	4.09009564e+02
470             	4.09008738e+02
471             	4.09007939e+02
472             	4.09007145e+02
473             	4.09006317e+02
474             	4.09005494e+02
475             	4.09004817e+02
476             	4.09004017e+02
477             	4.09003259e+02
478             	4.09002739e+02
479             	4.09002376e+02
480             	4.09002014e+02
481             	4.09001786e+02
482             	4.09001629e+02
483             	4.09001593e+02
484             	4.09001674e+02
485             	4.09001723e+02
486             	4.09001822e+02
487             	4.09001875e+02
488             	4.09001813e+02
489             	4.09001770e+02
490             	4.09001571e+02
491             	4.09001541e+02
492             	4.09001433e+02
493             	4.09001372e+02
494             	4.09001471e+02
495             	4.09001602e+02
496             	4.09001765e+02
497             	4.09001986e+02
498             	4.09002140e+02
499             	4.09002236e+02
500             	4.09002246e+02
501             	4.09002172e+02
502             	4.09001995e+02
503             	4.09001740e+02
504             	4.09001641e+02
505             	4.09001557e+02
506             	4.09001594e+02
507             	4.09001642e+02
508             	4.09001711e+02
509             	4.09001830e+02
510             	4.09002151e+02
511             	4.09002568e+02
512             	4.09003029e+02
513             	4.09003664e+02
514             	4.09004422e+02
515             	4.09005088e+02
516             	4.09005859e+02
517             	4.09006685e+02
518             	4.09007335e+02
519             	4.09007961e+02
520             	4.09008575e+02
521             	4.09009118e+02
522             	4.09009594e+02
523             	4.09009981e+02
524             	4.09010330e+02
525             	4.09010723e+02
526             	4.09011085e+02
527             	4.09011476e+02
528             	4.09011892e+02
529             	4.09012344e+02
530             	4.09012837e+02
531             	4.09013320e+02
532             	4.09013831e+02
533             	4.09014309e+02
534             	4.09014792e+02
535             	4.09015362e+02
536             	4.09016016e+02
537             	4.09016745e+02
538             	4.09017518e+02
539             	4.09018370e+02
540             	4.09019261e+02
541             	4.09020094e+02
542             	4.09020956e+02
543             	4.09021732e+02
544             	4.09022498e+02
545             	4.09023113e+02
546             	4.09023598e+02
547             	4.09024232e+02
548             	4.09024747e+02
549             	4.09025280e+02
550             	4.09025824e+02
551             	4.09026449e+02
552             	4.09027111e+02
553             	4.09027885e+02
554             	4.09028669e+02
555             	4.09029417e+02
556             	4.09030244e+02
557             	4.09031046e+02
558             	4.09031799e+02
559             	4.09032520e+02
560             	4.09033207e+02
561             	4.09033874e+02
562             	4.09034515e+02
563             	4.09035133e+02
564             	4.09035723e+02
565             	4.09036300e+02
566             	4.09036987e+02
567             	4.09037618e+02
568             	4.09038287e+02
569             	4.09039035e+02
570             	4.09039832e+02
571             	4.09040617e+02
572             	4.09041461e+02
573             	4.09042302e+02
574             	4.09043113e+02
575             	4.09043916e+02
576             	4.09044718e+02
577             	4.09045514e+02
578             	4.09046304e+02
579             	4.09047037e+02
580             	4.09047808e+02
581             	4.09048552e+02
582             	4.09049292e+02
583             	4.09050004e+02
584             	4.09050686e+02
585             	4.09051388e+02
586             	4.09052059e+02
587             	4.09052749e+02
588             	4.09053495e+02
589             	4.09054288e+02
590             	4.09055114e+02
591             	4.09055975e+02
592             	4.09056883e+02
593             	4.09057817e+02
594             	4.09058715e+02
595             	4.09059652e+02
596             	4.09060549e+02
597             	4.09061429e+02
598             	4.09062289e+02
599             	4.09063126e+02
600             	4.09063941e+02
601             	4.09064740e+02
602             	4.09065537e+02
603             	4.09066326e+02
604             	4.09067114e+02
605             	4.09067903e+02
606             	4.09068688e+02
607             	4.09069478e+02
608             	4.09070277e+02
609             	4.09071065e+02
610             	4.09071859e+02
611             	4.09072667e+02
612             	4.09073517e+02
613             	4.09074349e+02
614             	4.09075178e+02
615             	4.09076021e+02
616             	4.09076877e+02
617             	4.09077732e+02
618             	4.09078563e+02
619             	4.09079421e+02
620             	4.09080236e+02
621             	4.09081046e+02
