# Region        : cellZone component_0
# Cells         : 140
# Volume        : 2.23164971e-01
# Time          	volAverage(T)
1               	3.00549244e+02
2               	3.01093064e+02
3               	3.01594807e+02
4               	3.02067042e+02
5               	3.02523673e+02
6               	3.02970171e+02
7               	3.03409559e+02
8               	3.03842787e+02
9               	3.04272201e+02
10              	3.04697525e+02
11              	3.05109052e+02
12              	3.05503230e+02
13              	3.05878520e+02
14              	3.06243406e+02
15              	3.06603330e+02
16              	3.06957148e+02
17              	3.07308500e+02
18              	3.07654229e+02
19              	3.07994348e+02
20              	3.08321106e+02
21              	3.08639700e+02
22              	3.08946283e+02
23              	3.09249115e+02
24              	3.09542412e+02
25              	3.09831271e+02
26              	3.10119980e+02
27              	3.10409759e+02
28              	3.10699446e+02
29              	3.10989092e+02
30              	3.11281748e+02
31              	3.11564560e+02
32              	3.11848087e+02
33              	3.12126077e+02
34              	3.12389012e+02
35              	3.12659170e+02
36              	3.12910371e+02
37              	3.13141192e+02
38              	3.13339507e+02
39              	3.13531843e+02
40              	3.13734097e+02
41              	3.13947854e+02
42              	3.14158549e+02
43              	3.14372453e+02
44              	3.14589466e+02
45              	3.14811062e+02
46              	3.15029445e+02
47              	3.15256416e+02
48              	3.15485645e+02
49              	3.15691956e+02
50              	3.15875190e+02
51              	3.16046346e+02
52              	3.16211631e+02
53              	3.16364566e+02
54              	3.16520251e+02
55              	3.16684911e+02
56              	3.16851165e+02
57              	3.17019782e+02
58              	3.17177100e+02
59              	3.17335272e+02
60              	3.17485619e+02
61              	3.17635955e+02
62              	3.17793134e+02
63              	3.17945395e+02
64              	3.18097070e+02
65              	3.18222460e+02
66              	3.18375415e+02
67              	3.18532303e+02
68              	3.18679982e+02
69              	3.18821419e+02
70              	3.18957865e+02
71              	3.19106033e+02
72              	3.19263803e+02
73              	3.19418415e+02
74              	3.19562900e+02
75              	3.19710572e+02
76              	3.19857673e+02
77              	3.19996260e+02
78              	3.20129223e+02
79              	3.20258591e+02
80              	3.20385062e+02
81              	3.20505816e+02
82              	3.20624838e+02
83              	3.20745577e+02
84              	3.20859831e+02
85              	3.20972847e+02
86              	3.21090980e+02
87              	3.21208679e+02
88              	3.21322404e+02
89              	3.21437162e+02
90              	3.21546881e+02
91              	3.21659652e+02
92              	3.21768252e+02
93              	3.21874763e+02
94              	3.21980236e+02
95              	3.22085338e+02
96              	3.22184856e+02
97              	3.22282079e+02
98              	3.22374896e+02
99              	3.22467650e+02
100             	3.22560470e+02
101             	3.22653179e+02
102             	3.22744257e+02
103             	3.22835602e+02
104             	3.22913961e+02
105             	3.22983361e+02
106             	3.23058122e+02
107             	3.23129136e+02
108             	3.23187587e+02
109             	3.23244534e+02
110             	3.23298316e+02
111             	3.23354420e+02
112             	3.23407533e+02
113             	3.23468110e+02
114             	3.23538514e+02
115             	3.23606711e+02
116             	3.23658492e+02
117             	3.23696581e+02
118             	3.23698199e+02
119             	3.23702290e+02
120             	3.23728246e+02
121             	3.23766027e+02
122             	3.23807486e+02
123             	3.23858171e+02
124             	3.23912444e+02
125             	3.23974070e+02
126             	3.24040107e+02
127             	3.24106754e+02
128             	3.24174739e+02
129             	3.24245426e+02
130             	3.24312275e+02
131             	3.24377304e+02
132             	3.24445943e+02
133             	3.24520081e+02
134             	3.24590917e+02
135             	3.24665322e+02
136             	3.24740340e+02
137             	3.24818225e+02
138             	3.24893758e+02
139             	3.24958798e+02
140             	3.25023252e+02
141             	3.25099189e+02
142             	3.25184454e+02
143             	3.25261388e+02
144             	3.25333309e+02
145             	3.25405880e+02
146             	3.25490247e+02
147             	3.25554150e+02
148             	3.25609811e+02
149             	3.25658709e+02
150             	3.25715626e+02
151             	3.25775018e+02
152             	3.25824693e+02
153             	3.25876631e+02
154             	3.25930111e+02
155             	3.25983148e+02
156             	3.26038851e+02
157             	3.26094683e+02
158             	3.26148485e+02
159             	3.26201370e+02
160             	3.26255436e+02
161             	3.26309353e+02
162             	3.26361377e+02
163             	3.26412037e+02
164             	3.26461135e+02
165             	3.26508873e+02
166             	3.26556036e+02
167             	3.26605121e+02
168             	3.26656762e+02
169             	3.26705293e+02
170             	3.26754604e+02
171             	3.26809812e+02
172             	3.26867731e+02
173             	3.26933279e+02
174             	3.26995508e+02
175             	3.27055182e+02
176             	3.27105098e+02
177             	3.27157322e+02
178             	3.27210919e+02
179             	3.27265645e+02
180             	3.27311976e+02
181             	3.27373025e+02
182             	3.27431531e+02
183             	3.27489132e+02
184             	3.27540235e+02
185             	3.27582263e+02
186             	3.27623382e+02
187             	3.27658435e+02
188             	3.27701203e+02
189             	3.27743410e+02
190             	3.27787423e+02
191             	3.27831726e+02
192             	3.27875583e+02
193             	3.27915638e+02
194             	3.27962272e+02
195             	3.28010002e+02
196             	3.28059547e+02
197             	3.28101095e+02
198             	3.28151153e+02
199             	3.28205252e+02
200             	3.28259033e+02
201             	3.28314220e+02
202             	3.28368313e+02
203             	3.28413849e+02
204             	3.28467965e+02
205             	3.28524941e+02
206             	3.28577637e+02
207             	3.28630332e+02
208             	3.28682777e+02
209             	3.28736522e+02
210             	3.28789186e+02
211             	3.28840437e+02
212             	3.28891062e+02
213             	3.28930176e+02
214             	3.28977661e+02
215             	3.29027491e+02
216             	3.29069805e+02
217             	3.29117547e+02
218             	3.29160610e+02
219             	3.29208967e+02
220             	3.29235503e+02
221             	3.29272347e+02
222             	3.29313289e+02
223             	3.29348419e+02
224             	3.29389333e+02
225             	3.29419990e+02
226             	3.29458119e+02
227             	3.29498054e+02
228             	3.29540287e+02
229             	3.29571923e+02
230             	3.29604257e+02
231             	3.29637306e+02
232             	3.29673154e+02
233             	3.29709370e+02
234             	3.29744812e+02
235             	3.29779276e+02
236             	3.29813517e+02
237             	3.29849480e+02
238             	3.29885611e+02
239             	3.29921307e+02
240             	3.29957227e+02
241             	3.29984760e+02
242             	3.30015589e+02
243             	3.30051925e+02
244             	3.30074279e+02
245             	3.30102107e+02
246             	3.30131211e+02
247             	3.30161991e+02
248             	3.30195900e+02
249             	3.30214843e+02
250             	3.30239628e+02
251             	3.30266930e+02
252             	3.30296541e+02
253             	3.30328290e+02
254             	3.30361137e+02
255             	3.30393654e+02
256             	3.30423468e+02
257             	3.30453251e+02
258             	3.30483604e+02
259             	3.30515027e+02
260             	3.30538225e+02
261             	3.30564688e+02
262             	3.30593719e+02
263             	3.30613517e+02
264             	3.30643590e+02
265             	3.30661000e+02
266             	3.30674803e+02
267             	3.30695242e+02
268             	3.30721171e+02
269             	3.30749942e+02
270             	3.30772171e+02
271             	3.30793191e+02
272             	3.30815842e+02
273             	3.30839829e+02
274             	3.30868000e+02
275             	3.30885439e+02
276             	3.30906144e+02
277             	3.30929299e+02
278             	3.30954021e+02
279             	3.30979739e+02
280             	3.31007075e+02
281             	3.31022494e+02
282             	3.31043581e+02
283             	3.31071397e+02
284             	3.31076133e+02
285             	3.31090238e+02
286             	3.31109378e+02
287             	3.31132304e+02
288             	3.31157314e+02
289             	3.31181725e+02
290             	3.31203535e+02
291             	3.31226521e+02
292             	3.31248989e+02
293             	3.31272223e+02
294             	3.31297168e+02
295             	3.31323438e+02
296             	3.31333421e+02
297             	3.31350500e+02
298             	3.31359941e+02
299             	3.31375166e+02
300             	3.31397972e+02
301             	3.31410717e+02
302             	3.31413306e+02
303             	3.31425008e+02
304             	3.31438342e+02
305             	3.31453819e+02
306             	3.31458460e+02
307             	3.31469501e+02
308             	3.31483445e+02
309             	3.31499961e+02
310             	3.31519814e+02
311             	3.31542562e+02
312             	3.31539849e+02
313             	3.31549404e+02
314             	3.31566201e+02
315             	3.31587393e+02
316             	3.31584138e+02
317             	3.31591135e+02
318             	3.31603513e+02
319             	3.31618065e+02
320             	3.31635141e+02
321             	3.31638368e+02
322             	3.31647972e+02
323             	3.31660510e+02
324             	3.31675162e+02
325             	3.31691739e+02
326             	3.31709694e+02
327             	3.31725910e+02
328             	3.31742631e+02
329             	3.31756011e+02
330             	3.31769726e+02
331             	3.31784200e+02
332             	3.31799417e+02
333             	3.31807720e+02
334             	3.31806044e+02
335             	3.31814713e+02
336             	3.31828315e+02
337             	3.31834467e+02
338             	3.31832023e+02
339             	3.31840109e+02
340             	3.31853173e+02
341             	3.31869828e+02
342             	3.31872020e+02
343             	3.31880387e+02
344             	3.31890618e+02
345             	3.31903171e+02
346             	3.31919834e+02
347             	3.31920345e+02
348             	3.31927856e+02
349             	3.31939097e+02
350             	3.31949356e+02
351             	3.31960234e+02
352             	3.31972832e+02
353             	3.31986887e+02
354             	3.32003083e+02
355             	3.32020050e+02
356             	3.32026351e+02
357             	3.32022106e+02
358             	3.32029430e+02
359             	3.32042344e+02
360             	3.32046639e+02
361             	3.32058013e+02
362             	3.32057507e+02
363             	3.32065674e+02
364             	3.32078815e+02
365             	3.32081570e+02
366             	3.32075644e+02
367             	3.32081181e+02
368             	3.32091850e+02
369             	3.32105358e+02
370             	3.32105998e+02
371             	3.32113227e+02
372             	3.32123287e+02
373             	3.32133277e+02
374             	3.32146384e+02
375             	3.32143601e+02
376             	3.32148058e+02
377             	3.32156094e+02
378             	3.32166519e+02
379             	3.32178774e+02
380             	3.32178159e+02
381             	3.32184163e+02
382             	3.32193206e+02
383             	3.32192360e+02
384             	3.32200045e+02
385             	3.32197037e+02
386             	3.32202045e+02
387             	3.32210478e+02
388             	3.32217735e+02
389             	3.32227093e+02
390             	3.32223211e+02
391             	3.32226805e+02
392             	3.32233764e+02
393             	3.32242707e+02
394             	3.32253546e+02
395             	3.32267648e+02
396             	3.32265977e+02
397             	3.32259804e+02
398             	3.32261446e+02
399             	3.32269791e+02
400             	3.32282255e+02
401             	3.32280283e+02
402             	3.32285151e+02
403             	3.32282911e+02
404             	3.32288700e+02
405             	3.32286092e+02
406             	3.32291739e+02
407             	3.32300644e+02
408             	3.32311832e+02
409             	3.32310186e+02
410             	3.32314981e+02
411             	3.32322331e+02
412             	3.32331477e+02
413             	3.32343233e+02
414             	3.32340060e+02
415             	3.32343800e+02
416             	3.32350649e+02
417             	3.32359309e+02
418             	3.32369540e+02
419             	3.32366646e+02
420             	3.32361178e+02
421             	3.32364401e+02
422             	3.32374060e+02
423             	3.32388937e+02
424             	3.32386361e+02
425             	3.32388313e+02
426             	3.32393345e+02
427             	3.32401856e+02
428             	3.32403960e+02
429             	3.32397025e+02
430             	3.32401195e+02
431             	3.32409966e+02
432             	3.32411122e+02
433             	3.32403532e+02
434             	3.32406698e+02
435             	3.32414989e+02
436             	3.32427050e+02
437             	3.32414963e+02
438             	3.32414002e+02
439             	3.32420206e+02
440             	3.32430497e+02
441             	3.32427411e+02
442             	3.32429406e+02
443             	3.32433909e+02
444             	3.32441068e+02
445             	3.32450914e+02
446             	3.32447460e+02
447             	3.32451264e+02
448             	3.32447634e+02
449             	3.32452961e+02
450             	3.32465572e+02
451             	3.32462989e+02
452             	3.32468517e+02
453             	3.32465250e+02
454             	3.32468743e+02
455             	3.32474746e+02
456             	3.32483617e+02
457             	3.32478600e+02
458             	3.32480696e+02
459             	3.32486086e+02
460             	3.32493810e+02
461             	3.32506159e+02
462             	3.32508456e+02
463             	3.32498879e+02
464             	3.32501171e+02
465             	3.32509121e+02
466             	3.32507101e+02
467             	3.32512083e+02
468             	3.32505375e+02
469             	3.32506138e+02
470             	3.32510443e+02
471             	3.32517182e+02
472             	3.32510188e+02
473             	3.32509669e+02
474             	3.32513145e+02
475             	3.32519531e+02
476             	3.32527653e+02
477             	3.32539372e+02
478             	3.32552805e+02
479             	3.32538130e+02
480             	3.32535740e+02
481             	3.32541115e+02
482             	3.32550674e+02
483             	3.32549015e+02
484             	3.32541243e+02
485             	3.32541082e+02
486             	3.32547469e+02
487             	3.32559862e+02
488             	3.32554615e+02
489             	3.32555697e+02
490             	3.32560006e+02
491             	3.32566879e+02
492             	3.32576913e+02
493             	3.32572965e+02
494             	3.32564660e+02
495             	3.32564553e+02
496             	3.32571183e+02
497             	3.32567018e+02
498             	3.32560239e+02
499             	3.32560995e+02
500             	3.32568165e+02
501             	3.32563190e+02
502             	3.32564717e+02
503             	3.32568933e+02
504             	3.32574667e+02
505             	3.32584200e+02
506             	3.32577505e+02
507             	3.32578592e+02
508             	3.32583771e+02
509             	3.32591798e+02
510             	3.32602690e+02
511             	3.32586036e+02
512             	3.32581252e+02
513             	3.32584665e+02
514             	3.32592064e+02
515             	3.32603603e+02
516             	3.32599320e+02
517             	3.32589863e+02
518             	3.32588420e+02
519             	3.32593971e+02
520             	3.32603890e+02
521             	3.32597613e+02
522             	3.32598816e+02
523             	3.32603213e+02
524             	3.32609456e+02
525             	3.32618315e+02
526             	3.32612445e+02
527             	3.32614397e+02
528             	3.32608061e+02
529             	3.32609053e+02
530             	3.32618098e+02
531             	3.32612422e+02
532             	3.32614421e+02
533             	3.32609380e+02
534             	3.32611182e+02
535             	3.32621214e+02
536             	3.32615003e+02
537             	3.32616244e+02
538             	3.32620836e+02
539             	3.32627896e+02
540             	3.32638785e+02
541             	3.32633002e+02
542             	3.32634590e+02
543             	3.32640390e+02
544             	3.32636007e+02
545             	3.32639960e+02
546             	3.32632312e+02
547             	3.32633476e+02
548             	3.32639398e+02
549             	3.32636690e+02
550             	3.32642440e+02
551             	3.32634718e+02
552             	3.32635505e+02
553             	3.32640490e+02
554             	3.32648494e+02
555             	3.32644320e+02
556             	3.32634467e+02
557             	3.32632705e+02
558             	3.32637924e+02
559             	3.32648955e+02
560             	3.32642824e+02
561             	3.32643738e+02
562             	3.32648486e+02
563             	3.32655914e+02
564             	3.32667105e+02
565             	3.32649833e+02
566             	3.32644491e+02
567             	3.32647169e+02
568             	3.32654011e+02
569             	3.32664751e+02
570             	3.32659603e+02
571             	3.32650112e+02
572             	3.32648621e+02
573             	3.32654024e+02
574             	3.32665100e+02
575             	3.32659489e+02
576             	3.32661421e+02
577             	3.32655339e+02
578             	3.32656288e+02
579             	3.32665897e+02
580             	3.32659467e+02
581             	3.32660446e+02
582             	3.32665685e+02
583             	3.32662164e+02
584             	3.32650479e+02
585             	3.32650010e+02
586             	3.32654471e+02
587             	3.32661932e+02
588             	3.32656904e+02
589             	3.32659084e+02
590             	3.32664788e+02
591             	3.32660245e+02
592             	3.32664726e+02
593             	3.32656324e+02
594             	3.32656597e+02
595             	3.32660736e+02
596             	3.32667460e+02
597             	3.32677697e+02
598             	3.32672008e+02
599             	3.32661592e+02
600             	3.32659420e+02
601             	3.32664304e+02
602             	3.32674191e+02
603             	3.32668253e+02
604             	3.32669661e+02
605             	3.32675579e+02
606             	3.32671199e+02
607             	3.32675327e+02
608             	3.32667117e+02
609             	3.32667631e+02
610             	3.32672324e+02
611             	3.32680016e+02
612             	3.32692511e+02
613             	3.32675511e+02
614             	3.32669752e+02
615             	3.32672143e+02
616             	3.32678788e+02
617             	3.32689878e+02
618             	3.32684128e+02
619             	3.32685827e+02
620             	3.32679102e+02
621             	3.32679512e+02
