# Region        : cellZone component_3
# Cells         : 32
# Volume        : 4.01771816e-02
# Time          	volAverage(T)
1               	3.04660705e+02
2               	3.09181237e+02
3               	3.12436489e+02
4               	3.14945769e+02
5               	3.17208975e+02
6               	3.19256490e+02
7               	3.21166068e+02
8               	3.22931129e+02
9               	3.24591864e+02
10              	3.26149411e+02
11              	3.27682559e+02
12              	3.29165653e+02
13              	3.30600091e+02
14              	3.31859053e+02
15              	3.32890233e+02
16              	3.33788121e+02
17              	3.34435939e+02
18              	3.35013698e+02
19              	3.35473784e+02
20              	3.35931097e+02
21              	3.36522548e+02
22              	3.37217604e+02
23              	3.37948303e+02
24              	3.38710624e+02
25              	3.39449556e+02
26              	3.40080193e+02
27              	3.40560730e+02
28              	3.40787402e+02
29              	3.41041351e+02
30              	3.41211079e+02
31              	3.41341882e+02
32              	3.41465741e+02
33              	3.41582558e+02
34              	3.41776947e+02
35              	3.41672440e+02
36              	3.41437841e+02
37              	3.41153835e+02
38              	3.40858515e+02
39              	3.40671264e+02
40              	3.40506049e+02
41              	3.40350150e+02
42              	3.40258906e+02
43              	3.40049599e+02
44              	3.39848807e+02
45              	3.39741547e+02
46              	3.39817478e+02
47              	3.39891530e+02
48              	3.40020650e+02
49              	3.40180672e+02
50              	3.40238760e+02
51              	3.40342326e+02
52              	3.40415555e+02
53              	3.40547169e+02
54              	3.40709086e+02
55              	3.40880402e+02
56              	3.41067842e+02
57              	3.41447544e+02
58              	3.41809951e+02
59              	3.42180401e+02
60              	3.42517340e+02
61              	3.42790784e+02
62              	3.43007574e+02
63              	3.43198034e+02
64              	3.43336569e+02
65              	3.43458866e+02
66              	3.43579344e+02
67              	3.43717639e+02
68              	3.43837409e+02
69              	3.43931857e+02
70              	3.44025598e+02
71              	3.44090404e+02
72              	3.44194052e+02
73              	3.44281520e+02
74              	3.44373543e+02
75              	3.44434541e+02
76              	3.44475675e+02
77              	3.44493876e+02
78              	3.44503712e+02
79              	3.44501090e+02
80              	3.44491355e+02
81              	3.44496092e+02
82              	3.44505949e+02
83              	3.44531045e+02
84              	3.44548548e+02
85              	3.44562724e+02
86              	3.44589940e+02
87              	3.44609152e+02
88              	3.44638951e+02
89              	3.44666151e+02
90              	3.44684793e+02
91              	3.44686193e+02
92              	3.44695609e+02
93              	3.44724234e+02
94              	3.44748013e+02
95              	3.44788662e+02
96              	3.44812500e+02
97              	3.44827797e+02
98              	3.44829940e+02
99              	3.44825449e+02
100             	3.44806013e+02
101             	3.44782242e+02
102             	3.44753767e+02
103             	3.44728925e+02
104             	3.44707417e+02
105             	3.44694429e+02
106             	3.44688875e+02
107             	3.44671667e+02
108             	3.44656543e+02
109             	3.44672663e+02
110             	3.44711958e+02
111             	3.44728375e+02
112             	3.44718535e+02
113             	3.44692840e+02
114             	3.44701475e+02
115             	3.44701692e+02
116             	3.44702555e+02
117             	3.44694725e+02
118             	3.44701118e+02
119             	3.44714489e+02
120             	3.44728819e+02
121             	3.44728065e+02
122             	3.44721816e+02
123             	3.44701884e+02
124             	3.44681073e+02
125             	3.44656086e+02
126             	3.44657824e+02
127             	3.44670360e+02
128             	3.44695510e+02
129             	3.44726124e+02
130             	3.44744007e+02
131             	3.44748740e+02
132             	3.44744233e+02
133             	3.44749213e+02
134             	3.44758483e+02
135             	3.44791138e+02
136             	3.44808368e+02
137             	3.44827966e+02
138             	3.44838307e+02
139             	3.44841902e+02
140             	3.44848164e+02
141             	3.44840640e+02
142             	3.44834125e+02
143             	3.44841224e+02
144             	3.44842363e+02
145             	3.44836782e+02
146             	3.44846152e+02
147             	3.44861107e+02
148             	3.44892758e+02
149             	3.44941894e+02
150             	3.45011758e+02
151             	3.45110376e+02
152             	3.45205623e+02
153             	3.45266990e+02
154             	3.45321792e+02
155             	3.45365080e+02
156             	3.45399184e+02
157             	3.45424906e+02
158             	3.45428869e+02
159             	3.45416919e+02
160             	3.45394400e+02
161             	3.45369670e+02
162             	3.45333587e+02
163             	3.45294153e+02
164             	3.45251191e+02
165             	3.45219973e+02
166             	3.45203009e+02
167             	3.45184039e+02
168             	3.45162448e+02
169             	3.45152537e+02
170             	3.45145377e+02
171             	3.45138600e+02
172             	3.45090642e+02
173             	3.45056992e+02
174             	3.45039013e+02
175             	3.45015242e+02
176             	3.44993977e+02
177             	3.44971519e+02
178             	3.44950515e+02
179             	3.44929002e+02
180             	3.44925250e+02
181             	3.44946119e+02
182             	3.44969347e+02
183             	3.44995826e+02
184             	3.45020819e+02
185             	3.45047465e+02
186             	3.45064830e+02
187             	3.45070781e+02
188             	3.45070129e+02
189             	3.45085191e+02
190             	3.45092396e+02
191             	3.45102926e+02
192             	3.45103210e+02
193             	3.45099677e+02
194             	3.45102868e+02
195             	3.45113685e+02
196             	3.45135819e+02
197             	3.45155333e+02
198             	3.45185734e+02
199             	3.45202256e+02
200             	3.45233752e+02
201             	3.45263328e+02
202             	3.45280577e+02
203             	3.45289645e+02
204             	3.45290934e+02
205             	3.45283933e+02
206             	3.45268212e+02
207             	3.45245207e+02
208             	3.45217777e+02
209             	3.45187749e+02
210             	3.45167557e+02
211             	3.45158299e+02
212             	3.45149391e+02
213             	3.45122299e+02
214             	3.45083018e+02
215             	3.45047211e+02
216             	3.45013063e+02
217             	3.44979152e+02
218             	3.44946688e+02
219             	3.44927244e+02
220             	3.44916843e+02
221             	3.44938792e+02
222             	3.44978522e+02
223             	3.45041951e+02
224             	3.45107887e+02
225             	3.45178108e+02
226             	3.45223304e+02
227             	3.45276143e+02
228             	3.45324984e+02
229             	3.45355638e+02
230             	3.45388794e+02
231             	3.45389683e+02
232             	3.45391868e+02
233             	3.45385686e+02
234             	3.45386117e+02
235             	3.45400420e+02
236             	3.45421158e+02
237             	3.45435566e+02
238             	3.45440423e+02
239             	3.45427828e+02
240             	3.45437390e+02
241             	3.45454118e+02
242             	3.45466116e+02
243             	3.45473040e+02
244             	3.45464046e+02
245             	3.45438381e+02
246             	3.45417620e+02
247             	3.45401265e+02
248             	3.45379319e+02
249             	3.45352832e+02
250             	3.45323196e+02
251             	3.45297397e+02
252             	3.45278875e+02
253             	3.45274308e+02
254             	3.45260340e+02
255             	3.45265456e+02
256             	3.45282663e+02
257             	3.45309321e+02
258             	3.45335818e+02
259             	3.45348981e+02
260             	3.45343803e+02
261             	3.45341583e+02
262             	3.45350779e+02
263             	3.45367740e+02
264             	3.45384372e+02
265             	3.45395425e+02
266             	3.45382760e+02
267             	3.45381979e+02
268             	3.45385783e+02
269             	3.45390300e+02
270             	3.45387551e+02
271             	3.45383213e+02
272             	3.45381421e+02
273             	3.45387494e+02
274             	3.45403380e+02
275             	3.45447125e+02
276             	3.45490352e+02
277             	3.45535707e+02
278             	3.45576832e+02
279             	3.45609337e+02
280             	3.45621143e+02
281             	3.45609415e+02
282             	3.45582326e+02
283             	3.45549087e+02
284             	3.45518188e+02
285             	3.45494237e+02
286             	3.45477534e+02
287             	3.45469225e+02
288             	3.45461126e+02
289             	3.45466341e+02
290             	3.45473854e+02
291             	3.45484874e+02
292             	3.45496342e+02
293             	3.45488385e+02
294             	3.45473400e+02
295             	3.45464840e+02
296             	3.45461160e+02
297             	3.45457867e+02
298             	3.45448139e+02
299             	3.45439019e+02
300             	3.45428280e+02
301             	3.45430584e+02
302             	3.45446460e+02
303             	3.45463674e+02
304             	3.45484897e+02
305             	3.45503414e+02
306             	3.45506164e+02
307             	3.45489157e+02
308             	3.45458234e+02
309             	3.45421666e+02
310             	3.45392698e+02
311             	3.45367269e+02
312             	3.45339701e+02
313             	3.45322539e+02
314             	3.45302016e+02
315             	3.45279227e+02
316             	3.45265257e+02
317             	3.45285435e+02
318             	3.45331889e+02
319             	3.45371978e+02
320             	3.45399374e+02
321             	3.45412852e+02
322             	3.45417551e+02
323             	3.45416461e+02
324             	3.45409710e+02
325             	3.45412695e+02
326             	3.45415150e+02
327             	3.45420096e+02
328             	3.45425911e+02
329             	3.45438633e+02
330             	3.45454914e+02
331             	3.45494892e+02
332             	3.45548287e+02
333             	3.45599745e+02
334             	3.45646696e+02
335             	3.45677618e+02
336             	3.45690530e+02
337             	3.45687594e+02
338             	3.45674222e+02
339             	3.45655033e+02
340             	3.45629643e+02
341             	3.45597617e+02
342             	3.45563619e+02
343             	3.45530305e+02
344             	3.45498607e+02
345             	3.45469358e+02
346             	3.45441722e+02
347             	3.45417529e+02
348             	3.45397389e+02
349             	3.45379632e+02
350             	3.45367445e+02
351             	3.45357301e+02
352             	3.45345749e+02
353             	3.45331045e+02
354             	3.45314578e+02
355             	3.45298480e+02
356             	3.45284408e+02
357             	3.45273143e+02
358             	3.45261657e+02
359             	3.45252220e+02
360             	3.45240942e+02
361             	3.45229863e+02
362             	3.45219936e+02
363             	3.45212033e+02
364             	3.45207800e+02
365             	3.45206241e+02
366             	3.45206554e+02
367             	3.45209559e+02
368             	3.45215151e+02
369             	3.45222980e+02
370             	3.45228182e+02
371             	3.45229232e+02
372             	3.45227613e+02
373             	3.45225371e+02
374             	3.45224416e+02
375             	3.45227134e+02
376             	3.45230956e+02
377             	3.45236429e+02
378             	3.45244056e+02
379             	3.45255039e+02
380             	3.45267851e+02
381             	3.45281280e+02
382             	3.45294460e+02
383             	3.45307412e+02
384             	3.45318309e+02
385             	3.45326875e+02
386             	3.45334318e+02
387             	3.45340178e+02
388             	3.45344415e+02
389             	3.45347350e+02
390             	3.45349893e+02
391             	3.45356850e+02
392             	3.45363749e+02
393             	3.45370437e+02
394             	3.45377074e+02
395             	3.45381847e+02
396             	3.45384703e+02
397             	3.45385593e+02
398             	3.45383774e+02
399             	3.45383196e+02
400             	3.45384147e+02
401             	3.45385873e+02
402             	3.45384394e+02
403             	3.45385796e+02
404             	3.45390456e+02
405             	3.45396204e+02
406             	3.45402910e+02
407             	3.45420946e+02
408             	3.45438144e+02
409             	3.45451706e+02
410             	3.45460122e+02
411             	3.45459503e+02
412             	3.45455670e+02
413             	3.45452663e+02
414             	3.45451394e+02
415             	3.45451595e+02
416             	3.45455430e+02
417             	3.45459271e+02
418             	3.45465352e+02
419             	3.45472241e+02
420             	3.45480002e+02
421             	3.45486449e+02
422             	3.45489568e+02
423             	3.45488621e+02
424             	3.45474802e+02
425             	3.45462745e+02
426             	3.45452772e+02
427             	3.45443982e+02
428             	3.45438664e+02
429             	3.45437984e+02
430             	3.45309881e+02
431             	3.45049013e+02
432             	3.44739224e+02
433             	3.44423704e+02
434             	3.44125974e+02
435             	3.43852875e+02
436             	3.43601444e+02
437             	3.43400416e+02
438             	3.43239517e+02
439             	3.43109825e+02
440             	3.43001286e+02
441             	3.42898672e+02
442             	3.42809746e+02
443             	3.42733695e+02
444             	3.42668697e+02
445             	3.42612301e+02
446             	3.42562678e+02
447             	3.42522509e+02
448             	3.42489408e+02
449             	3.42462321e+02
450             	3.42439714e+02
451             	3.42419627e+02
452             	3.42401533e+02
453             	3.42374547e+02
454             	3.42348746e+02
455             	3.42320976e+02
456             	3.42288753e+02
457             	3.42250813e+02
458             	3.42209018e+02
459             	3.42164083e+02
460             	3.42118832e+02
461             	3.42073364e+02
462             	3.42030965e+02
463             	3.41994053e+02
464             	3.41958243e+02
465             	3.41920989e+02
466             	3.41890428e+02
467             	3.41861195e+02
468             	3.41834869e+02
469             	3.41813135e+02
470             	3.41796868e+02
471             	3.41787405e+02
472             	3.41781949e+02
473             	3.41790251e+02
474             	3.41799973e+02
475             	3.41792591e+02
476             	3.41795883e+02
477             	3.41807860e+02
478             	3.41823610e+02
479             	3.41840147e+02
480             	3.41856780e+02
481             	3.41872184e+02
482             	3.41887791e+02
483             	3.41900643e+02
484             	3.41908787e+02
485             	3.41918103e+02
486             	3.41937604e+02
487             	3.41953323e+02
488             	3.41967880e+02
489             	3.41977916e+02
490             	3.41983358e+02
491             	3.41986117e+02
492             	3.41987312e+02
493             	3.41984922e+02
494             	3.41982942e+02
495             	3.41985406e+02
496             	3.41993030e+02
497             	3.42002998e+02
498             	3.42005529e+02
499             	3.42015985e+02
500             	3.42030004e+02
501             	3.42051263e+02
502             	3.42075783e+02
503             	3.42096246e+02
504             	3.42106605e+02
505             	3.42107171e+02
506             	3.42091389e+02
507             	3.42068468e+02
508             	3.42044480e+02
509             	3.42026803e+02
510             	3.42010321e+02
511             	3.41997571e+02
512             	3.41985554e+02
513             	3.41972918e+02
514             	3.41959424e+02
515             	3.41945906e+02
516             	3.41933686e+02
517             	3.41925025e+02
518             	3.41923844e+02
519             	3.41931452e+02
520             	3.41996113e+02
521             	3.42117112e+02
522             	3.42226168e+02
523             	3.42331670e+02
524             	3.42428902e+02
525             	3.42516170e+02
526             	3.42593810e+02
527             	3.42661542e+02
528             	3.42719672e+02
529             	3.42760392e+02
530             	3.42790204e+02
531             	3.42813049e+02
532             	3.42837473e+02
533             	3.42861709e+02
534             	3.42876762e+02
535             	3.42885436e+02
536             	3.42888147e+02
537             	3.42885694e+02
538             	3.42879385e+02
539             	3.42870994e+02
540             	3.42862712e+02
541             	3.42856802e+02
542             	3.42853074e+02
543             	3.42853123e+02
544             	3.42853686e+02
545             	3.42854087e+02
546             	3.42852982e+02
547             	3.42857096e+02
548             	3.42858326e+02
549             	3.42862914e+02
550             	3.42870602e+02
551             	3.42881589e+02
552             	3.42895102e+02
553             	3.42909857e+02
554             	3.42921356e+02
555             	3.42928671e+02
556             	3.42930385e+02
557             	3.42929791e+02
558             	3.42926766e+02
559             	3.42920859e+02
560             	3.42914368e+02
561             	3.42909842e+02
562             	3.42909081e+02
563             	3.42912086e+02
564             	3.42918377e+02
565             	3.42927227e+02
566             	3.42937481e+02
567             	3.42950345e+02
568             	3.42965561e+02
569             	3.42983838e+02
570             	3.43009509e+02
571             	3.43035100e+02
572             	3.43060180e+02
573             	3.43079620e+02
574             	3.43093966e+02
575             	3.43108713e+02
576             	3.43121985e+02
577             	3.43131711e+02
578             	3.43136724e+02
579             	3.43137911e+02
580             	3.43137013e+02
581             	3.43135916e+02
582             	3.43135718e+02
583             	3.43132705e+02
584             	3.43127074e+02
585             	3.43118086e+02
586             	3.43104556e+02
587             	3.43085729e+02
588             	3.43063229e+02
589             	3.43043394e+02
590             	3.43028015e+02
591             	3.43017618e+02
592             	3.43014463e+02
593             	3.43019968e+02
594             	3.43024605e+02
595             	3.43029783e+02
596             	3.43036727e+02
597             	3.43045321e+02
598             	3.43053451e+02
599             	3.43060038e+02
600             	3.43065261e+02
601             	3.43070694e+02
602             	3.43074937e+02
603             	3.43078042e+02
604             	3.43083759e+02
605             	3.43090908e+02
606             	3.43096369e+02
607             	3.43098311e+02
608             	3.43099630e+02
609             	3.43099157e+02
610             	3.43095955e+02
611             	3.43089595e+02
612             	3.43081563e+02
613             	3.43072203e+02
614             	3.43062918e+02
615             	3.43052158e+02
616             	3.43040809e+02
617             	3.43027656e+02
618             	3.43014483e+02
619             	3.43009537e+02
620             	3.43003022e+02
621             	3.42997376e+02
