# Region        : cellZone component_1
# Cells         : 401
# Volume        : 8.28068181e-01
# Time          	volAverage(T)
1               	3.00151750e+02
2               	3.00302570e+02
3               	3.00446612e+02
4               	3.00586825e+02
5               	3.00725449e+02
6               	3.00862815e+02
7               	3.00999112e+02
8               	3.01134718e+02
9               	3.01269843e+02
10              	3.01404462e+02
11              	3.01538644e+02
12              	3.01672382e+02
13              	3.01805873e+02
14              	3.01939228e+02
15              	3.02072248e+02
16              	3.02203638e+02
17              	3.02335046e+02
18              	3.02463823e+02
19              	3.02593469e+02
20              	3.02721762e+02
21              	3.02848322e+02
22              	3.02973300e+02
23              	3.03097154e+02
24              	3.03219468e+02
25              	3.03340258e+02
26              	3.03460536e+02
27              	3.03580361e+02
28              	3.03700244e+02
29              	3.03819875e+02
30              	3.03936426e+02
31              	3.04047223e+02
32              	3.04155310e+02
33              	3.04260926e+02
34              	3.04371076e+02
35              	3.04478669e+02
36              	3.04584561e+02
37              	3.04688421e+02
38              	3.04792052e+02
39              	3.04894912e+02
40              	3.04996068e+02
41              	3.05096463e+02
42              	3.05196904e+02
43              	3.05297017e+02
44              	3.05397121e+02
45              	3.05498663e+02
46              	3.05600144e+02
47              	3.05700852e+02
48              	3.05801433e+02
49              	3.05902009e+02
50              	3.06001209e+02
51              	3.06101323e+02
52              	3.06202885e+02
53              	3.06302411e+02
54              	3.06399510e+02
55              	3.06495062e+02
56              	3.06588472e+02
57              	3.06678617e+02
58              	3.06769668e+02
59              	3.06859968e+02
60              	3.06950510e+02
61              	3.07041030e+02
62              	3.07132959e+02
63              	3.07226150e+02
64              	3.07320783e+02
65              	3.07414723e+02
66              	3.07508839e+02
67              	3.07602066e+02
68              	3.07694612e+02
69              	3.07785871e+02
70              	3.07876631e+02
71              	3.07966758e+02
72              	3.08055961e+02
73              	3.08144179e+02
74              	3.08231458e+02
75              	3.08317811e+02
76              	3.08403845e+02
77              	3.08489229e+02
78              	3.08574050e+02
79              	3.08658286e+02
80              	3.08742113e+02
81              	3.08825525e+02
82              	3.08908366e+02
83              	3.08990801e+02
84              	3.09072690e+02
85              	3.09154000e+02
86              	3.09234573e+02
87              	3.09314309e+02
88              	3.09393431e+02
89              	3.09471979e+02
90              	3.09549890e+02
91              	3.09627284e+02
92              	3.09704048e+02
93              	3.09780001e+02
94              	3.09855306e+02
95              	3.09926912e+02
96              	3.09996528e+02
97              	3.10065149e+02
98              	3.10133672e+02
99              	3.10202421e+02
100             	3.10270943e+02
101             	3.10340188e+02
102             	3.10410222e+02
103             	3.10480487e+02
104             	3.10550236e+02
105             	3.10619822e+02
106             	3.10689363e+02
107             	3.10758551e+02
108             	3.10827305e+02
109             	3.10895241e+02
110             	3.10962198e+02
111             	3.11027729e+02
112             	3.11091899e+02
113             	3.11154603e+02
114             	3.11216394e+02
115             	3.11277762e+02
116             	3.11338883e+02
117             	3.11399660e+02
118             	3.11460192e+02
119             	3.11520391e+02
120             	3.11580224e+02
121             	3.11639804e+02
122             	3.11699142e+02
123             	3.11758215e+02
124             	3.11817003e+02
125             	3.11875557e+02
126             	3.11933691e+02
127             	3.11991341e+02
128             	3.12048571e+02
129             	3.12105404e+02
130             	3.12161730e+02
131             	3.12217623e+02
132             	3.12273107e+02
133             	3.12328101e+02
134             	3.12382697e+02
135             	3.12436910e+02
136             	3.12490953e+02
137             	3.12544663e+02
138             	3.12597918e+02
139             	3.12650954e+02
140             	3.12703655e+02
141             	3.12756042e+02
142             	3.12808088e+02
143             	3.12859786e+02
144             	3.12911134e+02
145             	3.12962116e+02
146             	3.13012775e+02
147             	3.13063040e+02
148             	3.13112973e+02
149             	3.13162532e+02
150             	3.13211810e+02
151             	3.13260744e+02
152             	3.13309332e+02
153             	3.13357571e+02
154             	3.13405444e+02
155             	3.13453017e+02
156             	3.13500273e+02
157             	3.13547215e+02
158             	3.13593881e+02
159             	3.13640234e+02
160             	3.13686284e+02
161             	3.13732028e+02
162             	3.13777427e+02
163             	3.13822506e+02
164             	3.13867292e+02
165             	3.13911767e+02
166             	3.13955935e+02
167             	3.13999800e+02
168             	3.14043363e+02
169             	3.14086633e+02
170             	3.14129626e+02
171             	3.14172358e+02
172             	3.14214827e+02
173             	3.14257033e+02
174             	3.14298947e+02
175             	3.14340602e+02
176             	3.14381964e+02
177             	3.14423058e+02
178             	3.14463866e+02
179             	3.14504397e+02
180             	3.14544634e+02
181             	3.14584578e+02
182             	3.14624253e+02
183             	3.14663710e+02
184             	3.14702924e+02
185             	3.14741905e+02
186             	3.14780651e+02
187             	3.14819148e+02
188             	3.14857415e+02
189             	3.14895438e+02
190             	3.14933216e+02
191             	3.14970750e+02
192             	3.15008024e+02
193             	3.15045036e+02
194             	3.15081747e+02
195             	3.15118176e+02
196             	3.15154302e+02
197             	3.15190158e+02
198             	3.15225762e+02
199             	3.15261133e+02
200             	3.15296268e+02
201             	3.15331166e+02
202             	3.15365835e+02
203             	3.15400288e+02
204             	3.15434515e+02
205             	3.15468541e+02
206             	3.15502372e+02
207             	3.15536008e+02
208             	3.15569441e+02
209             	3.15602674e+02
210             	3.15635697e+02
211             	3.15668517e+02
212             	3.15701125e+02
213             	3.15733519e+02
214             	3.15765699e+02
215             	3.15797659e+02
216             	3.15829404e+02
217             	3.15860935e+02
218             	3.15892252e+02
219             	3.15923356e+02
220             	3.15954248e+02
221             	3.15984937e+02
222             	3.16015421e+02
223             	3.16045700e+02
224             	3.16075777e+02
225             	3.16105658e+02
226             	3.16135349e+02
227             	3.16164852e+02
228             	3.16194166e+02
229             	3.16223295e+02
230             	3.16252243e+02
231             	3.16281007e+02
232             	3.16309591e+02
233             	3.16337994e+02
234             	3.16366211e+02
235             	3.16394251e+02
236             	3.16422110e+02
237             	3.16449791e+02
238             	3.16477291e+02
239             	3.16504611e+02
240             	3.16531753e+02
241             	3.16558721e+02
242             	3.16585515e+02
243             	3.16612139e+02
244             	3.16638591e+02
245             	3.16664875e+02
246             	3.16690991e+02
247             	3.16716948e+02
248             	3.16742741e+02
249             	3.16768377e+02
250             	3.16793852e+02
251             	3.16819165e+02
252             	3.16844318e+02
253             	3.16869311e+02
254             	3.16894073e+02
255             	3.16918825e+02
256             	3.16943684e+02
257             	3.16968643e+02
258             	3.16993683e+02
259             	3.17018805e+02
260             	3.17044009e+02
261             	3.17069395e+02
262             	3.17095013e+02
263             	3.17120883e+02
264             	3.17147015e+02
265             	3.17173419e+02
266             	3.17200061e+02
267             	3.17226911e+02
268             	3.17253953e+02
269             	3.17281128e+02
270             	3.17308375e+02
271             	3.17335637e+02
272             	3.17362854e+02
273             	3.17390004e+02
274             	3.17417107e+02
275             	3.17444207e+02
276             	3.17471318e+02
277             	3.17498435e+02
278             	3.17525544e+02
279             	3.17552669e+02
280             	3.17579822e+02
281             	3.17607047e+02
282             	3.17634259e+02
283             	3.17661493e+02
284             	3.17688700e+02
285             	3.17715901e+02
286             	3.17743066e+02
287             	3.17770169e+02
288             	3.17797192e+02
289             	3.17824125e+02
290             	3.17850948e+02
291             	3.17877670e+02
292             	3.17904230e+02
293             	3.17930559e+02
294             	3.17956612e+02
295             	3.17982476e+02
296             	3.18008133e+02
297             	3.18033586e+02
298             	3.18058854e+02
299             	3.18083905e+02
300             	3.18108842e+02
301             	3.18133650e+02
302             	3.18158274e+02
303             	3.18182659e+02
304             	3.18206851e+02
305             	3.18230853e+02
306             	3.18254626e+02
307             	3.18278129e+02
308             	3.18301356e+02
309             	3.18324413e+02
310             	3.18347313e+02
311             	3.18369950e+02
312             	3.18392244e+02
313             	3.18414320e+02
314             	3.18436108e+02
315             	3.18457601e+02
316             	3.18478700e+02
317             	3.18499706e+02
318             	3.18520292e+02
319             	3.18540564e+02
320             	3.18560809e+02
321             	3.18580755e+02
322             	3.18600483e+02
323             	3.18619882e+02
324             	3.18639167e+02
325             	3.18658354e+02
326             	3.18677302e+02
327             	3.18696140e+02
328             	3.18714914e+02
329             	3.18733602e+02
330             	3.18752129e+02
331             	3.18770484e+02
332             	3.18788579e+02
333             	3.18806395e+02
334             	3.18823873e+02
335             	3.18840972e+02
336             	3.18857861e+02
337             	3.18874602e+02
338             	3.18891193e+02
339             	3.18907664e+02
340             	3.18923924e+02
341             	3.18940015e+02
342             	3.18955962e+02
343             	3.18971744e+02
344             	3.18987370e+02
345             	3.19002779e+02
346             	3.19017753e+02
347             	3.19032880e+02
348             	3.19048042e+02
349             	3.19063180e+02
350             	3.19078185e+02
351             	3.19093281e+02
352             	3.19108348e+02
353             	3.19123211e+02
354             	3.19137979e+02
355             	3.19152643e+02
356             	3.19167166e+02
357             	3.19181563e+02
358             	3.19195915e+02
359             	3.19210157e+02
360             	3.19224209e+02
361             	3.19238022e+02
362             	3.19251434e+02
363             	3.19264812e+02
364             	3.19277835e+02
365             	3.19290621e+02
366             	3.19303329e+02
367             	3.19315947e+02
368             	3.19328384e+02
369             	3.19340655e+02
370             	3.19352722e+02
371             	3.19364910e+02
372             	3.19376990e+02
373             	3.19389132e+02
374             	3.19401295e+02
375             	3.19413481e+02
376             	3.19425693e+02
377             	3.19437861e+02
378             	3.19449914e+02
379             	3.19461846e+02
380             	3.19473452e+02
381             	3.19484933e+02
382             	3.19496512e+02
383             	3.19507921e+02
384             	3.19519145e+02
385             	3.19530462e+02
386             	3.19541545e+02
387             	3.19552547e+02
388             	3.19563408e+02
389             	3.19574179e+02
390             	3.19584881e+02
391             	3.19595471e+02
392             	3.19606060e+02
393             	3.19616676e+02
394             	3.19627313e+02
395             	3.19637800e+02
396             	3.19648307e+02
397             	3.19658832e+02
398             	3.19669402e+02
399             	3.19679797e+02
400             	3.19690042e+02
401             	3.19700409e+02
402             	3.19710580e+02
403             	3.19720573e+02
404             	3.19730395e+02
405             	3.19740153e+02
406             	3.19749716e+02
407             	3.19759249e+02
408             	3.19768651e+02
409             	3.19778077e+02
410             	3.19787455e+02
411             	3.19796803e+02
412             	3.19806114e+02
413             	3.19815303e+02
414             	3.19824612e+02
415             	3.19833709e+02
416             	3.19842723e+02
417             	3.19851486e+02
418             	3.19860198e+02
419             	3.19868942e+02
420             	3.19877719e+02
421             	3.19886332e+02
422             	3.19895293e+02
423             	3.19904062e+02
424             	3.19912841e+02
425             	3.19921692e+02
426             	3.19930557e+02
427             	3.19939356e+02
428             	3.19947980e+02
429             	3.19956618e+02
430             	3.19965221e+02
431             	3.19973719e+02
432             	3.19982127e+02
433             	3.19990404e+02
434             	3.19998645e+02
435             	3.20006836e+02
436             	3.20014760e+02
437             	3.20022862e+02
438             	3.20030783e+02
439             	3.20038718e+02
440             	3.20046265e+02
441             	3.20053972e+02
442             	3.20061443e+02
443             	3.20068880e+02
444             	3.20076444e+02
445             	3.20083917e+02
446             	3.20091432e+02
447             	3.20098968e+02
448             	3.20106505e+02
449             	3.20114141e+02
450             	3.20121735e+02
451             	3.20129255e+02
452             	3.20136786e+02
453             	3.20144277e+02
454             	3.20151696e+02
455             	3.20159197e+02
456             	3.20166654e+02
457             	3.20174049e+02
458             	3.20181454e+02
459             	3.20188790e+02
460             	3.20196008e+02
461             	3.20203206e+02
462             	3.20210318e+02
463             	3.20217261e+02
464             	3.20224202e+02
465             	3.20230889e+02
466             	3.20237745e+02
467             	3.20244476e+02
468             	3.20251234e+02
469             	3.20257954e+02
470             	3.20264621e+02
471             	3.20271069e+02
472             	3.20277657e+02
473             	3.20284160e+02
474             	3.20290682e+02
475             	3.20297135e+02
476             	3.20303593e+02
477             	3.20309955e+02
478             	3.20316272e+02
479             	3.20322593e+02
480             	3.20328910e+02
481             	3.20335205e+02
482             	3.20341463e+02
483             	3.20347734e+02
484             	3.20353971e+02
485             	3.20360134e+02
486             	3.20366109e+02
487             	3.20372275e+02
488             	3.20378346e+02
489             	3.20384503e+02
490             	3.20390599e+02
491             	3.20396660e+02
492             	3.20402793e+02
493             	3.20408832e+02
494             	3.20414853e+02
495             	3.20420828e+02
496             	3.20426761e+02
497             	3.20432639e+02
498             	3.20438271e+02
499             	3.20444006e+02
500             	3.20449616e+02
501             	3.20455103e+02
502             	3.20460673e+02
503             	3.20466118e+02
504             	3.20471597e+02
505             	3.20477022e+02
506             	3.20482451e+02
507             	3.20487832e+02
508             	3.20493184e+02
509             	3.20498548e+02
510             	3.20503862e+02
511             	3.20509223e+02
512             	3.20514542e+02
513             	3.20519809e+02
514             	3.20525132e+02
515             	3.20530427e+02
516             	3.20535726e+02
517             	3.20540896e+02
518             	3.20546083e+02
519             	3.20551264e+02
520             	3.20556415e+02
521             	3.20561525e+02
522             	3.20566588e+02
523             	3.20571722e+02
524             	3.20576738e+02
525             	3.20581632e+02
526             	3.20586450e+02
527             	3.20591328e+02
528             	3.20596113e+02
529             	3.20600906e+02
530             	3.20605690e+02
531             	3.20610495e+02
532             	3.20615202e+02
533             	3.20619796e+02
534             	3.20624418e+02
535             	3.20629072e+02
536             	3.20633745e+02
537             	3.20638393e+02
538             	3.20642976e+02
539             	3.20647618e+02
540             	3.20652188e+02
541             	3.20656762e+02
542             	3.20661325e+02
543             	3.20665880e+02
544             	3.20670409e+02
545             	3.20674949e+02
546             	3.20679458e+02
547             	3.20683926e+02
548             	3.20688272e+02
549             	3.20692610e+02
550             	3.20696907e+02
551             	3.20701228e+02
552             	3.20705389e+02
553             	3.20709437e+02
554             	3.20713498e+02
555             	3.20717605e+02
556             	3.20721607e+02
557             	3.20725635e+02
558             	3.20729750e+02
559             	3.20733778e+02
560             	3.20737750e+02
561             	3.20741736e+02
562             	3.20745719e+02
563             	3.20749684e+02
564             	3.20753645e+02
565             	3.20757580e+02
566             	3.20761512e+02
567             	3.20765400e+02
568             	3.20769290e+02
569             	3.20773159e+02
570             	3.20777007e+02
571             	3.20780839e+02
572             	3.20784656e+02
573             	3.20788437e+02
574             	3.20792195e+02
575             	3.20795937e+02
576             	3.20799649e+02
577             	3.20803327e+02
578             	3.20807037e+02
579             	3.20810616e+02
580             	3.20814107e+02
581             	3.20817638e+02
582             	3.20821225e+02
583             	3.20824710e+02
584             	3.20828119e+02
585             	3.20831557e+02
586             	3.20835014e+02
587             	3.20838446e+02
588             	3.20841872e+02
589             	3.20845279e+02
590             	3.20848682e+02
591             	3.20852064e+02
592             	3.20855435e+02
593             	3.20858798e+02
594             	3.20862149e+02
595             	3.20865461e+02
596             	3.20868758e+02
597             	3.20872004e+02
598             	3.20875220e+02
599             	3.20878400e+02
600             	3.20881618e+02
601             	3.20884804e+02
602             	3.20887978e+02
603             	3.20891146e+02
604             	3.20894270e+02
605             	3.20897457e+02
606             	3.20900639e+02
607             	3.20903677e+02
608             	3.20906766e+02
609             	3.20909817e+02
610             	3.20912839e+02
611             	3.20915879e+02
612             	3.20918812e+02
613             	3.20921691e+02
614             	3.20924646e+02
615             	3.20927487e+02
616             	3.20930240e+02
617             	3.20933037e+02
618             	3.20935810e+02
619             	3.20938512e+02
620             	3.20941291e+02
621             	3.20944020e+02
