# Region        : cellZone component_0
# Cells         : 24
# Volume        : 3.83071537e-02
# Time          	volAverage(T)
1               	3.04198930e+02
2               	3.08262436e+02
3               	3.10957623e+02
4               	3.12864632e+02
5               	3.14707611e+02
6               	3.16542787e+02
7               	3.18269416e+02
8               	3.19834539e+02
9               	3.21273155e+02
10              	3.22713606e+02
11              	3.24131429e+02
12              	3.25549650e+02
13              	3.26865919e+02
14              	3.28091132e+02
15              	3.29282112e+02
16              	3.30492847e+02
17              	3.31681061e+02
18              	3.32702727e+02
19              	3.33632341e+02
20              	3.34520271e+02
21              	3.35382355e+02
22              	3.36201212e+02
23              	3.36937264e+02
24              	3.37619772e+02
25              	3.38331423e+02
26              	3.38995573e+02
27              	3.39675130e+02
28              	3.40378266e+02
29              	3.41107919e+02
30              	3.41873781e+02
31              	3.42500667e+02
32              	3.43134867e+02
33              	3.43721418e+02
34              	3.44246841e+02
35              	3.44775238e+02
36              	3.45303239e+02
37              	3.45804371e+02
38              	3.46152654e+02
39              	3.46495351e+02
40              	3.46898015e+02
41              	3.47288184e+02
42              	3.47626517e+02
43              	3.47998681e+02
44              	3.48324091e+02
45              	3.48685709e+02
46              	3.48982101e+02
47              	3.49274446e+02
48              	3.49541070e+02
49              	3.49740067e+02
50              	3.49916072e+02
51              	3.50015500e+02
52              	3.50084585e+02
53              	3.50094188e+02
54              	3.50206048e+02
55              	3.50535703e+02
56              	3.50820213e+02
57              	3.51081137e+02
58              	3.51249912e+02
59              	3.51427104e+02
60              	3.51676236e+02
61              	3.51928981e+02
62              	3.52169236e+02
63              	3.52380835e+02
64              	3.52589402e+02
65              	3.52763176e+02
66              	3.52871093e+02
67              	3.52904579e+02
68              	3.52953240e+02
69              	3.52983047e+02
70              	3.53081147e+02
71              	3.53184677e+02
72              	3.53299359e+02
73              	3.53407535e+02
74              	3.53514468e+02
75              	3.53654952e+02
76              	3.53833017e+02
77              	3.54029272e+02
78              	3.54135624e+02
79              	3.54357536e+02
80              	3.54598062e+02
81              	3.54811883e+02
82              	3.54945553e+02
83              	3.55058708e+02
84              	3.55152594e+02
85              	3.55263790e+02
86              	3.55423057e+02
87              	3.55618378e+02
88              	3.55840157e+02
89              	3.56153589e+02
90              	3.56426216e+02
91              	3.56658689e+02
92              	3.56878734e+02
93              	3.57093068e+02
94              	3.57283774e+02
95              	3.57439285e+02
96              	3.57487290e+02
97              	3.57543526e+02
98              	3.57568549e+02
99              	3.57601583e+02
100             	3.57581900e+02
101             	3.57613411e+02
102             	3.57589823e+02
103             	3.57620879e+02
104             	3.57741730e+02
105             	3.57899720e+02
106             	3.58074385e+02
107             	3.58160722e+02
108             	3.58230662e+02
109             	3.58269279e+02
110             	3.58284710e+02
111             	3.58204157e+02
112             	3.58102847e+02
113             	3.58052230e+02
114             	3.57977887e+02
115             	3.57853757e+02
116             	3.57786120e+02
117             	3.57794205e+02
118             	3.57834450e+02
119             	3.57875418e+02
120             	3.57913664e+02
121             	3.57954699e+02
122             	3.57996616e+02
123             	3.58046124e+02
124             	3.58077154e+02
125             	3.58092372e+02
126             	3.58128181e+02
127             	3.58191907e+02
128             	3.58296702e+02
129             	3.58418741e+02
130             	3.58514517e+02
131             	3.58614409e+02
132             	3.58716131e+02
133             	3.58816544e+02
134             	3.58897977e+02
135             	3.58968068e+02
136             	3.59026829e+02
137             	3.59093710e+02
138             	3.59190213e+02
139             	3.59312125e+02
140             	3.59376621e+02
141             	3.59491302e+02
142             	3.59580581e+02
143             	3.59703085e+02
144             	3.59810260e+02
145             	3.59921766e+02
146             	3.60027028e+02
147             	3.60103626e+02
148             	3.60152866e+02
149             	3.60176022e+02
150             	3.60190497e+02
151             	3.60214753e+02
152             	3.60205819e+02
153             	3.60193390e+02
154             	3.60183446e+02
155             	3.60170454e+02
156             	3.60151589e+02
157             	3.60136955e+02
158             	3.60140162e+02
159             	3.60152400e+02
160             	3.60159314e+02
161             	3.60131662e+02
162             	3.60120525e+02
163             	3.60116608e+02
164             	3.60136422e+02
165             	3.60145132e+02
166             	3.60130365e+02
167             	3.60107854e+02
168             	3.60095601e+02
169             	3.60093015e+02
170             	3.60093040e+02
171             	3.60096454e+02
172             	3.60097657e+02
173             	3.60100029e+02
174             	3.60105936e+02
175             	3.60129267e+02
176             	3.60173030e+02
177             	3.60197427e+02
178             	3.60218827e+02
179             	3.60230126e+02
180             	3.60249009e+02
181             	3.60242027e+02
182             	3.60235393e+02
183             	3.60212261e+02
184             	3.60177444e+02
185             	3.60151906e+02
186             	3.60137583e+02
187             	3.60129174e+02
188             	3.60124617e+02
189             	3.60122347e+02
190             	3.60120058e+02
191             	3.60122581e+02
192             	3.60132377e+02
193             	3.60145019e+02
194             	3.60122146e+02
195             	3.60107482e+02
196             	3.60095083e+02
197             	3.60088992e+02
198             	3.60058121e+02
199             	3.60054934e+02
200             	3.60011345e+02
201             	3.59989929e+02
202             	3.59962691e+02
203             	3.59936033e+02
204             	3.59906474e+02
205             	3.59878046e+02
206             	3.59850354e+02
207             	3.59831805e+02
208             	3.59827016e+02
209             	3.59829111e+02
210             	3.59826341e+02
211             	3.59779710e+02
212             	3.59759653e+02
213             	3.59728921e+02
214             	3.59744188e+02
215             	3.59725073e+02
216             	3.59738624e+02
217             	3.59764705e+02
218             	3.59805223e+02
219             	3.59846698e+02
220             	3.59888056e+02
221             	3.59938923e+02
222             	3.59969488e+02
223             	3.60008643e+02
224             	3.60051549e+02
225             	3.60101938e+02
226             	3.60151088e+02
227             	3.60203252e+02
228             	3.60241743e+02
229             	3.60263301e+02
230             	3.60290179e+02
231             	3.60320902e+02
232             	3.60351165e+02
233             	3.60381334e+02
234             	3.60416628e+02
235             	3.60461762e+02
236             	3.60487407e+02
237             	3.60524099e+02
238             	3.60535307e+02
239             	3.60573501e+02
240             	3.60583544e+02
241             	3.60626343e+02
242             	3.60623794e+02
243             	3.60643385e+02
244             	3.60645429e+02
245             	3.60667842e+02
246             	3.60654516e+02
247             	3.60656336e+02
248             	3.60666356e+02
249             	3.60672092e+02
250             	3.60671884e+02
251             	3.60668546e+02
252             	3.60663498e+02
253             	3.60653618e+02
254             	3.60654584e+02
255             	3.60601695e+02
256             	3.60561300e+02
257             	3.60527939e+02
258             	3.60493371e+02
259             	3.60455803e+02
260             	3.60412766e+02
261             	3.60376246e+02
262             	3.60349387e+02
263             	3.60317598e+02
264             	3.60301399e+02
265             	3.60317021e+02
266             	3.60308987e+02
267             	3.60326833e+02
268             	3.60312505e+02
269             	3.60321436e+02
270             	3.60335829e+02
271             	3.60351847e+02
272             	3.60359162e+02
273             	3.60361364e+02
274             	3.60368373e+02
275             	3.60363387e+02
276             	3.60364085e+02
277             	3.60328883e+02
278             	3.60297065e+02
279             	3.60283803e+02
280             	3.60281952e+02
281             	3.60287717e+02
282             	3.60302453e+02
283             	3.60296583e+02
284             	3.60303577e+02
285             	3.60310899e+02
286             	3.60338333e+02
287             	3.60351636e+02
288             	3.60388128e+02
289             	3.60407134e+02
290             	3.60447239e+02
291             	3.60461019e+02
292             	3.60481459e+02
293             	3.60528689e+02
294             	3.60546346e+02
295             	3.60568475e+02
296             	3.60603234e+02
297             	3.60614966e+02
298             	3.60635359e+02
299             	3.60643461e+02
300             	3.60647555e+02
301             	3.60641677e+02
302             	3.60640598e+02
303             	3.60628387e+02
304             	3.60630126e+02
305             	3.60601263e+02
306             	3.60590290e+02
307             	3.60598038e+02
308             	3.60575185e+02
309             	3.60572170e+02
310             	3.60556655e+02
311             	3.60576061e+02
312             	3.60560062e+02
313             	3.60561175e+02
314             	3.60550227e+02
315             	3.60558748e+02
316             	3.60536796e+02
317             	3.60535524e+02
318             	3.60507303e+02
319             	3.60503645e+02
320             	3.60482527e+02
321             	3.60475559e+02
322             	3.60465418e+02
323             	3.60463346e+02
324             	3.60473022e+02
325             	3.60472528e+02
326             	3.60485494e+02
327             	3.60482784e+02
328             	3.60500571e+02
329             	3.60503365e+02
330             	3.60524494e+02
331             	3.60511767e+02
332             	3.60513141e+02
333             	3.60508080e+02
334             	3.60509544e+02
335             	3.60490632e+02
336             	3.60479561e+02
337             	3.60456949e+02
338             	3.60443192e+02
339             	3.60416142e+02
340             	3.60403081e+02
341             	3.60369638e+02
342             	3.60359798e+02
343             	3.60327222e+02
344             	3.60321167e+02
345             	3.60299729e+02
346             	3.60304624e+02
347             	3.60283614e+02
348             	3.60286410e+02
349             	3.60273149e+02
350             	3.60285447e+02
351             	3.60270728e+02
352             	3.60275242e+02
353             	3.60265690e+02
354             	3.60281615e+02
355             	3.60270739e+02
356             	3.60278100e+02
357             	3.60288687e+02
358             	3.60302531e+02
359             	3.60313239e+02
360             	3.60332450e+02
361             	3.60341279e+02
362             	3.60368557e+02
363             	3.60382406e+02
364             	3.60415650e+02
365             	3.60433010e+02
366             	3.60467403e+02
367             	3.60477494e+02
368             	3.60509683e+02
369             	3.60514195e+02
370             	3.60539211e+02
371             	3.60542169e+02
372             	3.60567228e+02
373             	3.60558352e+02
374             	3.60561247e+02
375             	3.60572205e+02
376             	3.60571502e+02
377             	3.60582324e+02
378             	3.60584163e+02
379             	3.60606316e+02
380             	3.60608651e+02
381             	3.60631744e+02
382             	3.60646112e+02
383             	3.60676124e+02
384             	3.60689321e+02
385             	3.60721230e+02
386             	3.60738625e+02
387             	3.60770184e+02
388             	3.60771977e+02
389             	3.60794051e+02
390             	3.60791985e+02
391             	3.60812826e+02
392             	3.60795948e+02
393             	3.60792550e+02
394             	3.60789948e+02
395             	3.60789967e+02
396             	3.60772646e+02
397             	3.60765840e+02
398             	3.60735456e+02
399             	3.60726522e+02
400             	3.60696897e+02
401             	3.60691269e+02
402             	3.60665606e+02
403             	3.60668425e+02
404             	3.60638402e+02
405             	3.60629644e+02
406             	3.60621712e+02
407             	3.60626946e+02
408             	3.60621455e+02
409             	3.60635190e+02
410             	3.60630909e+02
411             	3.60641289e+02
412             	3.60655698e+02
413             	3.60667191e+02
414             	3.60684438e+02
415             	3.60696832e+02
416             	3.60726222e+02
417             	3.60732590e+02
418             	3.60749124e+02
419             	3.60760054e+02
420             	3.60777679e+02
421             	3.60774150e+02
422             	3.60789940e+02
423             	3.60775089e+02
424             	3.60778500e+02
425             	3.60761983e+02
426             	3.60762334e+02
427             	3.60728959e+02
428             	3.60707317e+02
429             	3.60681110e+02
430             	3.60655014e+02
431             	3.60623617e+02
432             	3.60598354e+02
433             	3.60563297e+02
434             	3.60539558e+02
435             	3.60502415e+02
436             	3.60482914e+02
437             	3.60442971e+02
438             	3.60427652e+02
439             	3.60380615e+02
440             	3.60357747e+02
441             	3.60319853e+02
442             	3.60309787e+02
443             	3.60271150e+02
444             	3.60253894e+02
445             	3.60231152e+02
446             	3.60233215e+02
447             	3.60203794e+02
448             	3.60195577e+02
449             	3.60180100e+02
450             	3.60181486e+02
451             	3.60151280e+02
452             	3.60140462e+02
453             	3.60104920e+02
454             	3.60092091e+02
455             	3.60049155e+02
456             	3.60035526e+02
457             	3.59992828e+02
458             	3.59969311e+02
459             	3.59946881e+02
460             	3.59927005e+02
461             	3.59899544e+02
462             	3.59892815e+02
463             	3.59855789e+02
464             	3.59844292e+02
465             	3.59819112e+02
466             	3.59827429e+02
467             	3.59804972e+02
468             	3.59810133e+02
469             	3.59804518e+02
470             	3.59824825e+02
471             	3.59823326e+02
472             	3.59841537e+02
473             	3.59843641e+02
474             	3.59867973e+02
475             	3.59861400e+02
476             	3.59871703e+02
477             	3.59878774e+02
478             	3.59887855e+02
479             	3.59895771e+02
480             	3.59903488e+02
481             	3.59907435e+02
482             	3.59912457e+02
483             	3.59917675e+02
484             	3.59922862e+02
485             	3.59928051e+02
486             	3.59930912e+02
487             	3.59942892e+02
488             	3.59942445e+02
489             	3.59966499e+02
490             	3.59962395e+02
491             	3.59979003e+02
492             	3.59994834e+02
493             	3.60024187e+02
494             	3.60046846e+02
495             	3.60089731e+02
496             	3.60113037e+02
497             	3.60150984e+02
498             	3.60173059e+02
499             	3.60215767e+02
500             	3.60235925e+02
501             	3.60278033e+02
502             	3.60285607e+02
503             	3.60308858e+02
504             	3.60325358e+02
505             	3.60349549e+02
506             	3.60345971e+02
507             	3.60349019e+02
508             	3.60345996e+02
509             	3.60347018e+02
510             	3.60348288e+02
511             	3.60354540e+02
512             	3.60364575e+02
513             	3.60386336e+02
514             	3.60399107e+02
515             	3.60429090e+02
516             	3.60443658e+02
517             	3.60479850e+02
518             	3.60493533e+02
519             	3.60533137e+02
520             	3.60545876e+02
521             	3.60583629e+02
522             	3.60606082e+02
523             	3.60645632e+02
524             	3.60659845e+02
525             	3.60684137e+02
526             	3.60702013e+02
527             	3.60711138e+02
528             	3.60706043e+02
529             	3.60703372e+02
530             	3.60693116e+02
531             	3.60688499e+02
532             	3.60674164e+02
533             	3.60672742e+02
534             	3.60653764e+02
535             	3.60657476e+02
536             	3.60634441e+02
537             	3.60634760e+02
538             	3.60623145e+02
539             	3.60637467e+02
540             	3.60618300e+02
541             	3.60619222e+02
542             	3.60617820e+02
543             	3.60635523e+02
544             	3.60628227e+02
545             	3.60638342e+02
546             	3.60637216e+02
547             	3.60654942e+02
548             	3.60650410e+02
549             	3.60664651e+02
550             	3.60662411e+02
551             	3.60676099e+02
552             	3.60658421e+02
553             	3.60658246e+02
554             	3.60643461e+02
555             	3.60644696e+02
556             	3.60617793e+02
557             	3.60612141e+02
558             	3.60576559e+02
559             	3.60559399e+02
560             	3.60520729e+02
561             	3.60505743e+02
562             	3.60458144e+02
563             	3.60431242e+02
564             	3.60397522e+02
565             	3.60380140e+02
566             	3.60342802e+02
567             	3.60329493e+02
568             	3.60296421e+02
569             	3.60291540e+02
570             	3.60268752e+02
571             	3.60273530e+02
572             	3.60257156e+02
573             	3.60262443e+02
574             	3.60264683e+02
575             	3.60277341e+02
576             	3.60282142e+02
577             	3.60295067e+02
578             	3.60299681e+02
579             	3.60318964e+02
580             	3.60315998e+02
581             	3.60332310e+02
582             	3.60312923e+02
583             	3.60307352e+02
584             	3.60292513e+02
585             	3.60285060e+02
586             	3.60252617e+02
587             	3.60236986e+02
588             	3.60210535e+02
589             	3.60205049e+02
590             	3.60181760e+02
591             	3.60177287e+02
592             	3.60159648e+02
593             	3.60163995e+02
594             	3.60143880e+02
595             	3.60153425e+02
596             	3.60142465e+02
597             	3.60165767e+02
598             	3.60164255e+02
599             	3.60192026e+02
600             	3.60201236e+02
601             	3.60234092e+02
602             	3.60237561e+02
603             	3.60257519e+02
604             	3.60274265e+02
605             	3.60302047e+02
606             	3.60296176e+02
607             	3.60300380e+02
608             	3.60304181e+02
609             	3.60302815e+02
610             	3.60294679e+02
611             	3.60299610e+02
612             	3.60281198e+02
613             	3.60281134e+02
614             	3.60268241e+02
615             	3.60272768e+02
616             	3.60249302e+02
617             	3.60251504e+02
618             	3.60242552e+02
619             	3.60267598e+02
620             	3.60261272e+02
621             	3.60278586e+02
