# Region        : cellZone component_4
# Cells         : 108
# Volume        : 2.06559856e-01
# Time          	volAverage(T)
1               	3.00299416e+02
2               	3.00596380e+02
3               	3.00872492e+02
4               	3.01137979e+02
5               	3.01399514e+02
6               	3.01658960e+02
7               	3.01916501e+02
8               	3.02172768e+02
9               	3.02427675e+02
10              	3.02680055e+02
11              	3.02929180e+02
12              	3.03175312e+02
13              	3.03418853e+02
14              	3.03660138e+02
15              	3.03899779e+02
16              	3.04138661e+02
17              	3.04376857e+02
18              	3.04614969e+02
19              	3.04850911e+02
20              	3.05085136e+02
21              	3.05309635e+02
22              	3.05523343e+02
23              	3.05729201e+02
24              	3.05935436e+02
25              	3.06147974e+02
26              	3.06360444e+02
27              	3.06572837e+02
28              	3.06786071e+02
29              	3.06999706e+02
30              	3.07212757e+02
31              	3.07423113e+02
32              	3.07631099e+02
33              	3.07835611e+02
34              	3.08031784e+02
35              	3.08224401e+02
36              	3.08409523e+02
37              	3.08592525e+02
38              	3.08775994e+02
39              	3.08960721e+02
40              	3.09147548e+02
41              	3.09327587e+02
42              	3.09500957e+02
43              	3.09663060e+02
44              	3.09819820e+02
45              	3.09979232e+02
46              	3.10136995e+02
47              	3.10294913e+02
48              	3.10455165e+02
49              	3.10614614e+02
50              	3.10771572e+02
51              	3.10924078e+02
52              	3.11067986e+02
53              	3.11213372e+02
54              	3.11351484e+02
55              	3.11489743e+02
56              	3.11627523e+02
57              	3.11764336e+02
58              	3.11895388e+02
59              	3.12008597e+02
60              	3.12123677e+02
61              	3.12240278e+02
62              	3.12363590e+02
63              	3.12488515e+02
64              	3.12612506e+02
65              	3.12734305e+02
66              	3.12856101e+02
67              	3.12979110e+02
68              	3.13101480e+02
69              	3.13220994e+02
70              	3.13336664e+02
71              	3.13453683e+02
72              	3.13575818e+02
73              	3.13687656e+02
74              	3.13783437e+02
75              	3.13874630e+02
76              	3.13975775e+02
77              	3.14073985e+02
78              	3.14170741e+02
79              	3.14269182e+02
80              	3.14369570e+02
81              	3.14471385e+02
82              	3.14576492e+02
83              	3.14688142e+02
84              	3.14802791e+02
85              	3.14913676e+02
86              	3.15026050e+02
87              	3.15134638e+02
88              	3.15244260e+02
89              	3.15352900e+02
90              	3.15459173e+02
91              	3.15563426e+02
92              	3.15665983e+02
93              	3.15765812e+02
94              	3.15862935e+02
95              	3.15964553e+02
96              	3.16069878e+02
97              	3.16160441e+02
98              	3.16234283e+02
99              	3.16303629e+02
100             	3.16382391e+02
101             	3.16461715e+02
102             	3.16541449e+02
103             	3.16624246e+02
104             	3.16710643e+02
105             	3.16800291e+02
106             	3.16895337e+02
107             	3.16990724e+02
108             	3.17083861e+02
109             	3.17173046e+02
110             	3.17250440e+02
111             	3.17327627e+02
112             	3.17403700e+02
113             	3.17481216e+02
114             	3.17556934e+02
115             	3.17628256e+02
116             	3.17696249e+02
117             	3.17757386e+02
118             	3.17815114e+02
119             	3.17870996e+02
120             	3.17926255e+02
121             	3.17981318e+02
122             	3.18037755e+02
123             	3.18095016e+02
124             	3.18153035e+02
125             	3.18211362e+02
126             	3.18270673e+02
127             	3.18329916e+02
128             	3.18388036e+02
129             	3.18445226e+02
130             	3.18501138e+02
131             	3.18555396e+02
132             	3.18607465e+02
133             	3.18658542e+02
134             	3.18708922e+02
135             	3.18758705e+02
136             	3.18807761e+02
137             	3.18857459e+02
138             	3.18906588e+02
139             	3.18956368e+02
140             	3.19005435e+02
141             	3.19053489e+02
142             	3.19100477e+02
143             	3.19146886e+02
144             	3.19193939e+02
145             	3.19241815e+02
146             	3.19290487e+02
147             	3.19339295e+02
148             	3.19388176e+02
149             	3.19436831e+02
150             	3.19484896e+02
151             	3.19531920e+02
152             	3.19578048e+02
153             	3.19623453e+02
154             	3.19668991e+02
155             	3.19714612e+02
156             	3.19758812e+02
157             	3.19801642e+02
158             	3.19841647e+02
159             	3.19881149e+02
160             	3.19919849e+02
161             	3.19958069e+02
162             	3.19996363e+02
163             	3.20033412e+02
164             	3.20069971e+02
165             	3.20105623e+02
166             	3.20142378e+02
167             	3.20180885e+02
168             	3.20219170e+02
169             	3.20257298e+02
170             	3.20295148e+02
171             	3.20332806e+02
172             	3.20369618e+02
173             	3.20405856e+02
174             	3.20441176e+02
175             	3.20475289e+02
176             	3.20508098e+02
177             	3.20538230e+02
178             	3.20567890e+02
179             	3.20595718e+02
180             	3.20620364e+02
181             	3.20644693e+02
182             	3.20670601e+02
183             	3.20696999e+02
184             	3.20723805e+02
185             	3.20751138e+02
186             	3.20779337e+02
187             	3.20808334e+02
188             	3.20837282e+02
189             	3.20866202e+02
190             	3.20895351e+02
191             	3.20924523e+02
192             	3.20954111e+02
193             	3.20983520e+02
194             	3.21012156e+02
195             	3.21040542e+02
196             	3.21068378e+02
197             	3.21096067e+02
198             	3.21124069e+02
199             	3.21150850e+02
200             	3.21175840e+02
201             	3.21200311e+02
202             	3.21224960e+02
203             	3.21249815e+02
204             	3.21274680e+02
205             	3.21300296e+02
206             	3.21326316e+02
207             	3.21352888e+02
208             	3.21379064e+02
209             	3.21405464e+02
210             	3.21431710e+02
211             	3.21457394e+02
212             	3.21482668e+02
213             	3.21507590e+02
214             	3.21531748e+02
215             	3.21555094e+02
216             	3.21577880e+02
217             	3.21599385e+02
218             	3.21620182e+02
219             	3.21640586e+02
220             	3.21660859e+02
221             	3.21680999e+02
222             	3.21701166e+02
223             	3.21721550e+02
224             	3.21742123e+02
225             	3.21762660e+02
226             	3.21782983e+02
227             	3.21803646e+02
228             	3.21824224e+02
229             	3.21843312e+02
230             	3.21861416e+02
231             	3.21878179e+02
232             	3.21894489e+02
233             	3.21909036e+02
234             	3.21922864e+02
235             	3.21937082e+02
236             	3.21952671e+02
237             	3.21969129e+02
238             	3.21985923e+02
239             	3.22002902e+02
240             	3.22020314e+02
241             	3.22037855e+02
242             	3.22054801e+02
243             	3.22070175e+02
244             	3.22085418e+02
245             	3.22100558e+02
246             	3.22115694e+02
247             	3.22130760e+02
248             	3.22145763e+02
249             	3.22160700e+02
250             	3.22174732e+02
251             	3.22189000e+02
252             	3.22203411e+02
253             	3.22217381e+02
254             	3.22231384e+02
255             	3.22245438e+02
256             	3.22259654e+02
257             	3.22274203e+02
258             	3.22289049e+02
259             	3.22304248e+02
260             	3.22319609e+02
261             	3.22335033e+02
262             	3.22350426e+02
263             	3.22365725e+02
264             	3.22380415e+02
265             	3.22395042e+02
266             	3.22409444e+02
267             	3.22423873e+02
268             	3.22438195e+02
269             	3.22452304e+02
270             	3.22466194e+02
271             	3.22479773e+02
272             	3.22492994e+02
273             	3.22506153e+02
274             	3.22519060e+02
275             	3.22531770e+02
276             	3.22544549e+02
277             	3.22557430e+02
278             	3.22570635e+02
279             	3.22584023e+02
280             	3.22597399e+02
281             	3.22610660e+02
282             	3.22623760e+02
283             	3.22636866e+02
284             	3.22649990e+02
285             	3.22662592e+02
286             	3.22674881e+02
287             	3.22687167e+02
288             	3.22699491e+02
289             	3.22711820e+02
290             	3.22723950e+02
291             	3.22735833e+02
292             	3.22747328e+02
293             	3.22758223e+02
294             	3.22768917e+02
295             	3.22779374e+02
296             	3.22789809e+02
297             	3.22800288e+02
298             	3.22810814e+02
299             	3.22821429e+02
300             	3.22832051e+02
301             	3.22842638e+02
302             	3.22853192e+02
303             	3.22863862e+02
304             	3.22874811e+02
305             	3.22885702e+02
306             	3.22896221e+02
307             	3.22906282e+02
308             	3.22915994e+02
309             	3.22925364e+02
310             	3.22934198e+02
311             	3.22942978e+02
312             	3.22951476e+02
313             	3.22959716e+02
314             	3.22967252e+02
315             	3.22974457e+02
316             	3.22981371e+02
317             	3.22988164e+02
318             	3.22995007e+02
319             	3.23002131e+02
320             	3.23009011e+02
321             	3.23015894e+02
322             	3.23023179e+02
323             	3.23030523e+02
324             	3.23037455e+02
325             	3.23043980e+02
326             	3.23050337e+02
327             	3.23056168e+02
328             	3.23061666e+02
329             	3.23066755e+02
330             	3.23071937e+02
331             	3.23076859e+02
332             	3.23081700e+02
333             	3.23087166e+02
334             	3.23093141e+02
335             	3.23099430e+02
336             	3.23105970e+02
337             	3.23112650e+02
338             	3.23119127e+02
339             	3.23125522e+02
340             	3.23131935e+02
341             	3.23138502e+02
342             	3.23145100e+02
343             	3.23151875e+02
344             	3.23158812e+02
345             	3.23165811e+02
346             	3.23172833e+02
347             	3.23179762e+02
348             	3.23186505e+02
349             	3.23193113e+02
350             	3.23199497e+02
351             	3.23205966e+02
352             	3.23212453e+02
353             	3.23218974e+02
354             	3.23225489e+02
355             	3.23232156e+02
356             	3.23238913e+02
357             	3.23245792e+02
358             	3.23252731e+02
359             	3.23259829e+02
360             	3.23266950e+02
361             	3.23274051e+02
362             	3.23280772e+02
363             	3.23287237e+02
364             	3.23293625e+02
365             	3.23299940e+02
366             	3.23306213e+02
367             	3.23312451e+02
368             	3.23318566e+02
369             	3.23324664e+02
370             	3.23330796e+02
371             	3.23336833e+02
372             	3.23343022e+02
373             	3.23349266e+02
374             	3.23355401e+02
375             	3.23361549e+02
376             	3.23367508e+02
377             	3.23373315e+02
378             	3.23379072e+02
379             	3.23384634e+02
380             	3.23390208e+02
381             	3.23395686e+02
382             	3.23400805e+02
383             	3.23405767e+02
384             	3.23410373e+02
385             	3.23414610e+02
386             	3.23418751e+02
387             	3.23422984e+02
388             	3.23427122e+02
389             	3.23431143e+02
390             	3.23435161e+02
391             	3.23439262e+02
392             	3.23443350e+02
393             	3.23447439e+02
394             	3.23451411e+02
395             	3.23455451e+02
396             	3.23459622e+02
397             	3.23463319e+02
398             	3.23466877e+02
399             	3.23470146e+02
400             	3.23473061e+02
401             	3.23475545e+02
402             	3.23478042e+02
403             	3.23480694e+02
404             	3.23483324e+02
405             	3.23486046e+02
406             	3.23488844e+02
407             	3.23491302e+02
408             	3.23493822e+02
409             	3.23496214e+02
410             	3.23498501e+02
411             	3.23500840e+02
412             	3.23503294e+02
413             	3.23505869e+02
414             	3.23508795e+02
415             	3.23512002e+02
416             	3.23515251e+02
417             	3.23518435e+02
418             	3.23521402e+02
419             	3.23524309e+02
420             	3.23527027e+02
421             	3.23529844e+02
422             	3.23532602e+02
423             	3.23535513e+02
424             	3.23538313e+02
425             	3.23541055e+02
426             	3.23543735e+02
427             	3.23546521e+02
428             	3.23549363e+02
429             	3.23552337e+02
430             	3.23555427e+02
431             	3.23558623e+02
432             	3.23562021e+02
433             	3.23565514e+02
434             	3.23569048e+02
435             	3.23572391e+02
436             	3.23575860e+02
437             	3.23579389e+02
438             	3.23582875e+02
439             	3.23586230e+02
440             	3.23589490e+02
441             	3.23592608e+02
442             	3.23595739e+02
443             	3.23598834e+02
444             	3.23602007e+02
445             	3.23605243e+02
446             	3.23608524e+02
447             	3.23611741e+02
448             	3.23615040e+02
449             	3.23618449e+02
450             	3.23621874e+02
451             	3.23625139e+02
452             	3.23628283e+02
453             	3.23631421e+02
454             	3.23634532e+02
455             	3.23637689e+02
456             	3.23640868e+02
457             	3.23644147e+02
458             	3.23647366e+02
459             	3.23650594e+02
460             	3.23653715e+02
461             	3.23656682e+02
462             	3.23659485e+02
463             	3.23662380e+02
464             	3.23665172e+02
465             	3.23667882e+02
466             	3.23670393e+02
467             	3.23672874e+02
468             	3.23675274e+02
469             	3.23677500e+02
470             	3.23679594e+02
471             	3.23681590e+02
472             	3.23683449e+02
473             	3.23685176e+02
474             	3.23686656e+02
475             	3.23688076e+02
476             	3.23689510e+02
477             	3.23690846e+02
478             	3.23692161e+02
479             	3.23693314e+02
480             	3.23694462e+02
481             	3.23695671e+02
482             	3.23696991e+02
483             	3.23698513e+02
484             	3.23700071e+02
485             	3.23701772e+02
486             	3.23703352e+02
487             	3.23704806e+02
488             	3.23706222e+02
489             	3.23707801e+02
490             	3.23709008e+02
491             	3.23710104e+02
492             	3.23711216e+02
493             	3.23712273e+02
494             	3.23713203e+02
495             	3.23713849e+02
496             	3.23714568e+02
497             	3.23715543e+02
498             	3.23716712e+02
499             	3.23717987e+02
500             	3.23719309e+02
501             	3.23720657e+02
502             	3.23722018e+02
503             	3.23723392e+02
504             	3.23724828e+02
505             	3.23726283e+02
506             	3.23727861e+02
507             	3.23729549e+02
508             	3.23731291e+02
509             	3.23733072e+02
510             	3.23734800e+02
511             	3.23736448e+02
512             	3.23738275e+02
513             	3.23740117e+02
514             	3.23741940e+02
515             	3.23743714e+02
516             	3.23745363e+02
517             	3.23746693e+02
518             	3.23747979e+02
519             	3.23749368e+02
520             	3.23750827e+02
521             	3.23752352e+02
522             	3.23753961e+02
523             	3.23755604e+02
524             	3.23757384e+02
525             	3.23759272e+02
526             	3.23761229e+02
527             	3.23763247e+02
528             	3.23765522e+02
529             	3.23767841e+02
530             	3.23770073e+02
531             	3.23772152e+02
532             	3.23774417e+02
533             	3.23776648e+02
534             	3.23778795e+02
535             	3.23780809e+02
536             	3.23782784e+02
537             	3.23784613e+02
538             	3.23786312e+02
539             	3.23787849e+02
540             	3.23789325e+02
541             	3.23790526e+02
542             	3.23791614e+02
543             	3.23792727e+02
544             	3.23793963e+02
545             	3.23795244e+02
546             	3.23796580e+02
547             	3.23797936e+02
548             	3.23799321e+02
549             	3.23800578e+02
550             	3.23801781e+02
551             	3.23802881e+02
552             	3.23803807e+02
553             	3.23804631e+02
554             	3.23805399e+02
555             	3.23806149e+02
556             	3.23806775e+02
557             	3.23807244e+02
558             	3.23807769e+02
559             	3.23808312e+02
560             	3.23808949e+02
561             	3.23809766e+02
562             	3.23810518e+02
563             	3.23811176e+02
564             	3.23811835e+02
565             	3.23812473e+02
566             	3.23812998e+02
567             	3.23813540e+02
568             	3.23814103e+02
569             	3.23814666e+02
570             	3.23815197e+02
571             	3.23815789e+02
572             	3.23816297e+02
573             	3.23816841e+02
574             	3.23817320e+02
575             	3.23817863e+02
576             	3.23818376e+02
577             	3.23818900e+02
578             	3.23819438e+02
579             	3.23819977e+02
580             	3.23820523e+02
581             	3.23821043e+02
582             	3.23821614e+02
583             	3.23822253e+02
584             	3.23822898e+02
585             	3.23823543e+02
586             	3.23824223e+02
587             	3.23824876e+02
588             	3.23825525e+02
589             	3.23826148e+02
590             	3.23826757e+02
591             	3.23827504e+02
592             	3.23828275e+02
593             	3.23829033e+02
594             	3.23829851e+02
595             	3.23830837e+02
596             	3.23831877e+02
597             	3.23832932e+02
598             	3.23833909e+02
599             	3.23835003e+02
600             	3.23836102e+02
601             	3.23837137e+02
602             	3.23838123e+02
603             	3.23839153e+02
604             	3.23840212e+02
605             	3.23841266e+02
606             	3.23842233e+02
607             	3.23843279e+02
608             	3.23844306e+02
609             	3.23845280e+02
610             	3.23846198e+02
611             	3.23847144e+02
612             	3.23848140e+02
613             	3.23849234e+02
614             	3.23850319e+02
615             	3.23851422e+02
616             	3.23852433e+02
617             	3.23853404e+02
618             	3.23854367e+02
619             	3.23855396e+02
620             	3.23856401e+02
621             	3.23857321e+02
