# Region        : cellZone component_0
# Cells         : 167
# Volume        : 9.56875053e-02
# Time          	volAverage(T)
1               	3.00978990e+02
2               	3.01950353e+02
3               	3.02891977e+02
4               	3.03815284e+02
5               	3.04725508e+02
6               	3.05625190e+02
7               	3.06510622e+02
8               	3.07382641e+02
9               	3.08242150e+02
10              	3.09090067e+02
11              	3.09926536e+02
12              	3.10751620e+02
13              	3.11565719e+02
14              	3.12369194e+02
15              	3.13161905e+02
16              	3.13943751e+02
17              	3.14715535e+02
18              	3.15477244e+02
19              	3.16229975e+02
20              	3.16974349e+02
21              	3.17710836e+02
22              	3.18438951e+02
23              	3.19158936e+02
24              	3.19870167e+02
25              	3.20572293e+02
26              	3.21266521e+02
27              	3.21951817e+02
28              	3.22628273e+02
29              	3.23296341e+02
30              	3.23955076e+02
31              	3.24605222e+02
32              	3.25246778e+02
33              	3.25879921e+02
34              	3.26505305e+02
35              	3.27123464e+02
36              	3.27734727e+02
37              	3.28339076e+02
38              	3.28937342e+02
39              	3.29529223e+02
40              	3.30114487e+02
41              	3.30693556e+02
42              	3.31266612e+02
43              	3.31833359e+02
44              	3.32394545e+02
45              	3.32948110e+02
46              	3.33495881e+02
47              	3.34035283e+02
48              	3.34562339e+02
49              	3.35080975e+02
50              	3.35593040e+02
51              	3.36094608e+02
52              	3.36587031e+02
53              	3.37073047e+02
54              	3.37553136e+02
55              	3.38027759e+02
56              	3.38497482e+02
57              	3.38962837e+02
58              	3.39424508e+02
59              	3.39883099e+02
60              	3.40337428e+02
61              	3.40786466e+02
62              	3.41231325e+02
63              	3.41670969e+02
64              	3.42104878e+02
65              	3.42532899e+02
66              	3.42954837e+02
67              	3.43370632e+02
68              	3.43780807e+02
69              	3.44186461e+02
70              	3.44587916e+02
71              	3.44985592e+02
72              	3.45379958e+02
73              	3.45772392e+02
74              	3.46165434e+02
75              	3.46558501e+02
76              	3.46944071e+02
77              	3.47328070e+02
78              	3.47708152e+02
79              	3.48081734e+02
80              	3.48448659e+02
81              	3.48808997e+02
82              	3.49163403e+02
83              	3.49515316e+02
84              	3.49864722e+02
85              	3.50213055e+02
86              	3.50561763e+02
87              	3.50912570e+02
88              	3.51259141e+02
89              	3.51602893e+02
90              	3.51941053e+02
91              	3.52278864e+02
92              	3.52610726e+02
93              	3.52935349e+02
94              	3.53253026e+02
95              	3.53564661e+02
96              	3.53871198e+02
97              	3.54179798e+02
98              	3.54491091e+02
99              	3.54805959e+02
100             	3.55122347e+02
101             	3.55446469e+02
102             	3.55762342e+02
103             	3.56079153e+02
104             	3.56393941e+02
105             	3.56702166e+02
106             	3.57002234e+02
107             	3.57293854e+02
108             	3.57578233e+02
109             	3.57855296e+02
110             	3.58126101e+02
111             	3.58393150e+02
112             	3.58659464e+02
113             	3.58926967e+02
114             	3.59196465e+02
115             	3.59463586e+02
116             	3.59732780e+02
117             	3.60002593e+02
118             	3.60270351e+02
119             	3.60534771e+02
120             	3.60796504e+02
121             	3.61053554e+02
122             	3.61303749e+02
123             	3.61547424e+02
124             	3.61784627e+02
125             	3.62015606e+02
126             	3.62241152e+02
127             	3.62465044e+02
128             	3.62689523e+02
129             	3.62915544e+02
130             	3.63141740e+02
131             	3.63366438e+02
132             	3.63590967e+02
133             	3.63816257e+02
134             	3.64038728e+02
135             	3.64257319e+02
136             	3.64472613e+02
137             	3.64685371e+02
138             	3.64894820e+02
139             	3.65100293e+02
140             	3.65302412e+02
141             	3.65500588e+02
142             	3.65694479e+02
143             	3.65883614e+02
144             	3.66068304e+02
145             	3.66250042e+02
146             	3.66429454e+02
147             	3.66608154e+02
148             	3.66786478e+02
149             	3.66965857e+02
150             	3.67149983e+02
151             	3.67339416e+02
152             	3.67522692e+02
153             	3.67704919e+02
154             	3.67884448e+02
155             	3.68060660e+02
156             	3.68230681e+02
157             	3.68396025e+02
158             	3.68558393e+02
159             	3.68718626e+02
160             	3.68879379e+02
161             	3.69042215e+02
162             	3.69209628e+02
163             	3.69381243e+02
164             	3.69554607e+02
165             	3.69723826e+02
166             	3.69892685e+02
167             	3.70062130e+02
168             	3.70227442e+02
169             	3.70387028e+02
170             	3.70540202e+02
171             	3.70687830e+02
172             	3.70874847e+02
173             	3.71091859e+02
174             	3.71301433e+02
175             	3.71506706e+02
176             	3.71710199e+02
177             	3.71914264e+02
178             	3.72123168e+02
179             	3.72336751e+02
180             	3.72553680e+02
181             	3.72775710e+02
182             	3.72989865e+02
183             	3.73207835e+02
184             	3.73421549e+02
185             	3.73627686e+02
186             	3.73825604e+02
187             	3.74016393e+02
188             	3.74200966e+02
189             	3.74379752e+02
190             	3.74554818e+02
191             	3.74728207e+02
192             	3.74900448e+02
193             	3.75078593e+02
194             	3.75259518e+02
195             	3.75445416e+02
196             	3.75633990e+02
197             	3.75820897e+02
198             	3.76008786e+02
199             	3.76193263e+02
200             	3.76372485e+02
201             	3.76548310e+02
202             	3.76718091e+02
203             	3.76881228e+02
204             	3.77038807e+02
205             	3.77192119e+02
206             	3.77341690e+02
207             	3.77487922e+02
208             	3.77632343e+02
209             	3.77776041e+02
210             	3.77921726e+02
211             	3.78072915e+02
212             	3.78231707e+02
213             	3.78391176e+02
214             	3.78550891e+02
215             	3.78715643e+02
216             	3.78875761e+02
217             	3.79033362e+02
218             	3.79188667e+02
219             	3.79339161e+02
220             	3.79482906e+02
221             	3.79620697e+02
222             	3.79752960e+02
223             	3.79880597e+02
224             	3.80005237e+02
225             	3.80128501e+02
226             	3.80251178e+02
227             	3.80373122e+02
228             	3.80494149e+02
229             	3.80614575e+02
230             	3.80734275e+02
231             	3.80852961e+02
232             	3.80971089e+02
233             	3.81088361e+02
234             	3.81206941e+02
235             	3.81326054e+02
236             	3.81449112e+02
237             	3.81574890e+02
238             	3.81697300e+02
239             	3.81825009e+02
240             	3.81950132e+02
241             	3.82073082e+02
242             	3.82194289e+02
243             	3.82312079e+02
244             	3.82425657e+02
245             	3.82535012e+02
246             	3.82639992e+02
247             	3.82741161e+02
248             	3.82840135e+02
249             	3.82939508e+02
250             	3.83040369e+02
251             	3.83144431e+02
252             	3.83252925e+02
253             	3.83366628e+02
254             	3.83485492e+02
255             	3.83610265e+02
256             	3.83727416e+02
257             	3.83843321e+02
258             	3.83956657e+02
259             	3.84062730e+02
260             	3.84161936e+02
261             	3.84255892e+02
262             	3.84345667e+02
263             	3.84431726e+02
264             	3.84515861e+02
265             	3.84602297e+02
266             	3.84688048e+02
267             	3.84779099e+02
268             	3.84875536e+02
269             	3.84978648e+02
270             	3.85085183e+02
271             	3.85193942e+02
272             	3.85303735e+02
273             	3.85408996e+02
274             	3.85512734e+02
275             	3.85617782e+02
276             	3.85716710e+02
277             	3.85808258e+02
278             	3.85893756e+02
279             	3.85974402e+02
280             	3.86050865e+02
281             	3.86123904e+02
282             	3.86194342e+02
283             	3.86264032e+02
284             	3.86333142e+02
285             	3.86402911e+02
286             	3.86473935e+02
287             	3.86549130e+02
288             	3.86626421e+02
289             	3.86707950e+02
290             	3.86794796e+02
291             	3.86885591e+02
292             	3.86977888e+02
293             	3.87065260e+02
294             	3.87153389e+02
295             	3.87238717e+02
296             	3.87320977e+02
297             	3.87398678e+02
298             	3.87471482e+02
299             	3.87539752e+02
300             	3.87603783e+02
301             	3.87664319e+02
302             	3.87723995e+02
303             	3.87784186e+02
304             	3.87846351e+02
305             	3.87912886e+02
306             	3.87985713e+02
307             	3.88064965e+02
308             	3.88141617e+02
309             	3.88217829e+02
310             	3.88294937e+02
311             	3.88371637e+02
312             	3.88444170e+02
313             	3.88510926e+02
314             	3.88571804e+02
315             	3.88627556e+02
316             	3.88679313e+02
317             	3.88728082e+02
318             	3.88775625e+02
319             	3.88823214e+02
320             	3.88871598e+02
321             	3.88921926e+02
322             	3.88974715e+02
323             	3.89030994e+02
324             	3.89096766e+02
325             	3.89168661e+02
326             	3.89235997e+02
327             	3.89312387e+02
328             	3.89384214e+02
329             	3.89453946e+02
330             	3.89518666e+02
331             	3.89578213e+02
332             	3.89632226e+02
333             	3.89681269e+02
334             	3.89727752e+02
335             	3.89773319e+02
336             	3.89819583e+02
337             	3.89867126e+02
338             	3.89917843e+02
339             	3.89975211e+02
340             	3.90040932e+02
341             	3.90110932e+02
342             	3.90178841e+02
343             	3.90245923e+02
344             	3.90315604e+02
345             	3.90382924e+02
346             	3.90444058e+02
347             	3.90500624e+02
348             	3.90551187e+02
349             	3.90596294e+02
350             	3.90636877e+02
351             	3.90675048e+02
352             	3.90712984e+02
353             	3.90752058e+02
354             	3.90793907e+02
355             	3.90841293e+02
356             	3.90896223e+02
357             	3.90954665e+02
358             	3.91009616e+02
359             	3.91067709e+02
360             	3.91127887e+02
361             	3.91184279e+02
362             	3.91235184e+02
363             	3.91279919e+02
364             	3.91320915e+02
365             	3.91357210e+02
366             	3.91389562e+02
367             	3.91419193e+02
368             	3.91446772e+02
369             	3.91473657e+02
370             	3.91502923e+02
371             	3.91536562e+02
372             	3.91576350e+02
373             	3.91626892e+02
374             	3.91676024e+02
375             	3.91732036e+02
376             	3.91794413e+02
377             	3.91862056e+02
378             	3.91925654e+02
379             	3.91986468e+02
380             	3.92046362e+02
381             	3.92099426e+02
382             	3.92145064e+02
383             	3.92184948e+02
384             	3.92219667e+02
385             	3.92249748e+02
386             	3.92276773e+02
387             	3.92302687e+02
388             	3.92328210e+02
389             	3.92353491e+02
390             	3.92378389e+02
391             	3.92402682e+02
392             	3.92426274e+02
393             	3.92448981e+02
394             	3.92469888e+02
395             	3.92490999e+02
396             	3.92513510e+02
397             	3.92536884e+02
398             	3.92563413e+02
399             	3.92592523e+02
400             	3.92626136e+02
401             	3.92666420e+02
402             	3.92706277e+02
403             	3.92749290e+02
404             	3.92791136e+02
405             	3.92831296e+02
406             	3.92870071e+02
407             	3.92904964e+02
408             	3.92934533e+02
409             	3.92959076e+02
410             	3.92979657e+02
411             	3.92996663e+02
412             	3.93012559e+02
413             	3.93031270e+02
414             	3.93055085e+02
415             	3.93084908e+02
416             	3.93117079e+02
417             	3.93152969e+02
418             	3.93197365e+02
419             	3.93245127e+02
420             	3.93287584e+02
421             	3.93327779e+02
422             	3.93364241e+02
423             	3.93396442e+02
424             	3.93423357e+02
425             	3.93445733e+02
426             	3.93464485e+02
427             	3.93480253e+02
428             	3.93494485e+02
429             	3.93507945e+02
430             	3.93520266e+02
431             	3.93531833e+02
432             	3.93544231e+02
433             	3.93557370e+02
434             	3.93570891e+02
435             	3.93584570e+02
436             	3.93599783e+02
437             	3.93619615e+02
438             	3.93643992e+02
439             	3.93675861e+02
440             	3.93704325e+02
441             	3.93738566e+02
442             	3.93770575e+02
443             	3.93802477e+02
444             	3.93832773e+02
445             	3.93859412e+02
446             	3.93881785e+02
447             	3.93899653e+02
448             	3.93913621e+02
449             	3.93924258e+02
450             	3.93932168e+02
451             	3.93938867e+02
452             	3.93947777e+02
453             	3.93960481e+02
454             	3.93979755e+02
455             	3.94005917e+02
456             	3.94034473e+02
457             	3.94066884e+02
458             	3.94099740e+02
459             	3.94134434e+02
460             	3.94169276e+02
461             	3.94200586e+02
462             	3.94228810e+02
463             	3.94253591e+02
464             	3.94275256e+02
465             	3.94294696e+02
466             	3.94312507e+02
467             	3.94328273e+02
468             	3.94342028e+02
469             	3.94353850e+02
470             	3.94363095e+02
471             	3.94369662e+02
472             	3.94373956e+02
473             	3.94377626e+02
474             	3.94380351e+02
475             	3.94383200e+02
476             	3.94386664e+02
477             	3.94391524e+02
478             	3.94398180e+02
479             	3.94406695e+02
480             	3.94416538e+02
481             	3.94427626e+02
482             	3.94441612e+02
483             	3.94456741e+02
484             	3.94472978e+02
485             	3.94490823e+02
486             	3.94510435e+02
487             	3.94529742e+02
488             	3.94547750e+02
489             	3.94566006e+02
490             	3.94664702e+02
491             	3.94756346e+02
492             	3.94841034e+02
493             	3.94919723e+02
494             	3.94993247e+02
495             	3.95062389e+02
496             	3.95128712e+02
497             	3.95193688e+02
498             	3.95258666e+02
499             	3.95323536e+02
500             	3.95388849e+02
501             	3.95453908e+02
502             	3.95518911e+02
503             	3.95583948e+02
504             	3.95648515e+02
505             	3.95711428e+02
506             	3.95772248e+02
507             	3.95830568e+02
508             	3.95887069e+02
509             	3.95942812e+02
510             	3.96001707e+02
511             	3.96061838e+02
512             	3.96124529e+02
513             	3.96189396e+02
514             	3.96257228e+02
515             	3.96325772e+02
516             	3.96396578e+02
517             	3.96466270e+02
518             	3.96535001e+02
519             	3.96602341e+02
520             	3.96668446e+02
521             	3.96733957e+02
522             	3.96799279e+02
523             	3.96864533e+02
524             	3.96929441e+02
525             	3.96993791e+02
526             	3.97057242e+02
527             	3.97119484e+02
528             	3.97180624e+02
529             	3.97240282e+02
530             	3.97298216e+02
531             	3.97354987e+02
532             	3.97411385e+02
533             	3.97467919e+02
534             	3.97525004e+02
535             	3.97582523e+02
536             	3.97640729e+02
537             	3.97697836e+02
538             	3.97754614e+02
539             	3.97810227e+02
540             	3.97864164e+02
541             	3.97916041e+02
542             	3.97965668e+02
543             	3.98013079e+02
544             	3.98058571e+02
545             	3.98102340e+02
546             	3.98144547e+02
547             	3.98185304e+02
548             	3.98224684e+02
549             	3.98262906e+02
550             	3.98300040e+02
551             	3.98337014e+02
552             	3.98373825e+02
553             	3.98410489e+02
554             	3.98447705e+02
555             	3.98487576e+02
556             	3.98529138e+02
557             	3.98572862e+02
558             	3.98619852e+02
559             	3.98669164e+02
560             	3.98720504e+02
561             	3.98773945e+02
562             	3.98829262e+02
563             	3.98883790e+02
564             	3.98937373e+02
565             	3.98991284e+02
566             	3.99042856e+02
567             	3.99093384e+02
568             	3.99142681e+02
569             	3.99190320e+02
570             	3.99235784e+02
571             	3.99279240e+02
572             	3.99320953e+02
573             	3.99361059e+02
574             	3.99400098e+02
575             	3.99437780e+02
576             	3.99474214e+02
577             	3.99508987e+02
578             	3.99543137e+02
579             	3.99575550e+02
580             	3.99606745e+02
581             	3.99638269e+02
582             	3.99670794e+02
583             	3.99709499e+02
584             	3.99759076e+02
585             	3.99812987e+02
586             	3.99877485e+02
587             	3.99936302e+02
588             	3.99991611e+02
589             	4.00047494e+02
590             	4.00104707e+02
591             	4.00153966e+02
592             	4.00197611e+02
593             	4.00237558e+02
594             	4.00273628e+02
595             	4.00307146e+02
596             	4.00339546e+02
597             	4.00372734e+02
598             	4.00404733e+02
599             	4.00437816e+02
600             	4.00472332e+02
601             	4.00508148e+02
602             	4.00542815e+02
603             	4.00578489e+02
604             	4.00613565e+02
605             	4.00647551e+02
606             	4.00682486e+02
607             	4.00719267e+02
608             	4.00758766e+02
609             	4.00806446e+02
610             	4.00858487e+02
611             	4.00904589e+02
612             	4.00949829e+02
613             	4.01001433e+02
614             	4.01049065e+02
615             	4.01092048e+02
616             	4.01130798e+02
617             	4.01165723e+02
618             	4.01197325e+02
619             	4.01226606e+02
620             	4.01255235e+02
621             	4.01286334e+02
