# Region        : cellZone pcb
# Cells         : 565
# Volume        : 1.09911616e+00
# Time          	volAverage(T)
1               	3.00018560e+02
2               	3.00053650e+02
3               	3.00101594e+02
4               	3.00162924e+02
5               	3.00236053e+02
6               	3.00315829e+02
7               	3.00407394e+02
8               	3.00510122e+02
9               	3.00620263e+02
10              	3.00739901e+02
11              	3.00868758e+02
12              	3.00997378e+02
13              	3.01128102e+02
14              	3.01267282e+02
15              	3.01412536e+02
16              	3.01561956e+02
17              	3.01720835e+02
18              	3.01887310e+02
19              	3.02057926e+02
20              	3.02233504e+02
21              	3.02415199e+02
22              	3.02598972e+02
23              	3.02784361e+02
24              	3.02965270e+02
25              	3.03146966e+02
26              	3.03336218e+02
27              	3.03529933e+02
28              	3.03725882e+02
29              	3.03922730e+02
30              	3.04124415e+02
31              	3.04327147e+02
32              	3.04533193e+02
33              	3.04743062e+02
34              	3.04953078e+02
35              	3.05172930e+02
36              	3.05382090e+02
37              	3.05588821e+02
38              	3.05799658e+02
39              	3.06022266e+02
40              	3.06243894e+02
41              	3.06466981e+02
42              	3.06692957e+02
43              	3.06919294e+02
44              	3.07144862e+02
45              	3.07366096e+02
46              	3.07588016e+02
47              	3.07814621e+02
48              	3.08029400e+02
49              	3.08245128e+02
50              	3.08468999e+02
51              	3.08696080e+02
52              	3.08920404e+02
53              	3.09147311e+02
54              	3.09374841e+02
55              	3.09605846e+02
56              	3.09830548e+02
57              	3.10053124e+02
58              	3.10273380e+02
59              	3.10498251e+02
60              	3.10719409e+02
61              	3.10937354e+02
62              	3.11152842e+02
63              	3.11366815e+02
64              	3.11584701e+02
65              	3.11797644e+02
66              	3.12012580e+02
67              	3.12227353e+02
68              	3.12442662e+02
69              	3.12653604e+02
70              	3.12865479e+02
71              	3.13078374e+02
72              	3.13288267e+02
73              	3.13495289e+02
74              	3.13698811e+02
75              	3.13898988e+02
76              	3.14096734e+02
77              	3.14300310e+02
78              	3.14499216e+02
79              	3.14698980e+02
80              	3.14897927e+02
81              	3.15095061e+02
82              	3.15289227e+02
83              	3.15483215e+02
84              	3.15678341e+02
85              	3.15872762e+02
86              	3.16065918e+02
87              	3.16256199e+02
88              	3.16446174e+02
89              	3.16632774e+02
90              	3.16817622e+02
91              	3.17000299e+02
92              	3.17181389e+02
93              	3.17363440e+02
94              	3.17546717e+02
95              	3.17731110e+02
96              	3.17913870e+02
97              	3.18093790e+02
98              	3.18270891e+02
99              	3.18446340e+02
100             	3.18621427e+02
101             	3.18797149e+02
102             	3.18969940e+02
103             	3.19140317e+02
104             	3.19309151e+02
105             	3.19477631e+02
106             	3.19645018e+02
107             	3.19811783e+02
108             	3.19976488e+02
109             	3.20140803e+02
110             	3.20303992e+02
111             	3.20466227e+02
112             	3.20626319e+02
113             	3.20785839e+02
114             	3.20946503e+02
115             	3.21105839e+02
116             	3.21262460e+02
117             	3.21418727e+02
118             	3.21573161e+02
119             	3.21726105e+02
120             	3.21876202e+02
121             	3.22026278e+02
122             	3.22173021e+02
123             	3.22319035e+02
124             	3.22464577e+02
125             	3.22610454e+02
126             	3.22756092e+02
127             	3.22901348e+02
128             	3.23046336e+02
129             	3.23190093e+02
130             	3.23330851e+02
131             	3.23470643e+02
132             	3.23609190e+02
133             	3.23747440e+02
134             	3.23883056e+02
135             	3.24019133e+02
136             	3.24154235e+02
137             	3.24284478e+02
138             	3.24414272e+02
139             	3.24543833e+02
140             	3.24673596e+02
141             	3.24803716e+02
142             	3.24933082e+02
143             	3.25061891e+02
144             	3.25186600e+02
145             	3.25310071e+02
146             	3.25431950e+02
147             	3.25553189e+02
148             	3.25673432e+02
149             	3.25791985e+02
150             	3.25911176e+02
151             	3.26029380e+02
152             	3.26146518e+02
153             	3.26262143e+02
154             	3.26377339e+02
155             	3.26492672e+02
156             	3.26605913e+02
157             	3.26719021e+02
158             	3.26829782e+02
159             	3.26938291e+02
160             	3.27044591e+02
161             	3.27150172e+02
162             	3.27255507e+02
163             	3.27360388e+02
164             	3.27464521e+02
165             	3.27567521e+02
166             	3.27670361e+02
167             	3.27772074e+02
168             	3.27872949e+02
169             	3.27972679e+02
170             	3.28069961e+02
171             	3.28166785e+02
172             	3.28263968e+02
173             	3.28360842e+02
174             	3.28457827e+02
175             	3.28554694e+02
176             	3.28650507e+02
177             	3.28746215e+02
178             	3.28841967e+02
179             	3.28934028e+02
180             	3.29022970e+02
181             	3.29113344e+02
182             	3.29203038e+02
183             	3.29291488e+02
184             	3.29379331e+02
185             	3.29465088e+02
186             	3.29551140e+02
187             	3.29634530e+02
188             	3.29717834e+02
189             	3.29800695e+02
190             	3.29882903e+02
191             	3.29965398e+02
192             	3.30045464e+02
193             	3.30124282e+02
194             	3.30201623e+02
195             	3.30277950e+02
196             	3.30352548e+02
197             	3.30425426e+02
198             	3.30498662e+02
199             	3.30572111e+02
200             	3.30644036e+02
201             	3.30717000e+02
202             	3.30790910e+02
203             	3.30865793e+02
204             	3.30939248e+02
205             	3.31010928e+02
206             	3.31082631e+02
207             	3.31152842e+02
208             	3.31220339e+02
209             	3.31287049e+02
210             	3.31352673e+02
211             	3.31418560e+02
212             	3.31483261e+02
213             	3.31547757e+02
214             	3.31610479e+02
215             	3.31672793e+02
216             	3.31734620e+02
217             	3.31795353e+02
218             	3.31856860e+02
219             	3.31918322e+02
220             	3.31978920e+02
221             	3.32038651e+02
222             	3.32097992e+02
223             	3.32156345e+02
224             	3.32214077e+02
225             	3.32270369e+02
226             	3.32328699e+02
227             	3.32384311e+02
228             	3.32438443e+02
229             	3.32492563e+02
230             	3.32547078e+02
231             	3.32600635e+02
232             	3.32654817e+02
233             	3.32707220e+02
234             	3.32759218e+02
235             	3.32811251e+02
236             	3.32863006e+02
237             	3.32914141e+02
238             	3.32964510e+02
239             	3.33015577e+02
240             	3.33066443e+02
241             	3.33115499e+02
242             	3.33164007e+02
243             	3.33211120e+02
244             	3.33258509e+02
245             	3.33304745e+02
246             	3.33350466e+02
247             	3.33395751e+02
248             	3.33441031e+02
249             	3.33485132e+02
250             	3.33529733e+02
251             	3.33573528e+02
252             	3.33617366e+02
253             	3.33661193e+02
254             	3.33705335e+02
255             	3.33750962e+02
256             	3.33794764e+02
257             	3.33838538e+02
258             	3.33881240e+02
259             	3.33923796e+02
260             	3.33965150e+02
261             	3.34004893e+02
262             	3.34043420e+02
263             	3.34079723e+02
264             	3.34115177e+02
265             	3.34151006e+02
266             	3.34187176e+02
267             	3.34224267e+02
268             	3.34262352e+02
269             	3.34301247e+02
270             	3.34339423e+02
271             	3.34377291e+02
272             	3.34414106e+02
273             	3.34448833e+02
274             	3.34482138e+02
275             	3.34514320e+02
276             	3.34545087e+02
277             	3.34575905e+02
278             	3.34607149e+02
279             	3.34639305e+02
280             	3.34671487e+02
281             	3.34703657e+02
282             	3.34736421e+02
283             	3.34768592e+02
284             	3.34801509e+02
285             	3.34834480e+02
286             	3.34867494e+02
287             	3.34899696e+02
288             	3.34931211e+02
289             	3.34961980e+02
290             	3.34992127e+02
291             	3.35021658e+02
292             	3.35050667e+02
293             	3.35079278e+02
294             	3.35107700e+02
295             	3.35135674e+02
296             	3.35163497e+02
297             	3.35190927e+02
298             	3.35218612e+02
299             	3.35245722e+02
300             	3.35272514e+02
301             	3.35299663e+02
302             	3.35326671e+02
303             	3.35353892e+02
304             	3.35381331e+02
305             	3.35407842e+02
306             	3.35433961e+02
307             	3.35459620e+02
308             	3.35483751e+02
309             	3.35507484e+02
310             	3.35532397e+02
311             	3.35556774e+02
312             	3.35582215e+02
313             	3.35608375e+02
314             	3.35633868e+02
315             	3.35657555e+02
316             	3.35681273e+02
317             	3.35704455e+02
318             	3.35727438e+02
319             	3.35750137e+02
320             	3.35772776e+02
321             	3.35795136e+02
322             	3.35817040e+02
323             	3.35838639e+02
324             	3.35859617e+02
325             	3.35879770e+02
326             	3.35900137e+02
327             	3.35919140e+02
328             	3.35938060e+02
329             	3.35956640e+02
330             	3.35975939e+02
331             	3.35995486e+02
332             	3.36015749e+02
333             	3.36036494e+02
334             	3.36057678e+02
335             	3.36078965e+02
336             	3.36100058e+02
337             	3.36121081e+02
338             	3.36141709e+02
339             	3.36162087e+02
340             	3.36182227e+02
341             	3.36201457e+02
342             	3.36220120e+02
343             	3.36237944e+02
344             	3.36255138e+02
345             	3.36271780e+02
346             	3.36288098e+02
347             	3.36304037e+02
348             	3.36319927e+02
349             	3.36335563e+02
350             	3.36351286e+02
351             	3.36367049e+02
352             	3.36382884e+02
353             	3.36398914e+02
354             	3.36415030e+02
355             	3.36431487e+02
356             	3.36448455e+02
357             	3.36465690e+02
358             	3.36482132e+02
359             	3.36498125e+02
360             	3.36513714e+02
361             	3.36529394e+02
362             	3.36544929e+02
363             	3.36560152e+02
364             	3.36575068e+02
365             	3.36590004e+02
366             	3.36604252e+02
367             	3.36618229e+02
368             	3.36631327e+02
369             	3.36644155e+02
370             	3.36656701e+02
371             	3.36669290e+02
372             	3.36681942e+02
373             	3.36694933e+02
374             	3.36708176e+02
375             	3.36721734e+02
376             	3.36735319e+02
377             	3.36748967e+02
378             	3.36762353e+02
379             	3.36775145e+02
380             	3.36787647e+02
381             	3.36799537e+02
382             	3.36811962e+02
383             	3.36823724e+02
384             	3.36835195e+02
385             	3.36846539e+02
386             	3.36858022e+02
387             	3.36869761e+02
388             	3.36881699e+02
389             	3.36893548e+02
390             	3.36905332e+02
391             	3.36917184e+02
392             	3.36928673e+02
393             	3.36939658e+02
394             	3.36949787e+02
395             	3.36959549e+02
396             	3.36968722e+02
397             	3.36977651e+02
398             	3.36986489e+02
399             	3.36995329e+02
400             	3.37005073e+02
401             	3.37014701e+02
402             	3.37024553e+02
403             	3.37034440e+02
404             	3.37044791e+02
405             	3.37053626e+02
406             	3.37062411e+02
407             	3.37071469e+02
408             	3.37081459e+02
409             	3.37091031e+02
410             	3.37100324e+02
411             	3.37109677e+02
412             	3.37118715e+02
413             	3.37127703e+02
414             	3.37136624e+02
415             	3.37145685e+02
416             	3.37154036e+02
417             	3.37161675e+02
418             	3.37169826e+02
419             	3.37177480e+02
420             	3.37185498e+02
421             	3.37193538e+02
422             	3.37201816e+02
423             	3.37209740e+02
424             	3.37217515e+02
425             	3.37224775e+02
426             	3.37231734e+02
427             	3.37237999e+02
428             	3.37244028e+02
429             	3.37249659e+02
430             	3.37255259e+02
431             	3.37261416e+02
432             	3.37269123e+02
433             	3.37277299e+02
434             	3.37285906e+02
435             	3.37294850e+02
436             	3.37304316e+02
437             	3.37313911e+02
438             	3.37323290e+02
439             	3.37332387e+02
440             	3.37340740e+02
441             	3.37348841e+02
442             	3.37355711e+02
443             	3.37361252e+02
444             	3.37366239e+02
445             	3.37370780e+02
446             	3.37375367e+02
447             	3.37380261e+02
448             	3.37385835e+02
449             	3.37392096e+02
450             	3.37399025e+02
451             	3.37406375e+02
452             	3.37414040e+02
453             	3.37422440e+02
454             	3.37428819e+02
455             	3.37435878e+02
456             	3.37443110e+02
457             	3.37450201e+02
458             	3.37456330e+02
459             	3.37461960e+02
460             	3.37466866e+02
461             	3.37471573e+02
462             	3.37476269e+02
463             	3.37480872e+02
464             	3.37484997e+02
465             	3.37489764e+02
466             	3.37493975e+02
467             	3.37498500e+02
468             	3.37503170e+02
469             	3.37507854e+02
470             	3.37512282e+02
471             	3.37516070e+02
472             	3.37520344e+02
473             	3.37524429e+02
474             	3.37528714e+02
475             	3.37532922e+02
476             	3.37537375e+02
477             	3.37541328e+02
478             	3.37545081e+02
479             	3.37548951e+02
480             	3.37553915e+02
481             	3.37558731e+02
482             	3.37563320e+02
483             	3.37567237e+02
484             	3.37570842e+02
485             	3.37574320e+02
486             	3.37577713e+02
487             	3.37581181e+02
488             	3.37584666e+02
489             	3.37588240e+02
490             	3.37593156e+02
491             	3.37597634e+02
492             	3.37601864e+02
493             	3.37605632e+02
494             	3.37610229e+02
495             	3.37613149e+02
496             	3.37616401e+02
497             	3.37618899e+02
498             	3.37622248e+02
499             	3.37625086e+02
500             	3.37628028e+02
501             	3.37631276e+02
502             	3.37635732e+02
503             	3.37639332e+02
504             	3.37643046e+02
505             	3.37646040e+02
506             	3.37648964e+02
507             	3.37652080e+02
508             	3.37653706e+02
509             	3.37654472e+02
510             	3.37655278e+02
511             	3.37656462e+02
512             	3.37658144e+02
513             	3.37660438e+02
514             	3.37663440e+02
515             	3.37666851e+02
516             	3.37670462e+02
517             	3.37674592e+02
518             	3.37678370e+02
519             	3.37681512e+02
520             	3.37683745e+02
521             	3.37685303e+02
522             	3.37686474e+02
523             	3.37687419e+02
524             	3.37688148e+02
525             	3.37688819e+02
526             	3.37689665e+02
527             	3.37690536e+02
528             	3.37692002e+02
529             	3.37693517e+02
530             	3.37695247e+02
531             	3.37696963e+02
532             	3.37699144e+02
533             	3.37701326e+02
534             	3.37703537e+02
535             	3.37706186e+02
536             	3.37709259e+02
537             	3.37712663e+02
538             	3.37715768e+02
539             	3.37718535e+02
540             	3.37720811e+02
541             	3.37722669e+02
542             	3.37724046e+02
543             	3.37725242e+02
544             	3.37726547e+02
545             	3.37727518e+02
546             	3.37728734e+02
547             	3.37730080e+02
548             	3.37731948e+02
549             	3.37734259e+02
550             	3.37737054e+02
551             	3.37740319e+02
552             	3.37744056e+02
553             	3.37747539e+02
554             	3.37750854e+02
555             	3.37753629e+02
556             	3.37756027e+02
557             	3.37757655e+02
558             	3.37758927e+02
559             	3.37759532e+02
560             	3.37760297e+02
561             	3.37761313e+02
562             	3.37762842e+02
563             	3.37764839e+02
564             	3.37767156e+02
565             	3.37769593e+02
566             	3.37772309e+02
567             	3.37775140e+02
568             	3.37778136e+02
569             	3.37781198e+02
570             	3.37784211e+02
571             	3.37786741e+02
572             	3.37788893e+02
573             	3.37790634e+02
574             	3.37792100e+02
575             	3.37793202e+02
576             	3.37794106e+02
577             	3.37794748e+02
578             	3.37795253e+02
579             	3.37795663e+02
580             	3.37796116e+02
581             	3.37796595e+02
582             	3.37797117e+02
583             	3.37797456e+02
584             	3.37797958e+02
585             	3.37798694e+02
586             	3.37800185e+02
587             	3.37802005e+02
588             	3.37803820e+02
589             	3.37805567e+02
590             	3.37807356e+02
591             	3.37809207e+02
592             	3.37811135e+02
593             	3.37813046e+02
594             	3.37814985e+02
595             	3.37816959e+02
596             	3.37818828e+02
597             	3.37820411e+02
598             	3.37821757e+02
599             	3.37822899e+02
600             	3.37823838e+02
601             	3.37824740e+02
602             	3.37825635e+02
603             	3.37826541e+02
604             	3.37827466e+02
605             	3.37828434e+02
606             	3.37829477e+02
607             	3.37830467e+02
608             	3.37831299e+02
609             	3.37832181e+02
610             	3.37833489e+02
611             	3.37835579e+02
612             	3.37837944e+02
613             	3.37840214e+02
614             	3.37842538e+02
615             	3.37844915e+02
616             	3.37847335e+02
617             	3.37849731e+02
618             	3.37851894e+02
619             	3.37853801e+02
620             	3.37855534e+02
621             	3.37857011e+02
