# Region        : cellZone component_1
# Cells         : 372
# Volume        : 7.32707386e-01
# Time          	volAverage(T)
1               	3.00368961e+02
2               	3.00734992e+02
3               	3.01082074e+02
4               	3.01416563e+02
5               	3.01746062e+02
6               	3.02070306e+02
7               	3.02390908e+02
8               	3.02707026e+02
9               	3.03020541e+02
10              	3.03330978e+02
11              	3.03637586e+02
12              	3.03941761e+02
13              	3.04241920e+02
14              	3.04540475e+02
15              	3.04836124e+02
16              	3.05128005e+02
17              	3.05416877e+02
18              	3.05704565e+02
19              	3.05993032e+02
20              	3.06280321e+02
21              	3.06565823e+02
22              	3.06851408e+02
23              	3.07135849e+02
24              	3.07418598e+02
25              	3.07697682e+02
26              	3.07974410e+02
27              	3.08248282e+02
28              	3.08519741e+02
29              	3.08787783e+02
30              	3.09049745e+02
31              	3.09307802e+02
32              	3.09563077e+02
33              	3.09812600e+02
34              	3.10061029e+02
35              	3.10306542e+02
36              	3.10550522e+02
37              	3.10791396e+02
38              	3.11028369e+02
39              	3.11263494e+02
40              	3.11496583e+02
41              	3.11728171e+02
42              	3.11957822e+02
43              	3.12186430e+02
44              	3.12414578e+02
45              	3.12641173e+02
46              	3.12867164e+02
47              	3.13088804e+02
48              	3.13305345e+02
49              	3.13517162e+02
50              	3.13724264e+02
51              	3.13927576e+02
52              	3.14126964e+02
53              	3.14321836e+02
54              	3.14511783e+02
55              	3.14700345e+02
56              	3.14885523e+02
57              	3.15069363e+02
58              	3.15251272e+02
59              	3.15432231e+02
60              	3.15612296e+02
61              	3.15791360e+02
62              	3.15970007e+02
63              	3.16148503e+02
64              	3.16326246e+02
65              	3.16503978e+02
66              	3.16681072e+02
67              	3.16856705e+02
68              	3.17028334e+02
69              	3.17196171e+02
70              	3.17359854e+02
71              	3.17518412e+02
72              	3.17672587e+02
73              	3.17822653e+02
74              	3.17966711e+02
75              	3.18108484e+02
76              	3.18248761e+02
77              	3.18387821e+02
78              	3.18525966e+02
79              	3.18663548e+02
80              	3.18800237e+02
81              	3.18936321e+02
82              	3.19072247e+02
83              	3.19207385e+02
84              	3.19341560e+02
85              	3.19474572e+02
86              	3.19606332e+02
87              	3.19736229e+02
88              	3.19863684e+02
89              	3.19988123e+02
90              	3.20108067e+02
91              	3.20225793e+02
92              	3.20340228e+02
93              	3.20451690e+02
94              	3.20560115e+02
95              	3.20668673e+02
96              	3.20776083e+02
97              	3.20883157e+02
98              	3.20989794e+02
99              	3.21097338e+02
100             	3.21205923e+02
101             	3.21315390e+02
102             	3.21425795e+02
103             	3.21536893e+02
104             	3.21647679e+02
105             	3.21757406e+02
106             	3.21865549e+02
107             	3.21972099e+02
108             	3.22076652e+02
109             	3.22178845e+02
110             	3.22278763e+02
111             	3.22376478e+02
112             	3.22472443e+02
113             	3.22566426e+02
114             	3.22658917e+02
115             	3.22750917e+02
116             	3.22841999e+02
117             	3.22933481e+02
118             	3.23025456e+02
119             	3.23117517e+02
120             	3.23209751e+02
121             	3.23301912e+02
122             	3.23394034e+02
123             	3.23485622e+02
124             	3.23576279e+02
125             	3.23664921e+02
126             	3.23751748e+02
127             	3.23836718e+02
128             	3.23919764e+02
129             	3.24001062e+02
130             	3.24080294e+02
131             	3.24157760e+02
132             	3.24232144e+02
133             	3.24306268e+02
134             	3.24379930e+02
135             	3.24453911e+02
136             	3.24528330e+02
137             	3.24603934e+02
138             	3.24680654e+02
139             	3.24757915e+02
140             	3.24834856e+02
141             	3.24910765e+02
142             	3.24985235e+02
143             	3.25058071e+02
144             	3.25129304e+02
145             	3.25198430e+02
146             	3.25265793e+02
147             	3.25331904e+02
148             	3.25397217e+02
149             	3.25461685e+02
150             	3.25525668e+02
151             	3.25589116e+02
152             	3.25652805e+02
153             	3.25717049e+02
154             	3.25781924e+02
155             	3.25847553e+02
156             	3.25914369e+02
157             	3.25982053e+02
158             	3.26050237e+02
159             	3.26118012e+02
160             	3.26184865e+02
161             	3.26250397e+02
162             	3.26314529e+02
163             	3.26377315e+02
164             	3.26438829e+02
165             	3.26498949e+02
166             	3.26557785e+02
167             	3.26615355e+02
168             	3.26671710e+02
169             	3.26726692e+02
170             	3.26781128e+02
171             	3.26834890e+02
172             	3.26888337e+02
173             	3.26941422e+02
174             	3.26994457e+02
175             	3.27047429e+02
176             	3.27100343e+02
177             	3.27153102e+02
178             	3.27205607e+02
179             	3.27257871e+02
180             	3.27310147e+02
181             	3.27361210e+02
182             	3.27411236e+02
183             	3.27459670e+02
184             	3.27507019e+02
185             	3.27553637e+02
186             	3.27599812e+02
187             	3.27645353e+02
188             	3.27690304e+02
189             	3.27734078e+02
190             	3.27777394e+02
191             	3.27820932e+02
192             	3.27864987e+02
193             	3.27909520e+02
194             	3.27954559e+02
195             	3.27999937e+02
196             	3.28045620e+02
197             	3.28091000e+02
198             	3.28136361e+02
199             	3.28181489e+02
200             	3.28226287e+02
201             	3.28270418e+02
202             	3.28313682e+02
203             	3.28356071e+02
204             	3.28397753e+02
205             	3.28438865e+02
206             	3.28479297e+02
207             	3.28519071e+02
208             	3.28558300e+02
209             	3.28596892e+02
210             	3.28634953e+02
211             	3.28672388e+02
212             	3.28709415e+02
213             	3.28746022e+02
214             	3.28782133e+02
215             	3.28817755e+02
216             	3.28852935e+02
217             	3.28887898e+02
218             	3.28922784e+02
219             	3.28957643e+02
220             	3.28992543e+02
221             	3.29027363e+02
222             	3.29062213e+02
223             	3.29096916e+02
224             	3.29131540e+02
225             	3.29166047e+02
226             	3.29200403e+02
227             	3.29234487e+02
228             	3.29268261e+02
229             	3.29301645e+02
230             	3.29334695e+02
231             	3.29367300e+02
232             	3.29399346e+02
233             	3.29430679e+02
234             	3.29461493e+02
235             	3.29491888e+02
236             	3.29521812e+02
237             	3.29551174e+02
238             	3.29580078e+02
239             	3.29608444e+02
240             	3.29636244e+02
241             	3.29663528e+02
242             	3.29690447e+02
243             	3.29716966e+02
244             	3.29743742e+02
245             	3.29770707e+02
246             	3.29797823e+02
247             	3.29825135e+02
248             	3.29852715e+02
249             	3.29880445e+02
250             	3.29908213e+02
251             	3.29935753e+02
252             	3.29963078e+02
253             	3.29990155e+02
254             	3.30016981e+02
255             	3.30043496e+02
256             	3.30069661e+02
257             	3.30095241e+02
258             	3.30120287e+02
259             	3.30144690e+02
260             	3.30168611e+02
261             	3.30191964e+02
262             	3.30214756e+02
263             	3.30237005e+02
264             	3.30259028e+02
265             	3.30281139e+02
266             	3.30303456e+02
267             	3.30325834e+02
268             	3.30348334e+02
269             	3.30370823e+02
270             	3.30393138e+02
271             	3.30414918e+02
272             	3.30436236e+02
273             	3.30457052e+02
274             	3.30477481e+02
275             	3.30497464e+02
276             	3.30516882e+02
277             	3.30535707e+02
278             	3.30554002e+02
279             	3.30572319e+02
280             	3.30590532e+02
281             	3.30608939e+02
282             	3.30627730e+02
283             	3.30646843e+02
284             	3.30666119e+02
285             	3.30685485e+02
286             	3.30704829e+02
287             	3.30723991e+02
288             	3.30742910e+02
289             	3.30761534e+02
290             	3.30779866e+02
291             	3.30797568e+02
292             	3.30814994e+02
293             	3.30832128e+02
294             	3.30849005e+02
295             	3.30865525e+02
296             	3.30881823e+02
297             	3.30898394e+02
298             	3.30915312e+02
299             	3.30932410e+02
300             	3.30949808e+02
301             	3.30966929e+02
302             	3.30983675e+02
303             	3.30999796e+02
304             	3.31015367e+02
305             	3.31030219e+02
306             	3.31044647e+02
307             	3.31058839e+02
308             	3.31072870e+02
309             	3.31086975e+02
310             	3.31101365e+02
311             	3.31115992e+02
312             	3.31131097e+02
313             	3.31146381e+02
314             	3.31161647e+02
315             	3.31176662e+02
316             	3.31191147e+02
317             	3.31205425e+02
318             	3.31219282e+02
319             	3.31232687e+02
320             	3.31245434e+02
321             	3.31257737e+02
322             	3.31269594e+02
323             	3.31281527e+02
324             	3.31293582e+02
325             	3.31305846e+02
326             	3.31318322e+02
327             	3.31331046e+02
328             	3.31344077e+02
329             	3.31357317e+02
330             	3.31370592e+02
331             	3.31383801e+02
332             	3.31396861e+02
333             	3.31409751e+02
334             	3.31422421e+02
335             	3.31434853e+02
336             	3.31447024e+02
337             	3.31458939e+02
338             	3.31470526e+02
339             	3.31481784e+02
340             	3.31492701e+02
341             	3.31503329e+02
342             	3.31513881e+02
343             	3.31524476e+02
344             	3.31535098e+02
345             	3.31545738e+02
346             	3.31556364e+02
347             	3.31567015e+02
348             	3.31577696e+02
349             	3.31588410e+02
350             	3.31599167e+02
351             	3.31610001e+02
352             	3.31620421e+02
353             	3.31630695e+02
354             	3.31640798e+02
355             	3.31650686e+02
356             	3.31660349e+02
357             	3.31669739e+02
358             	3.31678844e+02
359             	3.31687661e+02
360             	3.31696322e+02
361             	3.31704871e+02
362             	3.31713397e+02
363             	3.31721959e+02
364             	3.31730560e+02
365             	3.31739202e+02
366             	3.31747841e+02
367             	3.31756511e+02
368             	3.31765274e+02
369             	3.31774161e+02
370             	3.31783128e+02
371             	3.31792202e+02
372             	3.31801022e+02
373             	3.31809596e+02
374             	3.31818118e+02
375             	3.31826520e+02
376             	3.31834748e+02
377             	3.31842632e+02
378             	3.31850238e+02
379             	3.31857567e+02
380             	3.31864827e+02
381             	3.31871950e+02
382             	3.31879223e+02
383             	3.31886549e+02
384             	3.31893889e+02
385             	3.31901258e+02
386             	3.31908649e+02
387             	3.31916042e+02
388             	3.31923414e+02
389             	3.31930836e+02
390             	3.31938220e+02
391             	3.31945517e+02
392             	3.31952663e+02
393             	3.31959685e+02
394             	3.31966617e+02
395             	3.31973430e+02
396             	3.31980093e+02
397             	3.31986590e+02
398             	3.31992913e+02
399             	3.31999086e+02
400             	3.32005101e+02
401             	3.32010981e+02
402             	3.32016708e+02
403             	3.32022369e+02
404             	3.32027928e+02
405             	3.32033475e+02
406             	3.32039123e+02
407             	3.32044902e+02
408             	3.32050793e+02
409             	3.32056786e+02
410             	3.32062808e+02
411             	3.32068806e+02
412             	3.32074892e+02
413             	3.32081011e+02
414             	3.32087176e+02
415             	3.32093339e+02
416             	3.32099360e+02
417             	3.32105404e+02
418             	3.32111394e+02
419             	3.32117308e+02
420             	3.32123077e+02
421             	3.32128610e+02
422             	3.32133974e+02
423             	3.32139186e+02
424             	3.32144263e+02
425             	3.32149222e+02
426             	3.32154051e+02
427             	3.32158743e+02
428             	3.32163315e+02
429             	3.32167796e+02
430             	3.32172212e+02
431             	3.32176578e+02
432             	3.32180883e+02
433             	3.32185144e+02
434             	3.32189441e+02
435             	3.32193756e+02
436             	3.32198081e+02
437             	3.32202449e+02
438             	3.32206868e+02
439             	3.32211329e+02
440             	3.32215853e+02
441             	3.32220439e+02
442             	3.32225058e+02
443             	3.32229724e+02
444             	3.32234442e+02
445             	3.32239184e+02
446             	3.32243886e+02
447             	3.32248531e+02
448             	3.32252990e+02
449             	3.32257408e+02
450             	3.32261743e+02
451             	3.32265969e+02
452             	3.32270065e+02
453             	3.32274029e+02
454             	3.32277871e+02
455             	3.32281609e+02
456             	3.32285240e+02
457             	3.32288765e+02
458             	3.32292176e+02
459             	3.32295500e+02
460             	3.32298722e+02
461             	3.32301913e+02
462             	3.32305037e+02
463             	3.32308191e+02
464             	3.32311388e+02
465             	3.32314628e+02
466             	3.32317893e+02
467             	3.32321189e+02
468             	3.32324521e+02
469             	3.32327898e+02
470             	3.32331331e+02
471             	3.32334818e+02
472             	3.32338327e+02
473             	3.32341801e+02
474             	3.32345200e+02
475             	3.32348509e+02
476             	3.32351684e+02
477             	3.32354705e+02
478             	3.32357604e+02
479             	3.32360382e+02
480             	3.32362998e+02
481             	3.32365659e+02
482             	3.32368403e+02
483             	3.32371233e+02
484             	3.32374118e+02
485             	3.32377093e+02
486             	3.32380211e+02
487             	3.32383475e+02
488             	3.32386771e+02
489             	3.32390020e+02
490             	3.32393348e+02
491             	3.32396595e+02
492             	3.32399753e+02
493             	3.32402807e+02
494             	3.32405727e+02
495             	3.32408532e+02
496             	3.32411215e+02
497             	3.32413796e+02
498             	3.32416316e+02
499             	3.32418786e+02
500             	3.32421182e+02
501             	3.32423473e+02
502             	3.32425662e+02
503             	3.32427796e+02
504             	3.32429969e+02
505             	3.32432185e+02
506             	3.32434487e+02
507             	3.32436928e+02
508             	3.32439494e+02
509             	3.32442095e+02
510             	3.32444605e+02
511             	3.32447003e+02
512             	3.32449268e+02
513             	3.32451307e+02
514             	3.32453104e+02
515             	3.32454707e+02
516             	3.32456264e+02
517             	3.32457947e+02
518             	3.32459773e+02
519             	3.32461850e+02
520             	3.32464150e+02
521             	3.32466606e+02
522             	3.32469137e+02
523             	3.32471594e+02
524             	3.32473951e+02
525             	3.32476189e+02
526             	3.32478261e+02
527             	3.32480063e+02
528             	3.32481646e+02
529             	3.32483183e+02
530             	3.32484691e+02
531             	3.32486202e+02
532             	3.32487727e+02
533             	3.32489297e+02
534             	3.32490925e+02
535             	3.32492627e+02
536             	3.32494426e+02
537             	3.32496332e+02
538             	3.32498311e+02
539             	3.32500328e+02
540             	3.32502341e+02
541             	3.32504363e+02
542             	3.32506339e+02
543             	3.32508256e+02
544             	3.32510080e+02
545             	3.32511829e+02
546             	3.32513477e+02
547             	3.32515020e+02
548             	3.32516455e+02
549             	3.32517794e+02
550             	3.32519039e+02
551             	3.32520209e+02
552             	3.32521334e+02
553             	3.32522431e+02
554             	3.32523508e+02
555             	3.32524557e+02
556             	3.32525652e+02
557             	3.32526821e+02
558             	3.32528058e+02
559             	3.32529358e+02
560             	3.32530712e+02
561             	3.32532120e+02
562             	3.32533587e+02
563             	3.32535100e+02
564             	3.32536676e+02
565             	3.32538286e+02
566             	3.32539925e+02
567             	3.32541566e+02
568             	3.32543171e+02
569             	3.32544697e+02
570             	3.32546160e+02
571             	3.32547537e+02
572             	3.32548828e+02
573             	3.32550037e+02
574             	3.32551166e+02
575             	3.32552221e+02
576             	3.32553215e+02
577             	3.32554155e+02
578             	3.32555058e+02
579             	3.32555943e+02
580             	3.32556808e+02
581             	3.32557616e+02
582             	3.32558433e+02
583             	3.32559277e+02
584             	3.32560147e+02
585             	3.32561054e+02
586             	3.32561996e+02
587             	3.32562978e+02
588             	3.32564003e+02
589             	3.32565091e+02
590             	3.32566240e+02
591             	3.32567467e+02
592             	3.32568759e+02
593             	3.32570081e+02
594             	3.32571451e+02
595             	3.32572821e+02
596             	3.32574163e+02
597             	3.32575460e+02
598             	3.32576689e+02
599             	3.32577843e+02
600             	3.32578915e+02
601             	3.32579890e+02
602             	3.32580729e+02
603             	3.32581488e+02
604             	3.32582177e+02
605             	3.32582829e+02
606             	3.32583471e+02
607             	3.32584186e+02
608             	3.32584983e+02
609             	3.32585843e+02
610             	3.32586761e+02
611             	3.32587691e+02
612             	3.32588619e+02
613             	3.32589551e+02
614             	3.32590466e+02
615             	3.32591364e+02
616             	3.32592237e+02
617             	3.32593085e+02
618             	3.32593927e+02
619             	3.32594760e+02
620             	3.32595583e+02
621             	3.32596393e+02
