# Region        : cellZone component_2
# Cells         : 256
# Volume        : 4.96390335e-01
# Time          	volAverage(T)
1               	3.00300578e+02
2               	3.00598730e+02
3               	3.00878570e+02
4               	3.01146562e+02
5               	3.01408377e+02
6               	3.01665605e+02
7               	3.01919711e+02
8               	3.02172111e+02
9               	3.02423444e+02
10              	3.02671781e+02
11              	3.02917694e+02
12              	3.03160206e+02
13              	3.03399585e+02
14              	3.03632887e+02
15              	3.03863979e+02
16              	3.04095359e+02
17              	3.04324249e+02
18              	3.04550633e+02
19              	3.04773845e+02
20              	3.04994016e+02
21              	3.05209599e+02
22              	3.05423891e+02
23              	3.05637264e+02
24              	3.05849296e+02
25              	3.06058889e+02
26              	3.06265468e+02
27              	3.06468821e+02
28              	3.06670033e+02
29              	3.06870244e+02
30              	3.07074902e+02
31              	3.07270229e+02
32              	3.07451010e+02
33              	3.07617717e+02
34              	3.07785926e+02
35              	3.07952422e+02
36              	3.08116037e+02
37              	3.08278756e+02
38              	3.08438695e+02
39              	3.08598490e+02
40              	3.08753745e+02
41              	3.08909627e+02
42              	3.09062508e+02
43              	3.09213952e+02
44              	3.09363390e+02
45              	3.09513085e+02
46              	3.09654884e+02
47              	3.09792609e+02
48              	3.09936911e+02
49              	3.10080276e+02
50              	3.10220588e+02
51              	3.10354872e+02
52              	3.10479492e+02
53              	3.10607904e+02
54              	3.10728749e+02
55              	3.10853854e+02
56              	3.10983672e+02
57              	3.11108621e+02
58              	3.11231875e+02
59              	3.11358017e+02
60              	3.11479866e+02
61              	3.11602275e+02
62              	3.11719053e+02
63              	3.11835522e+02
64              	3.11953355e+02
65              	3.12068466e+02
66              	3.12187404e+02
67              	3.12308809e+02
68              	3.12429349e+02
69              	3.12549143e+02
70              	3.12666742e+02
71              	3.12783251e+02
72              	3.12898189e+02
73              	3.13006453e+02
74              	3.13111907e+02
75              	3.13218712e+02
76              	3.13325666e+02
77              	3.13431680e+02
78              	3.13536319e+02
79              	3.13639101e+02
80              	3.13742003e+02
81              	3.13845350e+02
82              	3.13948863e+02
83              	3.14053424e+02
84              	3.14161278e+02
85              	3.14267480e+02
86              	3.14374426e+02
87              	3.14483516e+02
88              	3.14590087e+02
89              	3.14690411e+02
90              	3.14788805e+02
91              	3.14883678e+02
92              	3.14976739e+02
93              	3.15064919e+02
94              	3.15148993e+02
95              	3.15230512e+02
96              	3.15310865e+02
97              	3.15391726e+02
98              	3.15472039e+02
99              	3.15553475e+02
100             	3.15636767e+02
101             	3.15717273e+02
102             	3.15797003e+02
103             	3.15874147e+02
104             	3.15947571e+02
105             	3.16019102e+02
106             	3.16090112e+02
107             	3.16160169e+02
108             	3.16230818e+02
109             	3.16301707e+02
110             	3.16376184e+02
111             	3.16449737e+02
112             	3.16524906e+02
113             	3.16597921e+02
114             	3.16667009e+02
115             	3.16733032e+02
116             	3.16797099e+02
117             	3.16859465e+02
118             	3.16920633e+02
119             	3.16980638e+02
120             	3.17040556e+02
121             	3.17100819e+02
122             	3.17163813e+02
123             	3.17230356e+02
124             	3.17299071e+02
125             	3.17367238e+02
126             	3.17437542e+02
127             	3.17506926e+02
128             	3.17573640e+02
129             	3.17640727e+02
130             	3.17703216e+02
131             	3.17762899e+02
132             	3.17820293e+02
133             	3.17875362e+02
134             	3.17929459e+02
135             	3.17984172e+02
136             	3.18036527e+02
137             	3.18090284e+02
138             	3.18146268e+02
139             	3.18203159e+02
140             	3.18262137e+02
141             	3.18322394e+02
142             	3.18381908e+02
143             	3.18437562e+02
144             	3.18492469e+02
145             	3.18545307e+02
146             	3.18595768e+02
147             	3.18644238e+02
148             	3.18690868e+02
149             	3.18735244e+02
150             	3.18779202e+02
151             	3.18822230e+02
152             	3.18866591e+02
153             	3.18909959e+02
154             	3.18954564e+02
155             	3.19000545e+02
156             	3.19049361e+02
157             	3.19099329e+02
158             	3.19147943e+02
159             	3.19196477e+02
160             	3.19244526e+02
161             	3.19292701e+02
162             	3.19337630e+02
163             	3.19380169e+02
164             	3.19420746e+02
165             	3.19461414e+02
166             	3.19499265e+02
167             	3.19536281e+02
168             	3.19572908e+02
169             	3.19607899e+02
170             	3.19643134e+02
171             	3.19679759e+02
172             	3.19715393e+02
173             	3.19751695e+02
174             	3.19787723e+02
175             	3.19823708e+02
176             	3.19859710e+02
177             	3.19895791e+02
178             	3.19931812e+02
179             	3.19967484e+02
180             	3.20003281e+02
181             	3.20037882e+02
182             	3.20070749e+02
183             	3.20103663e+02
184             	3.20136542e+02
185             	3.20169019e+02
186             	3.20201126e+02
187             	3.20230105e+02
188             	3.20259648e+02
189             	3.20288314e+02
190             	3.20317050e+02
191             	3.20344694e+02
192             	3.20373760e+02
193             	3.20404761e+02
194             	3.20435889e+02
195             	3.20466473e+02
196             	3.20498766e+02
197             	3.20532656e+02
198             	3.20566611e+02
199             	3.20598548e+02
200             	3.20629276e+02
201             	3.20656469e+02
202             	3.20681773e+02
203             	3.20707036e+02
204             	3.20731146e+02
205             	3.20753425e+02
206             	3.20775218e+02
207             	3.20798064e+02
208             	3.20822680e+02
209             	3.20849099e+02
210             	3.20877314e+02
211             	3.20904913e+02
212             	3.20932130e+02
213             	3.20959080e+02
214             	3.20984547e+02
215             	3.21008757e+02
216             	3.21032321e+02
217             	3.21054591e+02
218             	3.21075917e+02
219             	3.21095916e+02
220             	3.21115020e+02
221             	3.21134581e+02
222             	3.21154839e+02
223             	3.21174791e+02
224             	3.21194883e+02
225             	3.21215687e+02
226             	3.21237165e+02
227             	3.21256816e+02
228             	3.21277601e+02
229             	3.21299186e+02
230             	3.21322134e+02
231             	3.21342512e+02
232             	3.21363972e+02
233             	3.21385671e+02
234             	3.21406695e+02
235             	3.21428031e+02
236             	3.21449542e+02
237             	3.21471201e+02
238             	3.21491784e+02
239             	3.21511831e+02
240             	3.21530632e+02
241             	3.21549847e+02
242             	3.21566833e+02
243             	3.21584373e+02
244             	3.21602579e+02
245             	3.21621044e+02
246             	3.21640589e+02
247             	3.21660874e+02
248             	3.21681276e+02
249             	3.21702979e+02
250             	3.21725652e+02
251             	3.21745848e+02
252             	3.21766003e+02
253             	3.21786517e+02
254             	3.21805688e+02
255             	3.21823317e+02
256             	3.21839104e+02
257             	3.21853915e+02
258             	3.21866743e+02
259             	3.21878653e+02
260             	3.21891839e+02
261             	3.21904092e+02
262             	3.21916761e+02
263             	3.21929585e+02
264             	3.21943199e+02
265             	3.21957554e+02
266             	3.21972703e+02
267             	3.21988090e+02
268             	3.22003383e+02
269             	3.22019242e+02
270             	3.22034592e+02
271             	3.22048097e+02
272             	3.22063040e+02
273             	3.22077845e+02
274             	3.22092974e+02
275             	3.22107057e+02
276             	3.22120073e+02
277             	3.22132328e+02
278             	3.22144024e+02
279             	3.22155123e+02
280             	3.22164443e+02
281             	3.22173586e+02
282             	3.22182375e+02
283             	3.22191154e+02
284             	3.22199612e+02
285             	3.22208334e+02
286             	3.22217228e+02
287             	3.22225669e+02
288             	3.22235146e+02
289             	3.22245044e+02
290             	3.22255138e+02
291             	3.22264989e+02
292             	3.22276145e+02
293             	3.22287990e+02
294             	3.22300023e+02
295             	3.22311478e+02
296             	3.22322687e+02
297             	3.22333158e+02
298             	3.22342470e+02
299             	3.22351446e+02
300             	3.22359838e+02
301             	3.22368019e+02
302             	3.22377047e+02
303             	3.22386965e+02
304             	3.22397565e+02
305             	3.22408061e+02
306             	3.22418465e+02
307             	3.22428764e+02
308             	3.22438851e+02
309             	3.22448718e+02
310             	3.22457945e+02
311             	3.22466610e+02
312             	3.22474997e+02
313             	3.22483404e+02
314             	3.22493075e+02
315             	3.22501742e+02
316             	3.22511015e+02
317             	3.22520918e+02
318             	3.22531043e+02
319             	3.22541216e+02
320             	3.22550170e+02
321             	3.22556915e+02
322             	3.22563570e+02
323             	3.22569309e+02
324             	3.22574829e+02
325             	3.22579723e+02
326             	3.22584342e+02
327             	3.22588378e+02
328             	3.22592588e+02
329             	3.22597596e+02
330             	3.22602808e+02
331             	3.22608515e+02
332             	3.22614463e+02
333             	3.22620643e+02
334             	3.22626582e+02
335             	3.22632414e+02
336             	3.22638689e+02
337             	3.22644859e+02
338             	3.22650683e+02
339             	3.22656491e+02
340             	3.22662450e+02
341             	3.22668447e+02
342             	3.22674601e+02
343             	3.22681005e+02
344             	3.22687459e+02
345             	3.22693934e+02
346             	3.22700593e+02
347             	3.22707036e+02
348             	3.22713554e+02
349             	3.22719888e+02
350             	3.22725396e+02
351             	3.22731314e+02
352             	3.22736750e+02
353             	3.22742064e+02
354             	3.22747038e+02
355             	3.22751738e+02
356             	3.22756968e+02
357             	3.22761011e+02
358             	3.22765682e+02
359             	3.22770139e+02
360             	3.22774867e+02
361             	3.22780088e+02
362             	3.22785524e+02
363             	3.22791390e+02
364             	3.22797320e+02
365             	3.22802981e+02
366             	3.22808416e+02
367             	3.22813799e+02
368             	3.22818829e+02
369             	3.22823829e+02
370             	3.22828370e+02
371             	3.22832801e+02
372             	3.22837245e+02
373             	3.22841737e+02
374             	3.22846063e+02
375             	3.22850197e+02
376             	3.22853833e+02
377             	3.22857606e+02
378             	3.22861290e+02
379             	3.22864802e+02
380             	3.22867998e+02
381             	3.22871376e+02
382             	3.22875157e+02
383             	3.22878282e+02
384             	3.22881479e+02
385             	3.22884972e+02
386             	3.22888788e+02
387             	3.22892712e+02
388             	3.22897384e+02
389             	3.22901652e+02
390             	3.22906507e+02
391             	3.22910654e+02
392             	3.22914697e+02
393             	3.22919061e+02
394             	3.22921858e+02
395             	3.22924008e+02
396             	3.22926003e+02
397             	3.22927994e+02
398             	3.22929688e+02
399             	3.22932548e+02
400             	3.22933270e+02
401             	3.22934000e+02
402             	3.22935322e+02
403             	3.22936939e+02
404             	3.22938991e+02
405             	3.22941542e+02
406             	3.22944715e+02
407             	3.22947767e+02
408             	3.22950586e+02
409             	3.22953374e+02
410             	3.22956204e+02
411             	3.22958938e+02
412             	3.22961448e+02
413             	3.22963882e+02
414             	3.22966191e+02
415             	3.22968563e+02
416             	3.22971064e+02
417             	3.22973677e+02
418             	3.22976365e+02
419             	3.22978954e+02
420             	3.22981494e+02
421             	3.22983792e+02
422             	3.22985459e+02
423             	3.22986835e+02
424             	3.22988430e+02
425             	3.22989659e+02
426             	3.22990640e+02
427             	3.22991488e+02
428             	3.22993035e+02
429             	3.22994427e+02
430             	3.22995965e+02
431             	3.22997946e+02
432             	3.23000298e+02
433             	3.23002859e+02
434             	3.23005482e+02
435             	3.23008026e+02
436             	3.23010205e+02
437             	3.23012544e+02
438             	3.23014094e+02
439             	3.23015848e+02
440             	3.23017447e+02
441             	3.23018718e+02
442             	3.23019586e+02
443             	3.23020174e+02
444             	3.23020547e+02
445             	3.23020504e+02
446             	3.23020487e+02
447             	3.23020886e+02
448             	3.23021493e+02
449             	3.23022557e+02
450             	3.23023524e+02
451             	3.23024503e+02
452             	3.23025672e+02
453             	3.23026933e+02
454             	3.23028305e+02
455             	3.23029784e+02
456             	3.23031306e+02
457             	3.23032859e+02
458             	3.23034494e+02
459             	3.23036211e+02
460             	3.23038049e+02
461             	3.23039827e+02
462             	3.23041562e+02
463             	3.23043361e+02
464             	3.23045192e+02
465             	3.23046971e+02
466             	3.23048656e+02
467             	3.23050314e+02
468             	3.23051918e+02
469             	3.23052157e+02
470             	3.23052599e+02
471             	3.23053116e+02
472             	3.23053764e+02
473             	3.23054340e+02
474             	3.23054826e+02
475             	3.23054960e+02
476             	3.23055145e+02
477             	3.23055532e+02
478             	3.23056123e+02
479             	3.23057095e+02
480             	3.23057972e+02
481             	3.23058970e+02
482             	3.23059959e+02
483             	3.23060972e+02
484             	3.23061797e+02
485             	3.23062428e+02
486             	3.23063029e+02
487             	3.23063682e+02
488             	3.23064394e+02
489             	3.23065188e+02
490             	3.23066229e+02
491             	3.23067300e+02
492             	3.23068373e+02
493             	3.23069503e+02
494             	3.23070792e+02
495             	3.23072096e+02
496             	3.23073436e+02
497             	3.23074662e+02
498             	3.23075841e+02
499             	3.23076956e+02
500             	3.23077996e+02
501             	3.23078976e+02
502             	3.23079923e+02
503             	3.23080949e+02
504             	3.23082016e+02
505             	3.23083141e+02
506             	3.23084138e+02
507             	3.23085128e+02
508             	3.23086062e+02
509             	3.23086879e+02
510             	3.23087602e+02
511             	3.23088256e+02
512             	3.23089006e+02
513             	3.23089469e+02
514             	3.23089845e+02
515             	3.23090267e+02
516             	3.23090704e+02
517             	3.23091429e+02
518             	3.23091903e+02
519             	3.23092518e+02
520             	3.23093226e+02
521             	3.23093955e+02
522             	3.23094636e+02
523             	3.23095288e+02
524             	3.23095953e+02
525             	3.23096658e+02
526             	3.23097279e+02
527             	3.23097810e+02
528             	3.23098400e+02
529             	3.23098993e+02
530             	3.23099490e+02
531             	3.23099887e+02
532             	3.23100211e+02
533             	3.23100495e+02
534             	3.23100727e+02
535             	3.23100895e+02
536             	3.23101081e+02
537             	3.23101592e+02
538             	3.23101847e+02
539             	3.23102036e+02
540             	3.23102498e+02
541             	3.23103199e+02
542             	3.23104021e+02
543             	3.23104900e+02
544             	3.23105843e+02
545             	3.23106845e+02
546             	3.23107849e+02
547             	3.23108921e+02
548             	3.23110032e+02
549             	3.23111167e+02
550             	3.23112319e+02
551             	3.23112795e+02
552             	3.23113469e+02
553             	3.23114214e+02
554             	3.23115016e+02
555             	3.23115789e+02
556             	3.23116237e+02
557             	3.23116551e+02
558             	3.23116817e+02
559             	3.23117041e+02
560             	3.23117253e+02
561             	3.23117465e+02
562             	3.23117649e+02
563             	3.23117809e+02
564             	3.23118129e+02
565             	3.23118315e+02
566             	3.23118497e+02
567             	3.23118730e+02
568             	3.23119004e+02
569             	3.23119318e+02
570             	3.23119682e+02
571             	3.23120168e+02
572             	3.23120779e+02
573             	3.23120984e+02
574             	3.23121460e+02
575             	3.23122039e+02
576             	3.23122631e+02
577             	3.23123102e+02
578             	3.23123504e+02
579             	3.23123841e+02
580             	3.23124102e+02
581             	3.23124298e+02
582             	3.23124452e+02
583             	3.23124540e+02
584             	3.23124953e+02
585             	3.23125161e+02
586             	3.23125316e+02
587             	3.23125527e+02
588             	3.23125944e+02
589             	3.23126418e+02
590             	3.23126940e+02
591             	3.23127468e+02
592             	3.23128014e+02
593             	3.23128572e+02
594             	3.23129168e+02
595             	3.23129795e+02
596             	3.23130458e+02
597             	3.23131129e+02
598             	3.23131778e+02
599             	3.23132399e+02
600             	3.23133128e+02
601             	3.23133867e+02
602             	3.23134592e+02
603             	3.23135309e+02
604             	3.23136027e+02
605             	3.23136619e+02
606             	3.23137187e+02
607             	3.23137630e+02
608             	3.23138123e+02
609             	3.23138683e+02
610             	3.23139032e+02
611             	3.23139315e+02
612             	3.23139613e+02
613             	3.23139907e+02
614             	3.23140177e+02
615             	3.23140409e+02
616             	3.23140768e+02
617             	3.23141014e+02
618             	3.23141234e+02
619             	3.23141475e+02
620             	3.23141722e+02
621             	3.23141754e+02
