# Region        : cellZone component_2
# Cells         : 67
# Volume        : 1.13079111e-01
# Time          	volAverage(T)
1               	3.00389484e+02
2               	3.00769580e+02
3               	3.01116215e+02
4               	3.01442660e+02
5               	3.01766516e+02
6               	3.02086140e+02
7               	3.02401809e+02
8               	3.02716337e+02
9               	3.03023336e+02
10              	3.03320089e+02
11              	3.03609133e+02
12              	3.03896154e+02
13              	3.04176855e+02
14              	3.04453338e+02
15              	3.04725115e+02
16              	3.04992051e+02
17              	3.05248216e+02
18              	3.05510838e+02
19              	3.05768147e+02
20              	3.06024574e+02
21              	3.06279318e+02
22              	3.06536777e+02
23              	3.06786651e+02
24              	3.07039144e+02
25              	3.07293250e+02
26              	3.07548669e+02
27              	3.07802876e+02
28              	3.08040899e+02
29              	3.08283652e+02
30              	3.08512221e+02
31              	3.08740583e+02
32              	3.08969567e+02
33              	3.09191011e+02
34              	3.09404891e+02
35              	3.09608447e+02
36              	3.09790802e+02
37              	3.09971912e+02
38              	3.10168764e+02
39              	3.10357164e+02
40              	3.10541859e+02
41              	3.10726728e+02
42              	3.10913686e+02
43              	3.11093593e+02
44              	3.11268042e+02
45              	3.11433809e+02
46              	3.11585436e+02
47              	3.11735365e+02
48              	3.11884007e+02
49              	3.12032217e+02
50              	3.12178892e+02
51              	3.12329951e+02
52              	3.12479543e+02
53              	3.12627071e+02
54              	3.12771595e+02
55              	3.12912599e+02
56              	3.13055321e+02
57              	3.13192170e+02
58              	3.13334031e+02
59              	3.13464667e+02
60              	3.13591123e+02
61              	3.13713397e+02
62              	3.13828724e+02
63              	3.13938107e+02
64              	3.14038498e+02
65              	3.14127963e+02
66              	3.14221189e+02
67              	3.14313239e+02
68              	3.14407363e+02
69              	3.14504138e+02
70              	3.14587692e+02
71              	3.14680781e+02
72              	3.14772363e+02
73              	3.14850822e+02
74              	3.14938465e+02
75              	3.15018857e+02
76              	3.15099582e+02
77              	3.15181890e+02
78              	3.15264038e+02
79              	3.15340065e+02
80              	3.15423626e+02
81              	3.15506662e+02
82              	3.15588981e+02
83              	3.15661016e+02
84              	3.15734197e+02
85              	3.15794231e+02
86              	3.15849947e+02
87              	3.15893278e+02
88              	3.15935477e+02
89              	3.15978436e+02
90              	3.16025854e+02
91              	3.16074953e+02
92              	3.16124027e+02
93              	3.16181295e+02
94              	3.16239489e+02
95              	3.16290466e+02
96              	3.16347382e+02
97              	3.16411204e+02
98              	3.16462846e+02
99              	3.16515700e+02
100             	3.16567351e+02
101             	3.16623684e+02
102             	3.16673356e+02
103             	3.16728160e+02
104             	3.16779683e+02
105             	3.16836435e+02
106             	3.16891765e+02
107             	3.16947742e+02
108             	3.17000060e+02
109             	3.17038366e+02
110             	3.17088453e+02
111             	3.17139333e+02
112             	3.17194844e+02
113             	3.17243744e+02
114             	3.17293455e+02
115             	3.17341827e+02
116             	3.17393493e+02
117             	3.17436947e+02
118             	3.17476660e+02
119             	3.17515597e+02
120             	3.17552242e+02
121             	3.17586432e+02
122             	3.17619654e+02
123             	3.17636732e+02
124             	3.17661146e+02
125             	3.17682136e+02
126             	3.17700318e+02
127             	3.17715820e+02
128             	3.17732878e+02
129             	3.17751096e+02
130             	3.17776805e+02
131             	3.17798411e+02
132             	3.17828453e+02
133             	3.17851634e+02
134             	3.17878797e+02
135             	3.17900601e+02
136             	3.17921298e+02
137             	3.17937210e+02
138             	3.17952551e+02
139             	3.17971042e+02
140             	3.17991936e+02
141             	3.18014289e+02
142             	3.18041890e+02
143             	3.18074496e+02
144             	3.18099735e+02
145             	3.18115028e+02
146             	3.18134815e+02
147             	3.18151969e+02
148             	3.18170588e+02
149             	3.18187378e+02
150             	3.18211399e+02
151             	3.18237753e+02
152             	3.18261193e+02
153             	3.18291191e+02
154             	3.18322210e+02
155             	3.18355171e+02
156             	3.18390422e+02
157             	3.18424501e+02
158             	3.18449581e+02
159             	3.18469914e+02
160             	3.18495566e+02
161             	3.18518504e+02
162             	3.18531230e+02
163             	3.18547645e+02
164             	3.18555140e+02
165             	3.18569779e+02
166             	3.18582576e+02
167             	3.18597851e+02
168             	3.18613366e+02
169             	3.18630916e+02
170             	3.18650028e+02
171             	3.18670008e+02
172             	3.18691838e+02
173             	3.18717535e+02
174             	3.18746850e+02
175             	3.18778158e+02
176             	3.18812294e+02
177             	3.18848416e+02
178             	3.18873457e+02
179             	3.18904151e+02
180             	3.18935918e+02
181             	3.18968658e+02
182             	3.18999828e+02
183             	3.19029860e+02
184             	3.19059552e+02
185             	3.19091344e+02
186             	3.19116051e+02
187             	3.19140597e+02
188             	3.19166353e+02
189             	3.19194225e+02
190             	3.19215483e+02
191             	3.19240481e+02
192             	3.19266216e+02
193             	3.19295142e+02
194             	3.19324965e+02
195             	3.19348133e+02
196             	3.19375260e+02
197             	3.19404674e+02
198             	3.19434855e+02
199             	3.19465429e+02
200             	3.19487583e+02
201             	3.19509820e+02
202             	3.19537436e+02
203             	3.19563938e+02
204             	3.19592669e+02
205             	3.19621910e+02
206             	3.19648384e+02
207             	3.19672189e+02
208             	3.19701668e+02
209             	3.19729532e+02
210             	3.19754381e+02
211             	3.19772078e+02
212             	3.19796800e+02
213             	3.19819109e+02
214             	3.19848116e+02
215             	3.19874485e+02
216             	3.19905604e+02
217             	3.19935605e+02
218             	3.19960202e+02
219             	3.19988065e+02
220             	3.20015832e+02
221             	3.20044194e+02
222             	3.20061977e+02
223             	3.20082283e+02
224             	3.20103539e+02
225             	3.20125553e+02
226             	3.20149370e+02
227             	3.20158455e+02
228             	3.20172701e+02
229             	3.20187199e+02
230             	3.20203655e+02
231             	3.20215355e+02
232             	3.20222415e+02
233             	3.20228303e+02
234             	3.20239991e+02
235             	3.20253835e+02
236             	3.20268862e+02
237             	3.20281226e+02
238             	3.20297514e+02
239             	3.20305332e+02
240             	3.20323591e+02
241             	3.20329893e+02
242             	3.20341500e+02
243             	3.20354555e+02
244             	3.20367760e+02
245             	3.20379799e+02
246             	3.20385130e+02
247             	3.20391499e+02
248             	3.20402486e+02
249             	3.20412708e+02
250             	3.20422649e+02
251             	3.20433303e+02
252             	3.20436374e+02
253             	3.20447415e+02
254             	3.20450204e+02
255             	3.20460968e+02
256             	3.20477333e+02
257             	3.20492358e+02
258             	3.20506051e+02
259             	3.20520931e+02
260             	3.20536709e+02
261             	3.20551323e+02
262             	3.20563725e+02
263             	3.20578048e+02
264             	3.20582945e+02
265             	3.20594766e+02
266             	3.20607089e+02
267             	3.20618079e+02
268             	3.20627360e+02
269             	3.20639499e+02
270             	3.20649365e+02
271             	3.20658854e+02
272             	3.20667623e+02
273             	3.20675220e+02
274             	3.20681692e+02
275             	3.20687921e+02
276             	3.20694850e+02
277             	3.20702897e+02
278             	3.20702188e+02
279             	3.20707611e+02
280             	3.20717431e+02
281             	3.20725699e+02
282             	3.20734855e+02
283             	3.20739806e+02
284             	3.20742550e+02
285             	3.20749148e+02
286             	3.20757121e+02
287             	3.20764958e+02
288             	3.20774356e+02
289             	3.20788878e+02
290             	3.20789706e+02
291             	3.20797885e+02
292             	3.20810986e+02
293             	3.20822658e+02
294             	3.20833579e+02
295             	3.20841106e+02
296             	3.20848283e+02
297             	3.20855312e+02
298             	3.20862117e+02
299             	3.20868517e+02
300             	3.20874355e+02
301             	3.20879223e+02
302             	3.20882846e+02
303             	3.20887335e+02
304             	3.20893760e+02
305             	3.20892507e+02
306             	3.20898013e+02
307             	3.20901988e+02
308             	3.20909131e+02
309             	3.20913499e+02
310             	3.20914926e+02
311             	3.20918559e+02
312             	3.20923945e+02
313             	3.20930497e+02
314             	3.20936552e+02
315             	3.20942799e+02
316             	3.20950333e+02
317             	3.20946700e+02
318             	3.20950415e+02
319             	3.20954841e+02
320             	3.20959565e+02
321             	3.20963100e+02
322             	3.20967343e+02
323             	3.20972237e+02
324             	3.20978889e+02
325             	3.20986329e+02
326             	3.20992569e+02
327             	3.20998562e+02
328             	3.21003884e+02
329             	3.21009195e+02
330             	3.21014694e+02
331             	3.21020304e+02
332             	3.21026037e+02
333             	3.21030917e+02
334             	3.21037297e+02
335             	3.21044031e+02
336             	3.21050515e+02
337             	3.21057043e+02
338             	3.21063845e+02
339             	3.21070865e+02
340             	3.21076285e+02
341             	3.21081286e+02
342             	3.21086246e+02
343             	3.21091350e+02
344             	3.21096355e+02
345             	3.21101667e+02
346             	3.21106946e+02
347             	3.21110858e+02
348             	3.21114624e+02
349             	3.21118480e+02
350             	3.21122245e+02
351             	3.21125352e+02
352             	3.21128261e+02
353             	3.21131110e+02
354             	3.21133803e+02
355             	3.21136547e+02
356             	3.21140061e+02
357             	3.21143795e+02
358             	3.21147233e+02
359             	3.21150449e+02
360             	3.21153612e+02
361             	3.21155457e+02
362             	3.21157137e+02
363             	3.21158941e+02
364             	3.21160846e+02
365             	3.21162516e+02
366             	3.21164614e+02
367             	3.21167127e+02
368             	3.21169821e+02
369             	3.21173412e+02
370             	3.21177471e+02
371             	3.21181546e+02
372             	3.21184966e+02
373             	3.21188342e+02
374             	3.21191693e+02
375             	3.21194794e+02
376             	3.21197778e+02
377             	3.21199589e+02
378             	3.21202740e+02
379             	3.21205863e+02
380             	3.21208725e+02
381             	3.21211648e+02
382             	3.21214003e+02
383             	3.21217042e+02
384             	3.21219043e+02
385             	3.21220721e+02
386             	3.21222512e+02
387             	3.21224125e+02
388             	3.21225463e+02
389             	3.21226827e+02
390             	3.21228983e+02
391             	3.21233521e+02
392             	3.21236597e+02
393             	3.21238038e+02
394             	3.21239480e+02
395             	3.21242008e+02
396             	3.21243943e+02
397             	3.21245177e+02
398             	3.21246791e+02
399             	3.21247008e+02
400             	3.21248622e+02
401             	3.21250441e+02
402             	3.21252003e+02
403             	3.21253405e+02
404             	3.21254803e+02
405             	3.21256279e+02
406             	3.21257790e+02
407             	3.21259313e+02
408             	3.21260969e+02
409             	3.21263020e+02
410             	3.21265269e+02
411             	3.21266154e+02
412             	3.21266898e+02
413             	3.21267809e+02
414             	3.21268799e+02
415             	3.21269726e+02
416             	3.21270682e+02
417             	3.21271165e+02
418             	3.21272650e+02
419             	3.21274378e+02
420             	3.21276074e+02
421             	3.21277596e+02
422             	3.21278959e+02
423             	3.21280271e+02
424             	3.21281553e+02
425             	3.21282798e+02
426             	3.21284012e+02
427             	3.21285208e+02
428             	3.21286417e+02
429             	3.21287556e+02
430             	3.21288523e+02
431             	3.21289690e+02
432             	3.21290964e+02
433             	3.21292170e+02
434             	3.21293504e+02
435             	3.21294625e+02
436             	3.21295765e+02
437             	3.21296811e+02
438             	3.21297835e+02
439             	3.21298841e+02
440             	3.21299815e+02
441             	3.21300729e+02
442             	3.21301601e+02
443             	3.21302441e+02
444             	3.21303261e+02
445             	3.21304028e+02
446             	3.21304751e+02
447             	3.21305110e+02
448             	3.21305966e+02
449             	3.21306922e+02
450             	3.21307778e+02
451             	3.21308763e+02
452             	3.21309416e+02
453             	3.21310133e+02
454             	3.21310667e+02
455             	3.21311160e+02
456             	3.21311702e+02
457             	3.21312296e+02
458             	3.21312744e+02
459             	3.21313174e+02
460             	3.21313887e+02
461             	3.21314548e+02
462             	3.21315288e+02
463             	3.21316094e+02
464             	3.21316801e+02
465             	3.21317438e+02
466             	3.21318140e+02
467             	3.21318860e+02
468             	3.21319586e+02
469             	3.21320150e+02
470             	3.21320684e+02
471             	3.21320963e+02
472             	3.21321432e+02
473             	3.21321945e+02
474             	3.21322513e+02
475             	3.21323105e+02
476             	3.21323727e+02
477             	3.21324329e+02
478             	3.21324932e+02
479             	3.21325490e+02
480             	3.21326022e+02
481             	3.21326528e+02
482             	3.21327018e+02
483             	3.21327509e+02
484             	3.21327990e+02
485             	3.21328470e+02
486             	3.21328956e+02
487             	3.21329401e+02
488             	3.21329820e+02
489             	3.21330379e+02
490             	3.21330992e+02
491             	3.21331565e+02
492             	3.21332226e+02
493             	3.21332770e+02
494             	3.21333209e+02
495             	3.21333630e+02
496             	3.21334051e+02
497             	3.21334464e+02
498             	3.21334867e+02
499             	3.21335226e+02
500             	3.21335618e+02
501             	3.21335937e+02
502             	3.21336334e+02
503             	3.21336653e+02
504             	3.21337006e+02
505             	3.21337411e+02
506             	3.21337805e+02
507             	3.21338172e+02
508             	3.21338519e+02
509             	3.21338881e+02
510             	3.21339390e+02
511             	3.21339656e+02
512             	3.21339925e+02
513             	3.21340126e+02
514             	3.21340379e+02
515             	3.21340651e+02
516             	3.21340919e+02
517             	3.21341175e+02
518             	3.21341423e+02
519             	3.21341638e+02
520             	3.21341919e+02
521             	3.21342232e+02
522             	3.21342554e+02
523             	3.21342904e+02
524             	3.21343227e+02
525             	3.21343500e+02
526             	3.21343733e+02
527             	3.21344022e+02
528             	3.21344364e+02
529             	3.21344613e+02
530             	3.21344915e+02
531             	3.21345244e+02
532             	3.21345471e+02
533             	3.21345689e+02
534             	3.21345915e+02
535             	3.21346082e+02
536             	3.21346318e+02
537             	3.21346479e+02
538             	3.21346727e+02
539             	3.21346981e+02
540             	3.21347212e+02
541             	3.21347430e+02
542             	3.21347648e+02
543             	3.21347897e+02
544             	3.21348140e+02
545             	3.21348332e+02
546             	3.21348554e+02
547             	3.21348727e+02
548             	3.21348866e+02
549             	3.21349026e+02
550             	3.21349178e+02
551             	3.21349339e+02
552             	3.21349500e+02
553             	3.21349628e+02
554             	3.21349802e+02
555             	3.21349962e+02
556             	3.21350137e+02
557             	3.21350310e+02
558             	3.21350472e+02
559             	3.21350617e+02
560             	3.21350799e+02
561             	3.21350939e+02
562             	3.21351093e+02
563             	3.21351228e+02
564             	3.21351363e+02
565             	3.21351503e+02
566             	3.21351662e+02
567             	3.21351806e+02
568             	3.21351951e+02
569             	3.21352089e+02
570             	3.21352219e+02
571             	3.21352339e+02
572             	3.21352465e+02
573             	3.21352570e+02
574             	3.21352670e+02
575             	3.21352811e+02
576             	3.21352962e+02
577             	3.21353111e+02
578             	3.21353263e+02
579             	3.21353407e+02
580             	3.21353550e+02
581             	3.21353698e+02
582             	3.21353807e+02
583             	3.21353909e+02
584             	3.21354010e+02
585             	3.21354111e+02
586             	3.21354223e+02
587             	3.21354327e+02
588             	3.21354435e+02
589             	3.21354539e+02
590             	3.21354630e+02
591             	3.21354737e+02
592             	3.21354858e+02
593             	3.21354969e+02
594             	3.21355081e+02
595             	3.21355182e+02
596             	3.21355278e+02
597             	3.21355369e+02
598             	3.21355452e+02
599             	3.21355519e+02
600             	3.21355579e+02
601             	3.21355659e+02
602             	3.21355742e+02
603             	3.21355821e+02
604             	3.21355898e+02
605             	3.21355976e+02
606             	3.21356072e+02
607             	3.21356165e+02
608             	3.21356240e+02
609             	3.21356316e+02
610             	3.21356389e+02
611             	3.21356455e+02
612             	3.21356514e+02
613             	3.21356572e+02
614             	3.21356615e+02
615             	3.21356673e+02
616             	3.21356724e+02
617             	3.21356793e+02
618             	3.21356864e+02
619             	3.21356935e+02
620             	3.21357013e+02
621             	3.21357081e+02
