# Region        : cellZone component_2
# Cells         : 53
# Volume        : 7.56126924e-02
# Time          	volAverage(T)
1               	3.03263652e+02
2               	3.06399415e+02
3               	3.08690876e+02
4               	3.10565414e+02
5               	3.12470973e+02
6               	3.14478464e+02
7               	3.16447548e+02
8               	3.18321274e+02
9               	3.20117476e+02
10              	3.21888571e+02
11              	3.23521420e+02
12              	3.25000108e+02
13              	3.26408500e+02
14              	3.27828059e+02
15              	3.29260764e+02
16              	3.30569096e+02
17              	3.31671376e+02
18              	3.32743903e+02
19              	3.33792455e+02
20              	3.34835531e+02
21              	3.35765195e+02
22              	3.36594035e+02
23              	3.37471493e+02
24              	3.38480524e+02
25              	3.39599153e+02
26              	3.40593298e+02
27              	3.41622325e+02
28              	3.42618776e+02
29              	3.43480718e+02
30              	3.44267252e+02
31              	3.44997585e+02
32              	3.45720796e+02
33              	3.46394851e+02
34              	3.47074960e+02
35              	3.47782243e+02
36              	3.48464156e+02
37              	3.49089413e+02
38              	3.49652052e+02
39              	3.50252946e+02
40              	3.50783493e+02
41              	3.51348813e+02
42              	3.51823766e+02
43              	3.52160810e+02
44              	3.52345272e+02
45              	3.52606719e+02
46              	3.52872880e+02
47              	3.53114485e+02
48              	3.53345323e+02
49              	3.53599384e+02
50              	3.53882150e+02
51              	3.54149946e+02
52              	3.54396146e+02
53              	3.54582741e+02
54              	3.54771708e+02
55              	3.54876937e+02
56              	3.55085600e+02
57              	3.55335467e+02
58              	3.55512961e+02
59              	3.55722000e+02
60              	3.55963482e+02
61              	3.56221231e+02
62              	3.56459582e+02
63              	3.56598515e+02
64              	3.56709576e+02
65              	3.56812210e+02
66              	3.56861618e+02
67              	3.56869838e+02
68              	3.56830765e+02
69              	3.56803625e+02
70              	3.56801322e+02
71              	3.56794607e+02
72              	3.56786719e+02
73              	3.56817567e+02
74              	3.56866019e+02
75              	3.56961184e+02
76              	3.57085329e+02
77              	3.57240766e+02
78              	3.57437572e+02
79              	3.57684037e+02
80              	3.57984344e+02
81              	3.58359782e+02
82              	3.58698646e+02
83              	3.59016362e+02
84              	3.59348793e+02
85              	3.59666160e+02
86              	3.59831169e+02
87              	3.60013827e+02
88              	3.60167528e+02
89              	3.60271620e+02
90              	3.60349054e+02
91              	3.60406654e+02
92              	3.60464549e+02
93              	3.60454205e+02
94              	3.60448344e+02
95              	3.60452071e+02
96              	3.60443566e+02
97              	3.60416896e+02
98              	3.60408092e+02
99              	3.60350905e+02
100             	3.60333800e+02
101             	3.60360671e+02
102             	3.60325569e+02
103             	3.60332955e+02
104             	3.60340876e+02
105             	3.60432524e+02
106             	3.60466711e+02
107             	3.60445903e+02
108             	3.60411365e+02
109             	3.60392761e+02
110             	3.60380077e+02
111             	3.60378945e+02
112             	3.60420190e+02
113             	3.60460638e+02
114             	3.60505334e+02
115             	3.60558796e+02
116             	3.60486475e+02
117             	3.60495992e+02
118             	3.60542236e+02
119             	3.60597196e+02
120             	3.60637034e+02
121             	3.60662703e+02
122             	3.60673841e+02
123             	3.60677874e+02
124             	3.60665751e+02
125             	3.60636754e+02
126             	3.60603700e+02
127             	3.60576672e+02
128             	3.60558321e+02
129             	3.60563593e+02
130             	3.60579046e+02
131             	3.60614571e+02
132             	3.60594416e+02
133             	3.60635443e+02
134             	3.60711070e+02
135             	3.60736177e+02
136             	3.60810237e+02
137             	3.60907825e+02
138             	3.60999118e+02
139             	3.61059095e+02
140             	3.61096710e+02
141             	3.61130619e+02
142             	3.61155683e+02
143             	3.61169279e+02
144             	3.61187501e+02
145             	3.61218226e+02
146             	3.61269231e+02
147             	3.61296561e+02
148             	3.61358782e+02
149             	3.61448159e+02
150             	3.61462901e+02
151             	3.61532487e+02
152             	3.61637114e+02
153             	3.61732744e+02
154             	3.61751041e+02
155             	3.61746170e+02
156             	3.61764772e+02
157             	3.61801744e+02
158             	3.61864876e+02
159             	3.61938613e+02
160             	3.62004291e+02
161             	3.62070326e+02
162             	3.62143603e+02
163             	3.62229537e+02
164             	3.62326494e+02
165             	3.62380873e+02
166             	3.62487996e+02
167             	3.62565047e+02
168             	3.62673271e+02
169             	3.62790309e+02
170             	3.62878751e+02
171             	3.62945496e+02
172             	3.63000914e+02
173             	3.63052005e+02
174             	3.63097229e+02
175             	3.63145851e+02
176             	3.63196558e+02
177             	3.63250558e+02
178             	3.63310585e+02
179             	3.63374621e+02
180             	3.63379740e+02
181             	3.63415144e+02
182             	3.63466487e+02
183             	3.63515179e+02
184             	3.63552283e+02
185             	3.63575736e+02
186             	3.63604442e+02
187             	3.63657376e+02
188             	3.63737771e+02
189             	3.63828829e+02
190             	3.63918531e+02
191             	3.64008731e+02
192             	3.64103773e+02
193             	3.64123856e+02
194             	3.64173437e+02
195             	3.64234327e+02
196             	3.64281259e+02
197             	3.64313156e+02
198             	3.64339075e+02
199             	3.64365131e+02
200             	3.64399350e+02
201             	3.64424765e+02
202             	3.64445891e+02
203             	3.64467942e+02
204             	3.64490936e+02
205             	3.64521450e+02
206             	3.64543835e+02
207             	3.64558613e+02
208             	3.64575353e+02
209             	3.64593891e+02
210             	3.64616259e+02
211             	3.64647885e+02
212             	3.64683191e+02
213             	3.64709352e+02
214             	3.64742977e+02
215             	3.64800411e+02
216             	3.64860489e+02
217             	3.64916783e+02
218             	3.64969523e+02
219             	3.65018891e+02
220             	3.65059188e+02
221             	3.65111319e+02
222             	3.65150338e+02
223             	3.65176390e+02
224             	3.65198883e+02
225             	3.65221948e+02
226             	3.65243157e+02
227             	3.65260024e+02
228             	3.65279555e+02
229             	3.65299460e+02
230             	3.65317974e+02
231             	3.65333172e+02
232             	3.65350321e+02
233             	3.65369437e+02
234             	3.65390106e+02
235             	3.65412296e+02
236             	3.65435706e+02
237             	3.65439019e+02
238             	3.65467337e+02
239             	3.65509606e+02
240             	3.65548334e+02
241             	3.65583458e+02
242             	3.65612569e+02
243             	3.65642140e+02
244             	3.65686411e+02
245             	3.65714015e+02
246             	3.65730425e+02
247             	3.65736379e+02
248             	3.65744874e+02
249             	3.65748816e+02
250             	3.65763859e+02
251             	3.65780470e+02
252             	3.65787275e+02
253             	3.65784979e+02
254             	3.65781000e+02
255             	3.65790919e+02
256             	3.65823086e+02
257             	3.65854926e+02
258             	3.65886528e+02
259             	3.65914901e+02
260             	3.65927913e+02
261             	3.65931186e+02
262             	3.65940485e+02
263             	3.65956985e+02
264             	3.65974396e+02
265             	3.65989219e+02
266             	3.66002682e+02
267             	3.66015397e+02
268             	3.66027032e+02
269             	3.66037272e+02
270             	3.66049296e+02
271             	3.66055988e+02
272             	3.66060570e+02
273             	3.66069324e+02
274             	3.66072731e+02
275             	3.66074840e+02
276             	3.66078737e+02
277             	3.66081077e+02
278             	3.66081863e+02
279             	3.66099730e+02
280             	3.66121631e+02
281             	3.66138000e+02
282             	3.66149041e+02
283             	3.66164575e+02
284             	3.66173328e+02
285             	3.66180735e+02
286             	3.66196579e+02
287             	3.66209526e+02
288             	3.66212585e+02
289             	3.66211072e+02
290             	3.66210900e+02
291             	3.66212893e+02
292             	3.66215576e+02
293             	3.66218840e+02
294             	3.66223606e+02
295             	3.66228862e+02
296             	3.66233663e+02
297             	3.66238133e+02
298             	3.66242501e+02
299             	3.66247323e+02
300             	3.66253700e+02
301             	3.66260640e+02
302             	3.66268622e+02
303             	3.66277830e+02
304             	3.66287615e+02
305             	3.66297410e+02
306             	3.66306851e+02
307             	3.66315607e+02
308             	3.66327085e+02
309             	3.66330555e+02
310             	3.66330976e+02
311             	3.66333280e+02
312             	3.66335282e+02
313             	3.66335805e+02
314             	3.66336619e+02
315             	3.66342916e+02
316             	3.66348081e+02
317             	3.66353009e+02
318             	3.66357033e+02
319             	3.66360245e+02
320             	3.66363332e+02
321             	3.66366864e+02
322             	3.66370872e+02
323             	3.66375393e+02
324             	3.66380513e+02
325             	3.66385656e+02
326             	3.66392787e+02
327             	3.66397618e+02
328             	3.66398947e+02
329             	3.66400627e+02
330             	3.66402172e+02
331             	3.66407218e+02
332             	3.66412014e+02
333             	3.66414981e+02
334             	3.66416030e+02
335             	3.66417739e+02
336             	3.66421311e+02
337             	3.66425960e+02
338             	3.66430304e+02
339             	3.66433323e+02
340             	3.66437024e+02
341             	3.66441533e+02
342             	3.66446862e+02
343             	3.66449257e+02
344             	3.66448125e+02
345             	3.66447207e+02
346             	3.66448001e+02
347             	3.66447729e+02
348             	3.66450814e+02
349             	3.66454763e+02
350             	3.66457295e+02
351             	3.66458368e+02
352             	3.66459474e+02
353             	3.66461759e+02
354             	3.66464528e+02
355             	3.66467110e+02
356             	3.66469706e+02
357             	3.66473170e+02
358             	3.66475267e+02
359             	3.66476879e+02
360             	3.66478926e+02
361             	3.66480918e+02
362             	3.66482639e+02
363             	3.66483966e+02
364             	3.66485165e+02
365             	3.66486546e+02
366             	3.66487878e+02
367             	3.66489087e+02
368             	3.66489461e+02
369             	3.66491138e+02
370             	3.66493188e+02
371             	3.66494523e+02
372             	3.66495752e+02
373             	3.66496979e+02
374             	3.66498185e+02
375             	3.66499368e+02
376             	3.66500397e+02
377             	3.66501602e+02
378             	3.66503022e+02
379             	3.66504780e+02
380             	3.66506224e+02
381             	3.66506920e+02
382             	3.66507296e+02
383             	3.66507630e+02
384             	3.66508262e+02
385             	3.66508759e+02
386             	3.66508351e+02
387             	3.66507506e+02
388             	3.66506726e+02
389             	3.66507726e+02
390             	3.66509671e+02
391             	3.66511415e+02
392             	3.66513011e+02
393             	3.66514740e+02
394             	3.66516642e+02
395             	3.66518079e+02
396             	3.66518242e+02
397             	3.66518352e+02
398             	3.66519196e+02
399             	3.66519748e+02
400             	3.66520602e+02
401             	3.66521495e+02
402             	3.66522222e+02
403             	3.66522770e+02
404             	3.66523227e+02
405             	3.66523656e+02
406             	3.66524056e+02
407             	3.66523723e+02
408             	3.66524558e+02
409             	3.66525990e+02
410             	3.66527208e+02
411             	3.66528151e+02
412             	3.66529017e+02
413             	3.66530043e+02
414             	3.66531175e+02
415             	3.66532772e+02
416             	3.66534014e+02
417             	3.66534114e+02
418             	3.66534089e+02
419             	3.66534405e+02
420             	3.66534755e+02
421             	3.66534984e+02
422             	3.66534936e+02
423             	3.66535377e+02
424             	3.66535960e+02
425             	3.66536310e+02
426             	3.66536493e+02
427             	3.66536792e+02
428             	3.66537324e+02
429             	3.66537986e+02
430             	3.66538790e+02
431             	3.66539466e+02
432             	3.66540059e+02
433             	3.66540697e+02
434             	3.66541414e+02
435             	3.66542243e+02
436             	3.66543060e+02
437             	3.66543621e+02
438             	3.66543607e+02
439             	3.66543687e+02
440             	3.66543802e+02
441             	3.66544034e+02
442             	3.66544163e+02
443             	3.66544992e+02
444             	3.66545957e+02
445             	3.66546717e+02
446             	3.66547152e+02
447             	3.66547534e+02
448             	3.66548003e+02
449             	3.66548669e+02
450             	3.66549860e+02
451             	3.66550044e+02
452             	3.66549825e+02
453             	3.66549886e+02
454             	3.66550221e+02
455             	3.66550569e+02
456             	3.66550753e+02
457             	3.66550861e+02
458             	3.66550972e+02
459             	3.66551148e+02
460             	3.66551333e+02
461             	3.66551569e+02
462             	3.66551766e+02
463             	3.66552163e+02
464             	3.66552593e+02
465             	3.66553130e+02
466             	3.66553632e+02
467             	3.66554124e+02
468             	3.66554628e+02
469             	3.66555176e+02
470             	3.66555748e+02
471             	3.66556301e+02
472             	3.66556894e+02
473             	3.66557223e+02
474             	3.66557397e+02
475             	3.66557605e+02
476             	3.66557884e+02
477             	3.66558251e+02
478             	3.66558551e+02
479             	3.66558720e+02
480             	3.66558864e+02
481             	3.66559108e+02
482             	3.66559344e+02
483             	3.66559366e+02
484             	3.66559098e+02
485             	3.66558972e+02
486             	3.66559172e+02
487             	3.66559670e+02
488             	3.66560092e+02
489             	3.66560458e+02
490             	3.66560529e+02
491             	3.66560899e+02
492             	3.66561088e+02
493             	3.66561204e+02
494             	3.66561410e+02
495             	3.66561717e+02
496             	3.66562075e+02
497             	3.66562271e+02
498             	3.66562338e+02
499             	3.66562405e+02
500             	3.66562541e+02
501             	3.66562654e+02
502             	3.66562779e+02
503             	3.66562898e+02
504             	3.66562988e+02
505             	3.66563044e+02
506             	3.66563097e+02
507             	3.66563169e+02
508             	3.66563229e+02
509             	3.66563285e+02
510             	3.66563433e+02
511             	3.66563597e+02
512             	3.66563772e+02
513             	3.66563875e+02
514             	3.66564069e+02
515             	3.66564328e+02
516             	3.66564508e+02
517             	3.66564648e+02
518             	3.66564870e+02
519             	3.66565097e+02
520             	3.66565286e+02
521             	3.66565590e+02
522             	3.66565784e+02
523             	3.66565727e+02
524             	3.66565660e+02
525             	3.66565655e+02
526             	3.66565748e+02
527             	3.66565755e+02
528             	3.66565707e+02
529             	3.66565798e+02
530             	3.66565899e+02
531             	3.66565950e+02
532             	3.66565975e+02
533             	3.66565981e+02
534             	3.66566039e+02
535             	3.66566159e+02
536             	3.66566338e+02
537             	3.66566535e+02
538             	3.66566724e+02
539             	3.66566941e+02
540             	3.66567154e+02
541             	3.66567356e+02
542             	3.66567516e+02
543             	3.66567615e+02
544             	3.66567709e+02
545             	3.66567845e+02
546             	3.66567863e+02
547             	3.66567817e+02
548             	3.66567814e+02
549             	3.66567829e+02
550             	3.66567852e+02
551             	3.66567870e+02
552             	3.66567879e+02
553             	3.66567904e+02
554             	3.66567859e+02
555             	3.66567826e+02
556             	3.66567804e+02
557             	3.66567784e+02
558             	3.66567690e+02
559             	3.66567704e+02
560             	3.66567887e+02
561             	3.66568095e+02
562             	3.66568207e+02
563             	3.66568331e+02
564             	3.66568454e+02
565             	3.66568569e+02
566             	3.66568790e+02
567             	3.66568966e+02
568             	3.66568922e+02
569             	3.66568848e+02
570             	3.66568872e+02
571             	3.66568820e+02
572             	3.66568911e+02
573             	3.66569010e+02
574             	3.66569001e+02
575             	3.66569009e+02
576             	3.66569035e+02
577             	3.66569046e+02
578             	3.66569092e+02
579             	3.66569251e+02
580             	3.66569462e+02
581             	3.66569547e+02
582             	3.66569726e+02
583             	3.66569993e+02
584             	3.66570284e+02
585             	3.66570504e+02
586             	3.66570730e+02
587             	3.66570969e+02
588             	3.66571192e+02
589             	3.66571455e+02
590             	3.66571662e+02
591             	3.66571833e+02
592             	3.66571988e+02
593             	3.66572160e+02
594             	3.66572310e+02
595             	3.66572445e+02
596             	3.66572564e+02
597             	3.66572675e+02
598             	3.66572773e+02
599             	3.66572878e+02
600             	3.66572924e+02
601             	3.66572938e+02
602             	3.66572837e+02
603             	3.66572850e+02
604             	3.66572900e+02
605             	3.66572902e+02
606             	3.66572866e+02
607             	3.66572772e+02
608             	3.66572671e+02
609             	3.66572690e+02
610             	3.66572599e+02
611             	3.66572524e+02
612             	3.66572329e+02
613             	3.66572126e+02
614             	3.66571971e+02
615             	3.66571723e+02
616             	3.66571561e+02
617             	3.66571436e+02
618             	3.66571210e+02
619             	3.66570994e+02
620             	3.66570884e+02
621             	3.66570796e+02
