# Region        : cellZone component_3
# Cells         : 96
# Volume        : 1.61116345e-01
# Time          	volAverage(T)
1               	3.00925503e+02
2               	3.01836771e+02
3               	3.02615079e+02
4               	3.03327261e+02
5               	3.04031953e+02
6               	3.04736130e+02
7               	3.05433026e+02
8               	3.06116628e+02
9               	3.06787632e+02
10              	3.07443906e+02
11              	3.08086434e+02
12              	3.08713557e+02
13              	3.09330510e+02
14              	3.09940633e+02
15              	3.10547399e+02
16              	3.11143859e+02
17              	3.11733151e+02
18              	3.12312995e+02
19              	3.12883790e+02
20              	3.13449100e+02
21              	3.14021281e+02
22              	3.14564783e+02
23              	3.15047215e+02
24              	3.15489093e+02
25              	3.15928160e+02
26              	3.16374993e+02
27              	3.16832993e+02
28              	3.17297123e+02
29              	3.17764196e+02
30              	3.18238309e+02
31              	3.18717276e+02
32              	3.19195508e+02
33              	3.19660400e+02
34              	3.20099124e+02
35              	3.20513748e+02
36              	3.20907275e+02
37              	3.21292836e+02
38              	3.21701589e+02
39              	3.22040718e+02
40              	3.22287443e+02
41              	3.22547948e+02
42              	3.22844173e+02
43              	3.23155693e+02
44              	3.23479991e+02
45              	3.23808337e+02
46              	3.24131986e+02
47              	3.24437671e+02
48              	3.24733345e+02
49              	3.25021969e+02
50              	3.25313736e+02
51              	3.25611546e+02
52              	3.25902658e+02
53              	3.26181343e+02
54              	3.26461583e+02
55              	3.26730634e+02
56              	3.26999972e+02
57              	3.27235704e+02
58              	3.27437127e+02
59              	3.27630001e+02
60              	3.27820227e+02
61              	3.27995860e+02
62              	3.28167661e+02
63              	3.28332845e+02
64              	3.28496140e+02
65              	3.28679570e+02
66              	3.28881921e+02
67              	3.29047322e+02
68              	3.29168791e+02
69              	3.29314451e+02
70              	3.29451897e+02
71              	3.29589945e+02
72              	3.29705896e+02
73              	3.29822146e+02
74              	3.29960151e+02
75              	3.30117771e+02
76              	3.30292575e+02
77              	3.30422466e+02
78              	3.30552255e+02
79              	3.30666111e+02
80              	3.30818755e+02
81              	3.30969861e+02
82              	3.31110091e+02
83              	3.31229760e+02
84              	3.31317787e+02
85              	3.31400743e+02
86              	3.31500117e+02
87              	3.31612149e+02
88              	3.31727084e+02
89              	3.31829564e+02
90              	3.31921349e+02
91              	3.31982015e+02
92              	3.32040112e+02
93              	3.32102467e+02
94              	3.32176863e+02
95              	3.32270447e+02
96              	3.32364057e+02
97              	3.32451470e+02
98              	3.32544110e+02
99              	3.32635929e+02
100             	3.32729989e+02
101             	3.32828731e+02
102             	3.32931547e+02
103             	3.33038877e+02
104             	3.33153815e+02
105             	3.33273604e+02
106             	3.33397063e+02
107             	3.33523817e+02
108             	3.33650373e+02
109             	3.33779385e+02
110             	3.33908457e+02
111             	3.34041891e+02
112             	3.34183569e+02
113             	3.34326016e+02
114             	3.34461582e+02
115             	3.34596283e+02
116             	3.34731866e+02
117             	3.34861538e+02
118             	3.34991017e+02
119             	3.35123202e+02
120             	3.35256598e+02
121             	3.35390013e+02
122             	3.35512370e+02
123             	3.35632349e+02
124             	3.35741778e+02
125             	3.35863680e+02
126             	3.35982957e+02
127             	3.36097144e+02
128             	3.36210755e+02
129             	3.36323214e+02
130             	3.36437183e+02
131             	3.36552073e+02
132             	3.36668041e+02
133             	3.36786491e+02
134             	3.36900386e+02
135             	3.37012543e+02
136             	3.37122282e+02
137             	3.37211431e+02
138             	3.37301752e+02
139             	3.37371426e+02
140             	3.37442290e+02
141             	3.37517794e+02
142             	3.37596670e+02
143             	3.37672635e+02
144             	3.37748941e+02
145             	3.37824338e+02
146             	3.37898818e+02
147             	3.37973507e+02
148             	3.38047394e+02
149             	3.38118903e+02
150             	3.38191314e+02
151             	3.38266376e+02
152             	3.38341237e+02
153             	3.38411982e+02
154             	3.38483750e+02
155             	3.38559646e+02
156             	3.38640388e+02
157             	3.38719924e+02
158             	3.38782355e+02
159             	3.38842534e+02
160             	3.38902841e+02
161             	3.38957319e+02
162             	3.39009890e+02
163             	3.39047986e+02
164             	3.39093249e+02
165             	3.39142633e+02
166             	3.39196240e+02
167             	3.39254951e+02
168             	3.39319455e+02
169             	3.39393933e+02
170             	3.39446768e+02
171             	3.39505778e+02
172             	3.39555571e+02
173             	3.39594321e+02
174             	3.39631659e+02
175             	3.39640423e+02
176             	3.39655873e+02
177             	3.39680187e+02
178             	3.39708821e+02
179             	3.39739766e+02
180             	3.39777851e+02
181             	3.39824926e+02
182             	3.39880491e+02
183             	3.39943755e+02
184             	3.40010579e+02
185             	3.40074628e+02
186             	3.40134914e+02
187             	3.40174391e+02
188             	3.40221978e+02
189             	3.40245196e+02
190             	3.40269676e+02
191             	3.40292911e+02
192             	3.40322267e+02
193             	3.40350736e+02
194             	3.40375770e+02
195             	3.40393653e+02
196             	3.40416626e+02
197             	3.40441232e+02
198             	3.40464977e+02
199             	3.40492511e+02
200             	3.40521992e+02
201             	3.40552766e+02
202             	3.40583252e+02
203             	3.40607554e+02
204             	3.40629766e+02
205             	3.40654209e+02
206             	3.40679330e+02
207             	3.40703884e+02
208             	3.40721999e+02
209             	3.40744461e+02
210             	3.40758011e+02
211             	3.40770336e+02
212             	3.40785279e+02
213             	3.40802185e+02
214             	3.40818091e+02
215             	3.40829334e+02
216             	3.40836583e+02
217             	3.40844285e+02
218             	3.40849170e+02
219             	3.40834365e+02
220             	3.40825332e+02
221             	3.40822626e+02
222             	3.40825114e+02
223             	3.40832805e+02
224             	3.40844730e+02
225             	3.40861107e+02
226             	3.40881180e+02
227             	3.40904105e+02
228             	3.40919414e+02
229             	3.40933810e+02
230             	3.40948446e+02
231             	3.40961934e+02
232             	3.40977082e+02
233             	3.40984769e+02
234             	3.40989933e+02
235             	3.40990640e+02
236             	3.40992577e+02
237             	3.40994461e+02
238             	3.40994559e+02
239             	3.40985039e+02
240             	3.40979094e+02
241             	3.40965179e+02
242             	3.40959093e+02
243             	3.40955341e+02
244             	3.40958437e+02
245             	3.40966701e+02
246             	3.40978380e+02
247             	3.40993421e+02
248             	3.41008469e+02
249             	3.41020114e+02
250             	3.41030688e+02
251             	3.41034428e+02
252             	3.41039754e+02
253             	3.41033392e+02
254             	3.41023945e+02
255             	3.41015167e+02
256             	3.41001021e+02
257             	3.40988878e+02
258             	3.40983006e+02
259             	3.40976829e+02
260             	3.40976533e+02
261             	3.40979855e+02
262             	3.40982654e+02
263             	3.40990547e+02
264             	3.40996090e+02
265             	3.40999876e+02
266             	3.41001963e+02
267             	3.41001232e+02
268             	3.40997034e+02
269             	3.40993781e+02
270             	3.40990146e+02
271             	3.40984897e+02
272             	3.40978945e+02
273             	3.40973097e+02
274             	3.40966410e+02
275             	3.40958639e+02
276             	3.40949744e+02
277             	3.40940443e+02
278             	3.40931382e+02
279             	3.40923231e+02
280             	3.40907659e+02
281             	3.40897497e+02
282             	3.40890898e+02
283             	3.40887589e+02
284             	3.40886734e+02
285             	3.40882679e+02
286             	3.40883787e+02
287             	3.40888125e+02
288             	3.40893828e+02
289             	3.40899860e+02
290             	3.40904401e+02
291             	3.40907759e+02
292             	3.40911297e+02
293             	3.40913997e+02
294             	3.40914537e+02
295             	3.40913134e+02
296             	3.40909700e+02
297             	3.40904784e+02
298             	3.40899017e+02
299             	3.40893103e+02
300             	3.40886470e+02
301             	3.40881023e+02
302             	3.40877311e+02
303             	3.40875702e+02
304             	3.40876373e+02
305             	3.40879275e+02
306             	3.40882168e+02
307             	3.40887495e+02
308             	3.40894276e+02
309             	3.40901325e+02
310             	3.40907486e+02
311             	3.40912086e+02
312             	3.40914566e+02
313             	3.40915491e+02
314             	3.40915225e+02
315             	3.40914332e+02
316             	3.40910824e+02
317             	3.40904364e+02
318             	3.40895627e+02
319             	3.40885485e+02
320             	3.40874430e+02
321             	3.40862067e+02
322             	3.40851977e+02
323             	3.40842815e+02
324             	3.40836136e+02
325             	3.40831546e+02
326             	3.40828883e+02
327             	3.40828022e+02
328             	3.40828749e+02
329             	3.40830907e+02
330             	3.40834536e+02
331             	3.40836338e+02
332             	3.40837775e+02
333             	3.40840054e+02
334             	3.40841520e+02
335             	3.40842074e+02
336             	3.40842344e+02
337             	3.40842035e+02
338             	3.40840832e+02
339             	3.40838001e+02
340             	3.40834921e+02
341             	3.40831399e+02
342             	3.40827010e+02
343             	3.40821247e+02
344             	3.40816479e+02
345             	3.40812237e+02
346             	3.40801724e+02
347             	3.40795365e+02
348             	3.40791850e+02
349             	3.40789412e+02
350             	3.40787963e+02
351             	3.40788737e+02
352             	3.40789624e+02
353             	3.40789164e+02
354             	3.40785521e+02
355             	3.40781326e+02
356             	3.40775964e+02
357             	3.40769969e+02
358             	3.40764182e+02
359             	3.40755932e+02
360             	3.40750523e+02
361             	3.40747791e+02
362             	3.40747245e+02
363             	3.40748730e+02
364             	3.40747124e+02
365             	3.40750906e+02
366             	3.40758254e+02
367             	3.40768339e+02
368             	3.40776762e+02
369             	3.40783191e+02
370             	3.40787430e+02
371             	3.40788788e+02
372             	3.40787169e+02
373             	3.40785949e+02
374             	3.40778922e+02
375             	3.40770672e+02
376             	3.40762379e+02
377             	3.40754631e+02
378             	3.40747660e+02
379             	3.40741804e+02
380             	3.40737021e+02
381             	3.40734407e+02
382             	3.40733996e+02
383             	3.40734818e+02
384             	3.40736650e+02
385             	3.40739902e+02
386             	3.40744060e+02
387             	3.40747982e+02
388             	3.40751381e+02
389             	3.40753119e+02
390             	3.40752825e+02
391             	3.40750245e+02
392             	3.40744753e+02
393             	3.40737571e+02
394             	3.40728857e+02
395             	3.40718718e+02
396             	3.40708100e+02
397             	3.40697716e+02
398             	3.40687777e+02
399             	3.40678286e+02
400             	3.40671048e+02
401             	3.40665721e+02
402             	3.40662681e+02
403             	3.40661907e+02
404             	3.40665794e+02
405             	3.40672844e+02
406             	3.40681881e+02
407             	3.40691624e+02
408             	3.40700868e+02
409             	3.40709137e+02
410             	3.40718495e+02
411             	3.40723306e+02
412             	3.40725887e+02
413             	3.40727492e+02
414             	3.40728107e+02
415             	3.40727484e+02
416             	3.40725520e+02
417             	3.40722325e+02
418             	3.40717951e+02
419             	3.40712402e+02
420             	3.40703967e+02
421             	3.40695107e+02
422             	3.40687694e+02
423             	3.40681063e+02
424             	3.40675114e+02
425             	3.40669861e+02
426             	3.40665434e+02
427             	3.40662248e+02
428             	3.40662613e+02
429             	3.40660976e+02
430             	3.40659694e+02
431             	3.40660179e+02
432             	3.40662427e+02
433             	3.40665786e+02
434             	3.40669539e+02
435             	3.40673210e+02
436             	3.40676631e+02
437             	3.40679752e+02
438             	3.40682500e+02
439             	3.40684912e+02
440             	3.40687067e+02
441             	3.40689014e+02
442             	3.40690913e+02
443             	3.40692985e+02
444             	3.40695420e+02
445             	3.40698414e+02
446             	3.40702039e+02
447             	3.40706301e+02
448             	3.40711132e+02
449             	3.40716431e+02
450             	3.40722050e+02
451             	3.40727718e+02
452             	3.40733280e+02
453             	3.40738626e+02
454             	3.40743709e+02
455             	3.40748529e+02
456             	3.40753138e+02
457             	3.40757636e+02
458             	3.40762162e+02
459             	3.40764092e+02
460             	3.40767974e+02
461             	3.40773385e+02
462             	3.40779790e+02
463             	3.40786317e+02
464             	3.40792116e+02
465             	3.40797316e+02
466             	3.40802050e+02
467             	3.40806348e+02
468             	3.40810196e+02
469             	3.40813573e+02
470             	3.40816400e+02
471             	3.40818612e+02
472             	3.40820165e+02
473             	3.40820974e+02
474             	3.40820915e+02
475             	3.40819862e+02
476             	3.40817678e+02
477             	3.40814271e+02
478             	3.40809590e+02
479             	3.40803600e+02
480             	3.40796474e+02
481             	3.40788404e+02
482             	3.40779630e+02
483             	3.40770381e+02
484             	3.40760876e+02
485             	3.40751302e+02
486             	3.40741900e+02
487             	3.40732755e+02
488             	3.40724069e+02
489             	3.40715890e+02
490             	3.40708267e+02
491             	3.40701218e+02
492             	3.40694710e+02
493             	3.40688795e+02
494             	3.40683476e+02
495             	3.40678825e+02
496             	3.40674897e+02
497             	3.40671878e+02
498             	3.40669836e+02
499             	3.40668977e+02
500             	3.40669420e+02
501             	3.40671207e+02
502             	3.40674358e+02
503             	3.40678830e+02
504             	3.40684541e+02
505             	3.40691350e+02
506             	3.40699100e+02
507             	3.40707574e+02
508             	3.40716534e+02
509             	3.40725730e+02
510             	3.40734918e+02
511             	3.40743836e+02
512             	3.40752284e+02
513             	3.40760023e+02
514             	3.40766868e+02
515             	3.40772656e+02
516             	3.40777284e+02
517             	3.40780591e+02
518             	3.40782469e+02
519             	3.40782825e+02
520             	3.40781640e+02
521             	3.40778957e+02
522             	3.40774892e+02
523             	3.40769587e+02
524             	3.40763227e+02
525             	3.40756039e+02
526             	3.40748282e+02
527             	3.40740211e+02
528             	3.40732143e+02
529             	3.40724252e+02
530             	3.40716616e+02
531             	3.40709370e+02
532             	3.40702564e+02
533             	3.40695055e+02
534             	3.40689557e+02
535             	3.40685653e+02
536             	3.40683087e+02
537             	3.40681309e+02
538             	3.40680195e+02
539             	3.40679745e+02
540             	3.40680060e+02
541             	3.40681232e+02
542             	3.40683295e+02
543             	3.40686162e+02
544             	3.40689760e+02
545             	3.40694003e+02
546             	3.40698744e+02
547             	3.40703796e+02
548             	3.40708943e+02
549             	3.40713943e+02
550             	3.40718567e+02
551             	3.40722546e+02
552             	3.40725726e+02
553             	3.40727929e+02
554             	3.40729086e+02
555             	3.40729190e+02
556             	3.40728295e+02
557             	3.40726525e+02
558             	3.40724027e+02
559             	3.40720983e+02
560             	3.40717571e+02
561             	3.40713942e+02
562             	3.40710265e+02
563             	3.40706671e+02
564             	3.40703279e+02
565             	3.40700180e+02
566             	3.40697458e+02
567             	3.40695170e+02
568             	3.40693365e+02
569             	3.40692060e+02
570             	3.40691269e+02
571             	3.40691012e+02
572             	3.40691110e+02
573             	3.40691997e+02
574             	3.40693597e+02
575             	3.40695830e+02
576             	3.40698737e+02
577             	3.40702372e+02
578             	3.40706755e+02
579             	3.40711863e+02
580             	3.40717651e+02
581             	3.40724045e+02
582             	3.40730942e+02
583             	3.40738207e+02
584             	3.40745698e+02
585             	3.40753243e+02
586             	3.40760704e+02
587             	3.40767935e+02
588             	3.40774820e+02
589             	3.40781158e+02
590             	3.40786909e+02
591             	3.40791975e+02
592             	3.40796288e+02
593             	3.40799757e+02
594             	3.40802315e+02
595             	3.40804033e+02
596             	3.40804955e+02
597             	3.40805198e+02
598             	3.40804906e+02
599             	3.40804217e+02
600             	3.40803271e+02
601             	3.40802198e+02
602             	3.40801123e+02
603             	3.40800148e+02
604             	3.40799345e+02
605             	3.40798793e+02
606             	3.40798536e+02
607             	3.40798666e+02
608             	3.40798306e+02
609             	3.40799296e+02
610             	3.40801545e+02
611             	3.40804810e+02
612             	3.40808913e+02
613             	3.40813714e+02
614             	3.40819078e+02
615             	3.40824927e+02
616             	3.40831170e+02
617             	3.40837697e+02
618             	3.40844370e+02
619             	3.40851051e+02
620             	3.40857654e+02
621             	3.40864079e+02
