# Region        : cellZone component_3
# Cells         : 272
# Volume        : 5.27134487e-01
# Time          	volAverage(T)
1               	3.00144861e+02
2               	3.00288427e+02
3               	3.00423345e+02
4               	3.00552957e+02
5               	3.00680057e+02
6               	3.00805296e+02
7               	3.00928969e+02
8               	3.01051538e+02
9               	3.01173491e+02
10              	3.01294628e+02
11              	3.01414413e+02
12              	3.01532859e+02
13              	3.01650621e+02
14              	3.01767375e+02
15              	3.01881784e+02
16              	3.01993508e+02
17              	3.02104361e+02
18              	3.02213721e+02
19              	3.02322040e+02
20              	3.02430807e+02
21              	3.02538520e+02
22              	3.02644818e+02
23              	3.02749087e+02
24              	3.02852349e+02
25              	3.02954501e+02
26              	3.03054466e+02
27              	3.03153711e+02
28              	3.03251675e+02
29              	3.03348693e+02
30              	3.03444684e+02
31              	3.03539868e+02
32              	3.03634125e+02
33              	3.03727440e+02
34              	3.03819994e+02
35              	3.03913160e+02
36              	3.04006962e+02
37              	3.04099632e+02
38              	3.04188624e+02
39              	3.04273243e+02
40              	3.04356767e+02
41              	3.04441323e+02
42              	3.04524417e+02
43              	3.04605618e+02
44              	3.04685623e+02
45              	3.04764764e+02
46              	3.04843111e+02
47              	3.04920981e+02
48              	3.04998512e+02
49              	3.05076219e+02
50              	3.05153723e+02
51              	3.05230868e+02
52              	3.05307499e+02
53              	3.05383179e+02
54              	3.05456554e+02
55              	3.05529199e+02
56              	3.05601550e+02
57              	3.05673438e+02
58              	3.05745433e+02
59              	3.05818269e+02
60              	3.05891983e+02
61              	3.05963103e+02
62              	3.06033193e+02
63              	3.06101299e+02
64              	3.06166964e+02
65              	3.06230606e+02
66              	3.06291922e+02
67              	3.06351610e+02
68              	3.06410270e+02
69              	3.06468154e+02
70              	3.06524702e+02
71              	3.06582178e+02
72              	3.06639097e+02
73              	3.06696893e+02
74              	3.06754679e+02
75              	3.06812527e+02
76              	3.06870214e+02
77              	3.06927781e+02
78              	3.06985145e+02
79              	3.07042412e+02
80              	3.07099074e+02
81              	3.07154164e+02
82              	3.07206980e+02
83              	3.07258959e+02
84              	3.07308972e+02
85              	3.07357734e+02
86              	3.07405214e+02
87              	3.07451367e+02
88              	3.07496688e+02
89              	3.07541989e+02
90              	3.07587422e+02
91              	3.07632843e+02
92              	3.07677378e+02
93              	3.07722755e+02
94              	3.07768386e+02
95              	3.07814007e+02
96              	3.07859403e+02
97              	3.07903653e+02
98              	3.07946062e+02
99              	3.07987524e+02
100             	3.08027758e+02
101             	3.08066781e+02
102             	3.08104506e+02
103             	3.08141515e+02
104             	3.08177245e+02
105             	3.08211476e+02
106             	3.08245662e+02
107             	3.08279135e+02
108             	3.08312956e+02
109             	3.08347513e+02
110             	3.08382643e+02
111             	3.08417799e+02
112             	3.08453540e+02
113             	3.08489146e+02
114             	3.08524857e+02
115             	3.08559079e+02
116             	3.08593144e+02
117             	3.08626500e+02
118             	3.08659025e+02
119             	3.08690884e+02
120             	3.08721756e+02
121             	3.08750195e+02
122             	3.08778685e+02
123             	3.08806761e+02
124             	3.08834080e+02
125             	3.08860676e+02
126             	3.08886607e+02
127             	3.08911745e+02
128             	3.08935920e+02
129             	3.08960474e+02
130             	3.08985075e+02
131             	3.09009768e+02
132             	3.09034887e+02
133             	3.09060297e+02
134             	3.09085284e+02
135             	3.09110862e+02
136             	3.09136764e+02
137             	3.09162267e+02
138             	3.09187129e+02
139             	3.09210142e+02
140             	3.09233157e+02
141             	3.09255963e+02
142             	3.09278148e+02
143             	3.09299730e+02
144             	3.09320491e+02
145             	3.09340522e+02
146             	3.09360624e+02
147             	3.09381413e+02
148             	3.09403116e+02
149             	3.09424340e+02
150             	3.09446521e+02
151             	3.09469218e+02
152             	3.09492020e+02
153             	3.09513386e+02
154             	3.09534259e+02
155             	3.09555460e+02
156             	3.09576073e+02
157             	3.09595776e+02
158             	3.09614726e+02
159             	3.09632878e+02
160             	3.09650523e+02
161             	3.09668041e+02
162             	3.09684282e+02
163             	3.09700869e+02
164             	3.09717637e+02
165             	3.09734052e+02
166             	3.09750495e+02
167             	3.09767059e+02
168             	3.09783500e+02
169             	3.09799858e+02
170             	3.09816235e+02
171             	3.09832479e+02
172             	3.09848497e+02
173             	3.09864271e+02
174             	3.09879727e+02
175             	3.09895039e+02
176             	3.09910186e+02
177             	3.09924965e+02
178             	3.09939507e+02
179             	3.09953736e+02
180             	3.09967528e+02
181             	3.09980588e+02
182             	3.09993008e+02
183             	3.10005688e+02
184             	3.10018184e+02
185             	3.10030398e+02
186             	3.10042379e+02
187             	3.10054195e+02
188             	3.10065250e+02
189             	3.10076718e+02
190             	3.10088292e+02
191             	3.10100024e+02
192             	3.10111537e+02
193             	3.10123082e+02
194             	3.10134923e+02
195             	3.10146492e+02
196             	3.10157915e+02
197             	3.10169218e+02
198             	3.10180295e+02
199             	3.10191041e+02
200             	3.10201862e+02
201             	3.10212420e+02
202             	3.10223453e+02
203             	3.10234700e+02
204             	3.10246260e+02
205             	3.10257444e+02
206             	3.10269156e+02
207             	3.10280965e+02
208             	3.10290922e+02
209             	3.10301542e+02
210             	3.10311476e+02
211             	3.10320971e+02
212             	3.10330076e+02
213             	3.10339197e+02
214             	3.10347309e+02
215             	3.10355785e+02
216             	3.10364739e+02
217             	3.10373801e+02
218             	3.10382936e+02
219             	3.10391370e+02
220             	3.10400203e+02
221             	3.10409150e+02
222             	3.10417425e+02
223             	3.10425259e+02
224             	3.10432651e+02
225             	3.10438909e+02
226             	3.10445547e+02
227             	3.10451917e+02
228             	3.10458728e+02
229             	3.10466018e+02
230             	3.10473624e+02
231             	3.10480309e+02
232             	3.10487372e+02
233             	3.10494751e+02
234             	3.10501938e+02
235             	3.10508825e+02
236             	3.10514721e+02
237             	3.10520881e+02
238             	3.10526744e+02
239             	3.10532849e+02
240             	3.10538562e+02
241             	3.10544791e+02
242             	3.10551328e+02
243             	3.10558213e+02
244             	3.10565440e+02
245             	3.10571772e+02
246             	3.10578244e+02
247             	3.10584426e+02
248             	3.10590131e+02
249             	3.10595495e+02
250             	3.10600214e+02
251             	3.10604671e+02
252             	3.10609414e+02
253             	3.10614426e+02
254             	3.10619608e+02
255             	3.10624942e+02
256             	3.10630364e+02
257             	3.10635842e+02
258             	3.10641300e+02
259             	3.10646750e+02
260             	3.10652163e+02
261             	3.10656958e+02
262             	3.10661836e+02
263             	3.10666730e+02
264             	3.10671718e+02
265             	3.10676746e+02
266             	3.10681599e+02
267             	3.10686459e+02
268             	3.10691393e+02
269             	3.10696276e+02
270             	3.10701153e+02
271             	3.10705873e+02
272             	3.10710526e+02
273             	3.10715225e+02
274             	3.10719874e+02
275             	3.10724437e+02
276             	3.10728936e+02
277             	3.10733365e+02
278             	3.10737734e+02
279             	3.10742051e+02
280             	3.10746313e+02
281             	3.10750521e+02
282             	3.10754656e+02
283             	3.10758738e+02
284             	3.10762774e+02
285             	3.10766766e+02
286             	3.10770721e+02
287             	3.10774645e+02
288             	3.10778543e+02
289             	3.10782413e+02
290             	3.10786233e+02
291             	3.10790023e+02
292             	3.10793790e+02
293             	3.10797522e+02
294             	3.10801245e+02
295             	3.10804969e+02
296             	3.10808696e+02
297             	3.10812500e+02
298             	3.10816263e+02
299             	3.10820066e+02
300             	3.10823935e+02
301             	3.10827831e+02
302             	3.10831718e+02
303             	3.10835612e+02
304             	3.10839289e+02
305             	3.10843026e+02
306             	3.10846743e+02
307             	3.10850393e+02
308             	3.10853964e+02
309             	3.10857482e+02
310             	3.10861009e+02
311             	3.10864419e+02
312             	3.10867907e+02
313             	3.10871389e+02
314             	3.10874924e+02
315             	3.10878468e+02
316             	3.10882019e+02
317             	3.10885692e+02
318             	3.10889419e+02
319             	3.10893100e+02
320             	3.10896713e+02
321             	3.10900263e+02
322             	3.10903724e+02
323             	3.10907096e+02
324             	3.10910422e+02
325             	3.10913719e+02
326             	3.10916968e+02
327             	3.10920157e+02
328             	3.10923292e+02
329             	3.10926377e+02
330             	3.10929440e+02
331             	3.10932513e+02
332             	3.10935499e+02
333             	3.10938478e+02
334             	3.10941468e+02
335             	3.10944455e+02
336             	3.10947427e+02
337             	3.10950379e+02
338             	3.10953279e+02
339             	3.10956150e+02
340             	3.10958964e+02
341             	3.10961427e+02
342             	3.10963911e+02
343             	3.10966349e+02
344             	3.10968748e+02
345             	3.10971048e+02
346             	3.10973118e+02
347             	3.10975127e+02
348             	3.10977143e+02
349             	3.10979210e+02
350             	3.10981315e+02
351             	3.10983458e+02
352             	3.10985671e+02
353             	3.10987930e+02
354             	3.10990137e+02
355             	3.10992369e+02
356             	3.10994457e+02
357             	3.10996661e+02
358             	3.10998923e+02
359             	3.11001182e+02
360             	3.11003400e+02
361             	3.11005564e+02
362             	3.11007682e+02
363             	3.11009765e+02
364             	3.11011817e+02
365             	3.11013831e+02
366             	3.11015837e+02
367             	3.11017830e+02
368             	3.11019811e+02
369             	3.11021814e+02
370             	3.11023803e+02
371             	3.11025795e+02
372             	3.11027806e+02
373             	3.11029838e+02
374             	3.11031883e+02
375             	3.11033931e+02
376             	3.11035972e+02
377             	3.11038008e+02
378             	3.11040037e+02
379             	3.11042057e+02
380             	3.11044057e+02
381             	3.11046060e+02
382             	3.11048052e+02
383             	3.11050025e+02
384             	3.11051928e+02
385             	3.11053830e+02
386             	3.11055727e+02
387             	3.11057589e+02
388             	3.11059418e+02
389             	3.11061216e+02
390             	3.11062990e+02
391             	3.11064747e+02
392             	3.11066491e+02
393             	3.11068226e+02
394             	3.11069951e+02
395             	3.11071664e+02
396             	3.11073363e+02
397             	3.11075046e+02
398             	3.11076708e+02
399             	3.11078347e+02
400             	3.11079964e+02
401             	3.11081563e+02
402             	3.11083128e+02
403             	3.11084669e+02
404             	3.11086189e+02
405             	3.11087681e+02
406             	3.11089141e+02
407             	3.11090566e+02
408             	3.11091957e+02
409             	3.11093314e+02
410             	3.11094638e+02
411             	3.11095931e+02
412             	3.11097195e+02
413             	3.11098414e+02
414             	3.11099624e+02
415             	3.11100815e+02
416             	3.11101981e+02
417             	3.11103135e+02
418             	3.11104267e+02
419             	3.11105386e+02
420             	3.11106498e+02
421             	3.11107607e+02
422             	3.11108782e+02
423             	3.11109930e+02
424             	3.11111092e+02
425             	3.11112290e+02
426             	3.11113521e+02
427             	3.11114753e+02
428             	3.11116036e+02
429             	3.11117345e+02
430             	3.11118303e+02
431             	3.11119449e+02
432             	3.11120668e+02
433             	3.11121862e+02
434             	3.11123018e+02
435             	3.11124127e+02
436             	3.11125211e+02
437             	3.11126274e+02
438             	3.11127306e+02
439             	3.11128336e+02
440             	3.11129469e+02
441             	3.11130591e+02
442             	3.11131766e+02
443             	3.11133011e+02
444             	3.11134248e+02
445             	3.11135518e+02
446             	3.11136823e+02
447             	3.11138150e+02
448             	3.11139481e+02
449             	3.11140800e+02
450             	3.11142158e+02
451             	3.11143457e+02
452             	3.11144581e+02
453             	3.11145684e+02
454             	3.11146705e+02
455             	3.11147817e+02
456             	3.11148859e+02
457             	3.11149796e+02
458             	3.11150624e+02
459             	3.11151359e+02
460             	3.11152001e+02
461             	3.11152596e+02
462             	3.11153111e+02
463             	3.11153588e+02
464             	3.11154041e+02
465             	3.11154487e+02
466             	3.11154966e+02
467             	3.11155452e+02
468             	3.11155949e+02
469             	3.11156446e+02
470             	3.11156933e+02
471             	3.11157407e+02
472             	3.11158020e+02
473             	3.11158530e+02
474             	3.11159071e+02
475             	3.11159683e+02
476             	3.11160433e+02
477             	3.11161297e+02
478             	3.11162042e+02
479             	3.11162665e+02
480             	3.11163274e+02
481             	3.11163996e+02
482             	3.11164637e+02
483             	3.11165169e+02
484             	3.11165593e+02
485             	3.11165963e+02
486             	3.11166228e+02
487             	3.11166500e+02
488             	3.11166744e+02
489             	3.11167080e+02
490             	3.11167458e+02
491             	3.11167937e+02
492             	3.11168541e+02
493             	3.11169104e+02
494             	3.11169659e+02
495             	3.11170287e+02
496             	3.11170993e+02
497             	3.11171757e+02
498             	3.11172541e+02
499             	3.11173324e+02
500             	3.11174289e+02
501             	3.11175153e+02
502             	3.11176036e+02
503             	3.11176488e+02
504             	3.11176948e+02
505             	3.11177669e+02
506             	3.11178405e+02
507             	3.11179022e+02
508             	3.11178998e+02
509             	3.11179020e+02
510             	3.11179058e+02
511             	3.11179212e+02
512             	3.11179566e+02
513             	3.11179703e+02
514             	3.11179517e+02
515             	3.11179628e+02
516             	3.11180027e+02
517             	3.11180516e+02
518             	3.11181229e+02
519             	3.11182183e+02
520             	3.11183200e+02
521             	3.11183636e+02
522             	3.11184599e+02
523             	3.11185697e+02
524             	3.11186749e+02
525             	3.11187578e+02
526             	3.11187777e+02
527             	3.11188045e+02
528             	3.11188275e+02
529             	3.11188368e+02
530             	3.11188282e+02
531             	3.11188062e+02
532             	3.11188070e+02
533             	3.11188036e+02
534             	3.11187877e+02
535             	3.11188288e+02
536             	3.11188957e+02
537             	3.11190006e+02
538             	3.11191379e+02
539             	3.11192818e+02
540             	3.11193669e+02
541             	3.11194955e+02
542             	3.11195806e+02
543             	3.11196871e+02
544             	3.11197722e+02
545             	3.11198275e+02
546             	3.11198692e+02
547             	3.11198928e+02
548             	3.11199091e+02
549             	3.11198772e+02
550             	3.11198790e+02
551             	3.11198939e+02
552             	3.11199559e+02
553             	3.11200539e+02
554             	3.11201773e+02
555             	3.11203151e+02
556             	3.11204080e+02
557             	3.11205080e+02
558             	3.11206198e+02
559             	3.11207324e+02
560             	3.11208386e+02
561             	3.11209119e+02
562             	3.11209752e+02
563             	3.11210342e+02
564             	3.11210932e+02
565             	3.11211504e+02
566             	3.11212053e+02
567             	3.11212603e+02
568             	3.11213148e+02
569             	3.11213678e+02
570             	3.11214031e+02
571             	3.11214433e+02
572             	3.11214819e+02
573             	3.11215142e+02
574             	3.11215304e+02
575             	3.11215515e+02
576             	3.11215681e+02
577             	3.11215804e+02
578             	3.11215896e+02
579             	3.11216058e+02
580             	3.11216218e+02
581             	3.11216340e+02
582             	3.11216610e+02
583             	3.11216905e+02
584             	3.11217295e+02
585             	3.11217790e+02
586             	3.11218363e+02
587             	3.11218984e+02
588             	3.11219626e+02
589             	3.11220282e+02
590             	3.11220964e+02
591             	3.11221627e+02
592             	3.11222261e+02
593             	3.11222885e+02
594             	3.11223456e+02
595             	3.11224045e+02
596             	3.11224583e+02
597             	3.11224835e+02
598             	3.11225181e+02
599             	3.11225557e+02
600             	3.11225920e+02
601             	3.11226260e+02
602             	3.11226590e+02
603             	3.11226911e+02
604             	3.11227257e+02
605             	3.11227575e+02
606             	3.11227912e+02
607             	3.11228286e+02
608             	3.11228690e+02
609             	3.11229134e+02
610             	3.11229600e+02
611             	3.11230075e+02
612             	3.11230538e+02
613             	3.11230937e+02
614             	3.11231383e+02
615             	3.11231835e+02
616             	3.11232271e+02
617             	3.11232903e+02
618             	3.11233352e+02
619             	3.11233834e+02
620             	3.11234417e+02
621             	3.11235064e+02
