# Region        : cellZone pcb
# Cells         : 639
# Volume        : 1.20780859e+00
# Time          	volAverage(T)
1               	3.00010853e+02
2               	3.00031376e+02
3               	3.00060477e+02
4               	3.00096625e+02
5               	3.00137153e+02
6               	3.00183148e+02
7               	3.00235278e+02
8               	3.00292028e+02
9               	3.00354744e+02
10              	3.00422955e+02
11              	3.00494869e+02
12              	3.00571065e+02
13              	3.00652443e+02
14              	3.00737285e+02
15              	3.00827144e+02
16              	3.00919268e+02
17              	3.01014485e+02
18              	3.01107478e+02
19              	3.01202640e+02
20              	3.01298581e+02
21              	3.01397561e+02
22              	3.01501765e+02
23              	3.01605110e+02
24              	3.01714760e+02
25              	3.01822730e+02
26              	3.01927480e+02
27              	3.02037752e+02
28              	3.02149787e+02
29              	3.02266577e+02
30              	3.02386554e+02
31              	3.02502183e+02
32              	3.02614354e+02
33              	3.02724727e+02
34              	3.02834282e+02
35              	3.02942140e+02
36              	3.03051540e+02
37              	3.03162708e+02
38              	3.03272363e+02
39              	3.03389240e+02
40              	3.03507685e+02
41              	3.03622014e+02
42              	3.03735790e+02
43              	3.03851742e+02
44              	3.03969208e+02
45              	3.04084131e+02
46              	3.04197059e+02
47              	3.04307181e+02
48              	3.04412873e+02
49              	3.04518108e+02
50              	3.04625829e+02
51              	3.04727578e+02
52              	3.04833392e+02
53              	3.04947553e+02
54              	3.05053118e+02
55              	3.05154690e+02
56              	3.05253012e+02
57              	3.05354434e+02
58              	3.05460649e+02
59              	3.05566748e+02
60              	3.05669645e+02
61              	3.05769095e+02
62              	3.05866026e+02
63              	3.05963964e+02
64              	3.06062877e+02
65              	3.06161423e+02
66              	3.06257472e+02
67              	3.06353618e+02
68              	3.06449106e+02
69              	3.06554900e+02
70              	3.06659847e+02
71              	3.06760482e+02
72              	3.06868448e+02
73              	3.06978866e+02
74              	3.07082090e+02
75              	3.07177029e+02
76              	3.07268889e+02
77              	3.07358531e+02
78              	3.07448794e+02
79              	3.07541334e+02
80              	3.07635681e+02
81              	3.07724542e+02
82              	3.07813575e+02
83              	3.07907136e+02
84              	3.08005778e+02
85              	3.08101888e+02
86              	3.08198373e+02
87              	3.08295056e+02
88              	3.08388867e+02
89              	3.08477856e+02
90              	3.08562382e+02
91              	3.08642441e+02
92              	3.08723412e+02
93              	3.08809358e+02
94              	3.08891253e+02
95              	3.08976432e+02
96              	3.09063222e+02
97              	3.09157221e+02
98              	3.09248481e+02
99              	3.09335022e+02
100             	3.09427241e+02
101             	3.09517551e+02
102             	3.09602071e+02
103             	3.09684319e+02
104             	3.09762159e+02
105             	3.09841864e+02
106             	3.09919029e+02
107             	3.09997282e+02
108             	3.10082094e+02
109             	3.10167725e+02
110             	3.10252554e+02
111             	3.10335208e+02
112             	3.10420778e+02
113             	3.10506805e+02
114             	3.10583461e+02
115             	3.10655560e+02
116             	3.10728985e+02
117             	3.10803250e+02
118             	3.10873942e+02
119             	3.10940103e+02
120             	3.11002764e+02
121             	3.11066491e+02
122             	3.11132819e+02
123             	3.11198428e+02
124             	3.11269799e+02
125             	3.11339181e+02
126             	3.11406014e+02
127             	3.11473271e+02
128             	3.11542323e+02
129             	3.11613913e+02
130             	3.11686345e+02
131             	3.11757429e+02
132             	3.11828069e+02
133             	3.11899559e+02
134             	3.11973948e+02
135             	3.12046679e+02
136             	3.12115333e+02
137             	3.12178731e+02
138             	3.12240934e+02
139             	3.12307468e+02
140             	3.12376459e+02
141             	3.12443353e+02
142             	3.12507463e+02
143             	3.12573384e+02
144             	3.12634216e+02
145             	3.12692599e+02
146             	3.12754355e+02
147             	3.12817226e+02
148             	3.12881399e+02
149             	3.12946558e+02
150             	3.13011203e+02
151             	3.13074567e+02
152             	3.13136535e+02
153             	3.13192084e+02
154             	3.13247132e+02
155             	3.13300257e+02
156             	3.13349573e+02
157             	3.13402231e+02
158             	3.13453199e+02
159             	3.13503646e+02
160             	3.13555758e+02
161             	3.13609400e+02
162             	3.13666398e+02
163             	3.13726844e+02
164             	3.13788050e+02
165             	3.13850184e+02
166             	3.13903800e+02
167             	3.13956217e+02
168             	3.14006632e+02
169             	3.14048820e+02
170             	3.14095774e+02
171             	3.14142929e+02
172             	3.14189321e+02
173             	3.14236725e+02
174             	3.14283327e+02
175             	3.14335509e+02
176             	3.14395083e+02
177             	3.14452600e+02
178             	3.14504737e+02
179             	3.14551610e+02
180             	3.14596677e+02
181             	3.14642444e+02
182             	3.14685639e+02
183             	3.14723068e+02
184             	3.14764555e+02
185             	3.14805057e+02
186             	3.14845516e+02
187             	3.14886643e+02
188             	3.14928844e+02
189             	3.14978693e+02
190             	3.15030958e+02
191             	3.15078957e+02
192             	3.15124575e+02
193             	3.15166808e+02
194             	3.15207616e+02
195             	3.15244148e+02
196             	3.15278314e+02
197             	3.15310317e+02
198             	3.15343698e+02
199             	3.15378577e+02
200             	3.15415189e+02
201             	3.15452026e+02
202             	3.15493049e+02
203             	3.15537089e+02
204             	3.15579759e+02
205             	3.15621412e+02
206             	3.15660808e+02
207             	3.15697653e+02
208             	3.15731282e+02
209             	3.15761308e+02
210             	3.15790239e+02
211             	3.15819792e+02
212             	3.15851039e+02
213             	3.15883716e+02
214             	3.15917081e+02
215             	3.15952630e+02
216             	3.15990000e+02
217             	3.16029219e+02
218             	3.16068717e+02
219             	3.16103658e+02
220             	3.16135224e+02
221             	3.16165376e+02
222             	3.16193439e+02
223             	3.16221065e+02
224             	3.16248345e+02
225             	3.16275800e+02
226             	3.16304124e+02
227             	3.16332702e+02
228             	3.16361496e+02
229             	3.16392708e+02
230             	3.16425855e+02
231             	3.16458611e+02
232             	3.16489857e+02
233             	3.16518786e+02
234             	3.16545873e+02
235             	3.16573142e+02
236             	3.16598549e+02
237             	3.16622460e+02
238             	3.16646581e+02
239             	3.16671138e+02
240             	3.16696200e+02
241             	3.16721881e+02
242             	3.16748064e+02
243             	3.16774244e+02
244             	3.16799402e+02
245             	3.16824049e+02
246             	3.16849032e+02
247             	3.16874049e+02
248             	3.16899095e+02
249             	3.16923955e+02
250             	3.16948685e+02
251             	3.16973956e+02
252             	3.16999959e+02
253             	3.17024775e+02
254             	3.17046941e+02
255             	3.17068135e+02
256             	3.17089679e+02
257             	3.17110992e+02
258             	3.17132660e+02
259             	3.17154550e+02
260             	3.17176752e+02
261             	3.17199534e+02
262             	3.17222824e+02
263             	3.17246178e+02
264             	3.17269859e+02
265             	3.17293660e+02
266             	3.17316113e+02
267             	3.17336363e+02
268             	3.17355266e+02
269             	3.17373922e+02
270             	3.17392395e+02
271             	3.17411154e+02
272             	3.17430258e+02
273             	3.17449606e+02
274             	3.17469493e+02
275             	3.17490538e+02
276             	3.17512302e+02
277             	3.17534626e+02
278             	3.17556103e+02
279             	3.17576026e+02
280             	3.17594147e+02
281             	3.17610476e+02
282             	3.17626341e+02
283             	3.17642218e+02
284             	3.17658413e+02
285             	3.17674946e+02
286             	3.17691698e+02
287             	3.17709325e+02
288             	3.17728780e+02
289             	3.17748648e+02
290             	3.17768148e+02
291             	3.17787270e+02
292             	3.17805102e+02
293             	3.17821747e+02
294             	3.17836374e+02
295             	3.17849884e+02
296             	3.17863560e+02
297             	3.17877389e+02
298             	3.17891580e+02
299             	3.17906226e+02
300             	3.17921544e+02
301             	3.17938045e+02
302             	3.17955566e+02
303             	3.17972951e+02
304             	3.17990369e+02
305             	3.18007295e+02
306             	3.18022699e+02
307             	3.18035976e+02
308             	3.18047996e+02
309             	3.18059939e+02
310             	3.18072109e+02
311             	3.18084459e+02
312             	3.18097005e+02
313             	3.18109980e+02
314             	3.18123618e+02
315             	3.18138354e+02
316             	3.18153861e+02
317             	3.18168978e+02
318             	3.18184049e+02
319             	3.18198809e+02
320             	3.18212338e+02
321             	3.18223680e+02
322             	3.18234013e+02
323             	3.18244527e+02
324             	3.18255579e+02
325             	3.18266748e+02
326             	3.18277906e+02
327             	3.18289529e+02
328             	3.18301892e+02
329             	3.18314883e+02
330             	3.18328213e+02
331             	3.18341352e+02
332             	3.18354088e+02
333             	3.18366594e+02
334             	3.18377442e+02
335             	3.18386990e+02
336             	3.18396320e+02
337             	3.18405776e+02
338             	3.18415579e+02
339             	3.18425628e+02
340             	3.18435795e+02
341             	3.18445956e+02
342             	3.18456089e+02
343             	3.18466495e+02
344             	3.18477750e+02
345             	3.18488905e+02
346             	3.18499579e+02
347             	3.18509791e+02
348             	3.18519819e+02
349             	3.18530168e+02
350             	3.18540303e+02
351             	3.18549416e+02
352             	3.18558021e+02
353             	3.18566711e+02
354             	3.18575165e+02
355             	3.18583582e+02
356             	3.18592490e+02
357             	3.18602026e+02
358             	3.18611634e+02
359             	3.18621237e+02
360             	3.18631520e+02
361             	3.18641453e+02
362             	3.18650490e+02
363             	3.18658637e+02
364             	3.18666265e+02
365             	3.18673821e+02
366             	3.18681438e+02
367             	3.18689137e+02
368             	3.18696955e+02
369             	3.18704826e+02
370             	3.18713040e+02
371             	3.18721655e+02
372             	3.18730465e+02
373             	3.18739243e+02
374             	3.18748569e+02
375             	3.18757813e+02
376             	3.18765524e+02
377             	3.18772066e+02
378             	3.18778410e+02
379             	3.18784844e+02
380             	3.18791104e+02
381             	3.18797550e+02
382             	3.18804530e+02
383             	3.18811937e+02
384             	3.18819587e+02
385             	3.18827356e+02
386             	3.18835985e+02
387             	3.18844601e+02
388             	3.18852502e+02
389             	3.18859004e+02
390             	3.18864709e+02
391             	3.18870381e+02
392             	3.18876077e+02
393             	3.18881692e+02
394             	3.18887470e+02
395             	3.18893580e+02
396             	3.18900058e+02
397             	3.18906880e+02
398             	3.18913901e+02
399             	3.18921796e+02
400             	3.18929856e+02
401             	3.18937164e+02
402             	3.18943002e+02
403             	3.18947928e+02
404             	3.18952639e+02
405             	3.18957190e+02
406             	3.18961965e+02
407             	3.18967186e+02
408             	3.18972740e+02
409             	3.18978660e+02
410             	3.18984996e+02
411             	3.18992442e+02
412             	3.18999822e+02
413             	3.19006253e+02
414             	3.19011498e+02
415             	3.19015929e+02
416             	3.19020102e+02
417             	3.19024291e+02
418             	3.19028517e+02
419             	3.19032805e+02
420             	3.19037481e+02
421             	3.19042589e+02
422             	3.19048096e+02
423             	3.19053916e+02
424             	3.19059819e+02
425             	3.19065596e+02
426             	3.19071657e+02
427             	3.19077161e+02
428             	3.19081264e+02
429             	3.19084785e+02
430             	3.19088405e+02
431             	3.19092254e+02
432             	3.19096103e+02
433             	3.19100128e+02
434             	3.19104542e+02
435             	3.19109368e+02
436             	3.19114454e+02
437             	3.19119586e+02
438             	3.19124786e+02
439             	3.19130508e+02
440             	3.19135757e+02
441             	3.19139541e+02
442             	3.19142688e+02
443             	3.19145900e+02
444             	3.19149125e+02
445             	3.19152350e+02
446             	3.19155732e+02
447             	3.19159697e+02
448             	3.19164069e+02
449             	3.19168633e+02
450             	3.19173424e+02
451             	3.19178901e+02
452             	3.19184325e+02
453             	3.19188706e+02
454             	3.19191776e+02
455             	3.19194325e+02
456             	3.19196946e+02
457             	3.19199622e+02
458             	3.19202438e+02
459             	3.19205501e+02
460             	3.19208915e+02
461             	3.19212711e+02
462             	3.19216864e+02
463             	3.19221255e+02
464             	3.19226378e+02
465             	3.19231493e+02
466             	3.19235308e+02
467             	3.19238072e+02
468             	3.19240400e+02
469             	3.19242589e+02
470             	3.19244872e+02
471             	3.19247052e+02
472             	3.19249516e+02
473             	3.19252492e+02
474             	3.19255805e+02
475             	3.19259473e+02
476             	3.19263420e+02
477             	3.19267374e+02
478             	3.19271445e+02
479             	3.19275624e+02
480             	3.19278551e+02
481             	3.19280490e+02
482             	3.19282388e+02
483             	3.19284422e+02
484             	3.19286609e+02
485             	3.19288975e+02
486             	3.19291510e+02
487             	3.19294194e+02
488             	3.19296750e+02
489             	3.19299426e+02
490             	3.19302608e+02
491             	3.19305808e+02
492             	3.19308724e+02
493             	3.19311429e+02
494             	3.19314021e+02
495             	3.19316780e+02
496             	3.19319313e+02
497             	3.19321549e+02
498             	3.19323674e+02
499             	3.19325780e+02
500             	3.19327920e+02
501             	3.19330003e+02
502             	3.19332170e+02
503             	3.19334658e+02
504             	3.19337319e+02
505             	3.19340015e+02
506             	3.19342680e+02
507             	3.19345257e+02
508             	3.19347764e+02
509             	3.19350199e+02
510             	3.19352270e+02
511             	3.19354068e+02
512             	3.19355842e+02
513             	3.19357681e+02
514             	3.19359600e+02
515             	3.19361520e+02
516             	3.19363440e+02
517             	3.19365636e+02
518             	3.19368110e+02
519             	3.19370628e+02
520             	3.19373075e+02
521             	3.19375333e+02
522             	3.19377256e+02
523             	3.19378991e+02
524             	3.19380674e+02
525             	3.19382369e+02
526             	3.19384135e+02
527             	3.19385901e+02
528             	3.19387726e+02
529             	3.19389672e+02
530             	3.19391673e+02
531             	3.19393585e+02
532             	3.19395270e+02
533             	3.19396916e+02
534             	3.19398679e+02
535             	3.19400498e+02
536             	3.19402316e+02
537             	3.19404059e+02
538             	3.19405874e+02
539             	3.19407828e+02
540             	3.19409718e+02
541             	3.19411359e+02
542             	3.19412839e+02
543             	3.19414287e+02
544             	3.19415734e+02
545             	3.19417116e+02
546             	3.19418471e+02
547             	3.19419916e+02
548             	3.19421512e+02
549             	3.19423197e+02
550             	3.19424906e+02
551             	3.19426630e+02
552             	3.19428351e+02
553             	3.19430083e+02
554             	3.19431687e+02
555             	3.19433100e+02
556             	3.19434350e+02
557             	3.19435546e+02
558             	3.19436750e+02
559             	3.19437876e+02
560             	3.19439033e+02
561             	3.19440384e+02
562             	3.19441904e+02
563             	3.19443487e+02
564             	3.19445071e+02
565             	3.19446630e+02
566             	3.19448193e+02
567             	3.19449737e+02
568             	3.19451104e+02
569             	3.19452223e+02
570             	3.19453236e+02
571             	3.19454233e+02
572             	3.19455205e+02
573             	3.19456196e+02
574             	3.19457325e+02
575             	3.19458635e+02
576             	3.19460033e+02
577             	3.19461449e+02
578             	3.19462870e+02
579             	3.19464281e+02
580             	3.19465658e+02
581             	3.19466869e+02
582             	3.19467852e+02
583             	3.19468731e+02
584             	3.19469631e+02
585             	3.19470537e+02
586             	3.19471402e+02
587             	3.19472337e+02
588             	3.19473449e+02
589             	3.19474674e+02
590             	3.19475947e+02
591             	3.19477279e+02
592             	3.19478609e+02
593             	3.19479884e+02
594             	3.19480975e+02
595             	3.19481841e+02
596             	3.19482603e+02
597             	3.19483376e+02
598             	3.19484094e+02
599             	3.19484812e+02
600             	3.19485631e+02
601             	3.19486613e+02
602             	3.19487719e+02
603             	3.19488876e+02
604             	3.19490157e+02
605             	3.19491466e+02
606             	3.19492597e+02
607             	3.19493456e+02
608             	3.19494151e+02
609             	3.19494798e+02
610             	3.19495397e+02
611             	3.19495958e+02
612             	3.19496611e+02
613             	3.19497447e+02
614             	3.19498421e+02
615             	3.19499460e+02
616             	3.19500516e+02
617             	3.19501588e+02
618             	3.19502666e+02
619             	3.19503666e+02
620             	3.19504456e+02
621             	3.19505064e+02
