# Region        : cellZone component_3
# Cells         : 90
# Volume        : 1.51475856e-01
# Time          	volAverage(T)
1               	3.00710403e+02
2               	3.01406642e+02
3               	3.02052619e+02
4               	3.02665750e+02
5               	3.03259772e+02
6               	3.03839230e+02
7               	3.04406701e+02
8               	3.04966890e+02
9               	3.05524085e+02
10              	3.06074559e+02
11              	3.06614745e+02
12              	3.07144759e+02
13              	3.07665523e+02
14              	3.08174219e+02
15              	3.08677347e+02
16              	3.09161912e+02
17              	3.09639452e+02
18              	3.10115040e+02
19              	3.10589478e+02
20              	3.11055725e+02
21              	3.11516887e+02
22              	3.11971034e+02
23              	3.12418154e+02
24              	3.12857402e+02
25              	3.13287192e+02
26              	3.13706243e+02
27              	3.14112879e+02
28              	3.14505620e+02
29              	3.14884266e+02
30              	3.15249161e+02
31              	3.15603675e+02
32              	3.15950310e+02
33              	3.16287715e+02
34              	3.16624440e+02
35              	3.16962193e+02
36              	3.17304611e+02
37              	3.17642478e+02
38              	3.17973830e+02
39              	3.18301310e+02
40              	3.18621104e+02
41              	3.18928824e+02
42              	3.19226907e+02
43              	3.19515933e+02
44              	3.19796756e+02
45              	3.20071389e+02
46              	3.20340591e+02
47              	3.20604059e+02
48              	3.20860342e+02
49              	3.21109323e+02
50              	3.21357409e+02
51              	3.21603832e+02
52              	3.21851137e+02
53              	3.22098980e+02
54              	3.22344718e+02
55              	3.22585437e+02
56              	3.22822457e+02
57              	3.23047838e+02
58              	3.23266674e+02
59              	3.23476262e+02
60              	3.23676467e+02
61              	3.23867538e+02
62              	3.24049571e+02
63              	3.24226982e+02
64              	3.24402905e+02
65              	3.24581521e+02
66              	3.24763414e+02
67              	3.24951456e+02
68              	3.25142015e+02
69              	3.25328880e+02
70              	3.25514445e+02
71              	3.25693844e+02
72              	3.25864240e+02
73              	3.26026016e+02
74              	3.26177081e+02
75              	3.26320737e+02
76              	3.26459397e+02
77              	3.26595920e+02
78              	3.26730105e+02
79              	3.26864315e+02
80              	3.26999114e+02
81              	3.27135341e+02
82              	3.27271336e+02
83              	3.27405965e+02
84              	3.27536583e+02
85              	3.27662132e+02
86              	3.27780020e+02
87              	3.27892894e+02
88              	3.28003518e+02
89              	3.28109280e+02
90              	3.28213868e+02
91              	3.28317537e+02
92              	3.28421502e+02
93              	3.28527487e+02
94              	3.28633315e+02
95              	3.28739195e+02
96              	3.28844061e+02
97              	3.28943931e+02
98              	3.29040237e+02
99              	3.29131388e+02
100             	3.29217681e+02
101             	3.29298295e+02
102             	3.29373061e+02
103             	3.29444783e+02
104             	3.29514066e+02
105             	3.29580734e+02
106             	3.29645320e+02
107             	3.29709229e+02
108             	3.29772719e+02
109             	3.29836061e+02
110             	3.29897405e+02
111             	3.29958512e+02
112             	3.30017390e+02
113             	3.30075469e+02
114             	3.30131185e+02
115             	3.30184727e+02
116             	3.30236574e+02
117             	3.30286357e+02
118             	3.30334684e+02
119             	3.30382009e+02
120             	3.30428192e+02
121             	3.30472404e+02
122             	3.30516685e+02
123             	3.30561135e+02
124             	3.30606359e+02
125             	3.30652807e+02
126             	3.30701011e+02
127             	3.30750008e+02
128             	3.30799264e+02
129             	3.30848593e+02
130             	3.30897267e+02
131             	3.30945437e+02
132             	3.30992324e+02
133             	3.31037801e+02
134             	3.31082328e+02
135             	3.31126260e+02
136             	3.31169628e+02
137             	3.31212616e+02
138             	3.31255188e+02
139             	3.31298436e+02
140             	3.31342590e+02
141             	3.31386220e+02
142             	3.31428766e+02
143             	3.31470818e+02
144             	3.31511837e+02
145             	3.31551234e+02
146             	3.31589361e+02
147             	3.31625700e+02
148             	3.31660864e+02
149             	3.31694926e+02
150             	3.31727687e+02
151             	3.31759175e+02
152             	3.31789459e+02
153             	3.31819928e+02
154             	3.31850012e+02
155             	3.31880163e+02
156             	3.31910521e+02
157             	3.31941374e+02
158             	3.31971971e+02
159             	3.32003102e+02
160             	3.32031819e+02
161             	3.32060359e+02
162             	3.32088323e+02
163             	3.32115174e+02
164             	3.32141238e+02
165             	3.32166879e+02
166             	3.32192224e+02
167             	3.32217155e+02
168             	3.32242061e+02
169             	3.32267082e+02
170             	3.32291581e+02
171             	3.32316354e+02
172             	3.32340498e+02
173             	3.32363923e+02
174             	3.32388379e+02
175             	3.32411710e+02
176             	3.32434981e+02
177             	3.32457951e+02
178             	3.32480982e+02
179             	3.32503435e+02
180             	3.32525804e+02
181             	3.32548094e+02
182             	3.32570049e+02
183             	3.32590150e+02
184             	3.32608712e+02
185             	3.32626428e+02
186             	3.32643235e+02
187             	3.32659286e+02
188             	3.32674867e+02
189             	3.32690557e+02
190             	3.32707261e+02
191             	3.32724204e+02
192             	3.32742088e+02
193             	3.32759980e+02
194             	3.32778564e+02
195             	3.32797620e+02
196             	3.32816092e+02
197             	3.32833687e+02
198             	3.32850423e+02
199             	3.32866220e+02
200             	3.32881120e+02
201             	3.32895217e+02
202             	3.32908665e+02
203             	3.32922227e+02
204             	3.32935577e+02
205             	3.32948941e+02
206             	3.32962468e+02
207             	3.32976084e+02
208             	3.32989498e+02
209             	3.33002825e+02
210             	3.33015893e+02
211             	3.33028561e+02
212             	3.33040731e+02
213             	3.33052963e+02
214             	3.33064382e+02
215             	3.33075504e+02
216             	3.33086296e+02
217             	3.33096838e+02
218             	3.33106911e+02
219             	3.33116932e+02
220             	3.33127616e+02
221             	3.33137825e+02
222             	3.33147998e+02
223             	3.33158306e+02
224             	3.33168698e+02
225             	3.33179151e+02
226             	3.33189809e+02
227             	3.33200594e+02
228             	3.33211447e+02
229             	3.33221984e+02
230             	3.33231539e+02
231             	3.33240966e+02
232             	3.33249548e+02
233             	3.33257489e+02
234             	3.33264753e+02
235             	3.33271495e+02
236             	3.33278179e+02
237             	3.33284990e+02
238             	3.33291987e+02
239             	3.33299212e+02
240             	3.33306935e+02
241             	3.33315246e+02
242             	3.33323498e+02
243             	3.33331420e+02
244             	3.33339192e+02
245             	3.33346374e+02
246             	3.33353147e+02
247             	3.33359332e+02
248             	3.33365301e+02
249             	3.33371309e+02
250             	3.33377336e+02
251             	3.33383400e+02
252             	3.33389647e+02
253             	3.33396070e+02
254             	3.33402600e+02
255             	3.33408928e+02
256             	3.33414916e+02
257             	3.33420597e+02
258             	3.33426035e+02
259             	3.33431156e+02
260             	3.33435937e+02
261             	3.33440791e+02
262             	3.33445908e+02
263             	3.33450955e+02
264             	3.33456053e+02
265             	3.33461268e+02
266             	3.33466510e+02
267             	3.33471688e+02
268             	3.33476744e+02
269             	3.33481669e+02
270             	3.33486428e+02
271             	3.33491001e+02
272             	3.33495395e+02
273             	3.33499619e+02
274             	3.33503705e+02
275             	3.33507665e+02
276             	3.33511528e+02
277             	3.33515374e+02
278             	3.33519154e+02
279             	3.33522901e+02
280             	3.33526671e+02
281             	3.33530419e+02
282             	3.33534151e+02
283             	3.33537835e+02
284             	3.33541451e+02
285             	3.33545011e+02
286             	3.33548549e+02
287             	3.33552122e+02
288             	3.33555641e+02
289             	3.33559068e+02
290             	3.33562386e+02
291             	3.33565564e+02
292             	3.33568615e+02
293             	3.33571551e+02
294             	3.33574407e+02
295             	3.33577267e+02
296             	3.33580132e+02
297             	3.33583000e+02
298             	3.33585876e+02
299             	3.33588794e+02
300             	3.33591741e+02
301             	3.33594684e+02
302             	3.33597594e+02
303             	3.33600466e+02
304             	3.33603273e+02
305             	3.33605893e+02
306             	3.33608342e+02
307             	3.33610686e+02
308             	3.33612917e+02
309             	3.33614991e+02
310             	3.33616970e+02
311             	3.33618891e+02
312             	3.33620784e+02
313             	3.33622762e+02
314             	3.33624859e+02
315             	3.33627037e+02
316             	3.33629306e+02
317             	3.33631641e+02
318             	3.33633918e+02
319             	3.33636130e+02
320             	3.33638159e+02
321             	3.33640061e+02
322             	3.33641824e+02
323             	3.33643500e+02
324             	3.33645123e+02
325             	3.33646756e+02
326             	3.33648364e+02
327             	3.33649997e+02
328             	3.33651657e+02
329             	3.33653382e+02
330             	3.33655150e+02
331             	3.33656895e+02
332             	3.33658591e+02
333             	3.33660264e+02
334             	3.33661889e+02
335             	3.33663430e+02
336             	3.33664902e+02
337             	3.33666302e+02
338             	3.33667685e+02
339             	3.33669079e+02
340             	3.33670487e+02
341             	3.33671892e+02
342             	3.33673306e+02
343             	3.33674734e+02
344             	3.33676175e+02
345             	3.33677612e+02
346             	3.33679018e+02
347             	3.33680356e+02
348             	3.33681639e+02
349             	3.33682885e+02
350             	3.33684120e+02
351             	3.33685330e+02
352             	3.33686503e+02
353             	3.33687593e+02
354             	3.33688675e+02
355             	3.33689728e+02
356             	3.33690735e+02
357             	3.33691712e+02
358             	3.33692676e+02
359             	3.33693638e+02
360             	3.33694611e+02
361             	3.33695595e+02
362             	3.33696598e+02
363             	3.33697613e+02
364             	3.33698578e+02
365             	3.33699521e+02
366             	3.33700451e+02
367             	3.33701337e+02
368             	3.33702184e+02
369             	3.33702998e+02
370             	3.33703778e+02
371             	3.33704531e+02
372             	3.33705273e+02
373             	3.33705997e+02
374             	3.33706729e+02
375             	3.33707464e+02
376             	3.33708193e+02
377             	3.33708928e+02
378             	3.33709671e+02
379             	3.33710414e+02
380             	3.33711156e+02
381             	3.33711894e+02
382             	3.33712626e+02
383             	3.33713348e+02
384             	3.33714030e+02
385             	3.33714681e+02
386             	3.33715309e+02
387             	3.33715914e+02
388             	3.33716493e+02
389             	3.33717050e+02
390             	3.33717589e+02
391             	3.33718121e+02
392             	3.33718661e+02
393             	3.33719215e+02
394             	3.33719777e+02
395             	3.33720348e+02
396             	3.33720926e+02
397             	3.33721505e+02
398             	3.33722058e+02
399             	3.33722602e+02
400             	3.33723127e+02
401             	3.33723612e+02
402             	3.33724065e+02
403             	3.33724493e+02
404             	3.33724900e+02
405             	3.33725294e+02
406             	3.33725692e+02
407             	3.33726088e+02
408             	3.33726479e+02
409             	3.33726877e+02
410             	3.33727283e+02
411             	3.33727688e+02
412             	3.33728097e+02
413             	3.33728512e+02
414             	3.33728928e+02
415             	3.33729337e+02
416             	3.33729738e+02
417             	3.33730130e+02
418             	3.33730504e+02
419             	3.33730862e+02
420             	3.33731206e+02
421             	3.33731536e+02
422             	3.33731855e+02
423             	3.33732158e+02
424             	3.33732452e+02
425             	3.33732737e+02
426             	3.33733015e+02
427             	3.33733286e+02
428             	3.33733553e+02
429             	3.33733827e+02
430             	3.33734113e+02
431             	3.33734403e+02
432             	3.33734698e+02
433             	3.33734990e+02
434             	3.33735278e+02
435             	3.33735564e+02
436             	3.33735841e+02
437             	3.33736105e+02
438             	3.33736358e+02
439             	3.33736594e+02
440             	3.33736814e+02
441             	3.33737019e+02
442             	3.33737210e+02
443             	3.33737391e+02
444             	3.33737580e+02
445             	3.33737784e+02
446             	3.33737999e+02
447             	3.33738224e+02
448             	3.33738460e+02
449             	3.33738696e+02
450             	3.33738929e+02
451             	3.33739148e+02
452             	3.33739355e+02
453             	3.33739550e+02
454             	3.33739732e+02
455             	3.33739901e+02
456             	3.33740064e+02
457             	3.33740228e+02
458             	3.33740395e+02
459             	3.33740564e+02
460             	3.33740734e+02
461             	3.33740905e+02
462             	3.33741079e+02
463             	3.33741257e+02
464             	3.33741430e+02
465             	3.33741602e+02
466             	3.33741769e+02
467             	3.33741931e+02
468             	3.33742084e+02
469             	3.33742231e+02
470             	3.33742371e+02
471             	3.33742503e+02
472             	3.33742634e+02
473             	3.33742768e+02
474             	3.33742898e+02
475             	3.33743023e+02
476             	3.33743147e+02
477             	3.33743268e+02
478             	3.33743384e+02
479             	3.33743493e+02
480             	3.33743594e+02
481             	3.33743691e+02
482             	3.33743787e+02
483             	3.33743881e+02
484             	3.33743978e+02
485             	3.33744079e+02
486             	3.33744185e+02
487             	3.33744297e+02
488             	3.33744412e+02
489             	3.33744530e+02
490             	3.33744641e+02
491             	3.33744745e+02
492             	3.33744846e+02
493             	3.33744942e+02
494             	3.33745034e+02
495             	3.33745125e+02
496             	3.33745212e+02
497             	3.33745297e+02
498             	3.33745378e+02
499             	3.33745463e+02
500             	3.33745552e+02
501             	3.33745644e+02
502             	3.33745737e+02
503             	3.33745833e+02
504             	3.33745919e+02
505             	3.33745997e+02
506             	3.33746068e+02
507             	3.33746141e+02
508             	3.33746207e+02
509             	3.33746267e+02
510             	3.33746328e+02
511             	3.33746383e+02
512             	3.33746431e+02
513             	3.33746482e+02
514             	3.33746535e+02
515             	3.33746589e+02
516             	3.33746644e+02
517             	3.33746696e+02
518             	3.33746740e+02
519             	3.33746781e+02
520             	3.33746814e+02
521             	3.33746841e+02
522             	3.33746861e+02
523             	3.33746878e+02
524             	3.33746890e+02
525             	3.33746897e+02
526             	3.33746900e+02
527             	3.33746904e+02
528             	3.33746912e+02
529             	3.33746922e+02
530             	3.33746936e+02
531             	3.33746953e+02
532             	3.33746978e+02
533             	3.33747004e+02
534             	3.33747034e+02
535             	3.33747064e+02
536             	3.33747099e+02
537             	3.33747131e+02
538             	3.33747164e+02
539             	3.33747194e+02
540             	3.33747222e+02
541             	3.33747251e+02
542             	3.33747278e+02
543             	3.33747303e+02
544             	3.33747328e+02
545             	3.33747356e+02
546             	3.33747385e+02
547             	3.33747414e+02
548             	3.33747443e+02
549             	3.33747468e+02
550             	3.33747492e+02
551             	3.33747513e+02
552             	3.33747530e+02
553             	3.33747545e+02
554             	3.33747556e+02
555             	3.33747562e+02
556             	3.33747566e+02
557             	3.33747569e+02
558             	3.33747575e+02
559             	3.33747581e+02
560             	3.33747590e+02
561             	3.33747600e+02
562             	3.33747612e+02
563             	3.33747620e+02
564             	3.33747624e+02
565             	3.33747627e+02
566             	3.33747629e+02
567             	3.33747632e+02
568             	3.33747634e+02
569             	3.33747639e+02
570             	3.33747649e+02
571             	3.33747664e+02
572             	3.33747682e+02
573             	3.33747705e+02
574             	3.33747732e+02
575             	3.33747765e+02
576             	3.33747795e+02
577             	3.33747831e+02
578             	3.33747864e+02
579             	3.33747895e+02
580             	3.33747920e+02
581             	3.33747938e+02
582             	3.33747951e+02
583             	3.33747956e+02
584             	3.33747951e+02
585             	3.33747939e+02
586             	3.33747920e+02
587             	3.33747895e+02
588             	3.33747867e+02
589             	3.33747836e+02
590             	3.33747802e+02
591             	3.33747769e+02
592             	3.33747737e+02
593             	3.33747706e+02
594             	3.33747680e+02
595             	3.33747659e+02
596             	3.33747645e+02
597             	3.33747639e+02
598             	3.33747642e+02
599             	3.33747653e+02
600             	3.33747673e+02
601             	3.33747702e+02
602             	3.33747736e+02
603             	3.33747776e+02
604             	3.33747824e+02
605             	3.33747877e+02
606             	3.33747937e+02
607             	3.33748001e+02
608             	3.33748063e+02
609             	3.33748130e+02
610             	3.33748189e+02
611             	3.33748249e+02
612             	3.33748302e+02
613             	3.33748348e+02
614             	3.33748392e+02
615             	3.33748428e+02
616             	3.33748460e+02
617             	3.33748489e+02
618             	3.33748513e+02
619             	3.33748536e+02
620             	3.33748558e+02
621             	3.33748584e+02
