# Region        : cellZone component_3
# Cells         : 56
# Volume        : 9.71458512e-02
# Time          	volAverage(T)
1               	3.01094800e+02
2               	3.02175804e+02
3               	3.03163599e+02
4               	3.04088242e+02
5               	3.04988698e+02
6               	3.05861335e+02
7               	3.06719158e+02
8               	3.07565515e+02
9               	3.08399890e+02
10              	3.09232374e+02
11              	3.10045563e+02
12              	3.10825600e+02
13              	3.11591963e+02
14              	3.12333110e+02
15              	3.13033990e+02
16              	3.13733316e+02
17              	3.14419401e+02
18              	3.15100410e+02
19              	3.15790675e+02
20              	3.16486585e+02
21              	3.17179103e+02
22              	3.17865799e+02
23              	3.18541253e+02
24              	3.19207086e+02
25              	3.19858656e+02
26              	3.20485311e+02
27              	3.21085860e+02
28              	3.21664867e+02
29              	3.22211412e+02
30              	3.22731838e+02
31              	3.23238702e+02
32              	3.23734035e+02
33              	3.24219141e+02
34              	3.24682719e+02
35              	3.25143470e+02
36              	3.25591698e+02
37              	3.26037080e+02
38              	3.26468326e+02
39              	3.26883556e+02
40              	3.27283561e+02
41              	3.27680694e+02
42              	3.28081198e+02
43              	3.28500488e+02
44              	3.28904256e+02
45              	3.29278282e+02
46              	3.29649707e+02
47              	3.29983813e+02
48              	3.30272831e+02
49              	3.30526468e+02
50              	3.30741082e+02
51              	3.30940101e+02
52              	3.31124051e+02
53              	3.31298012e+02
54              	3.31459653e+02
55              	3.31618698e+02
56              	3.31781839e+02
57              	3.31952555e+02
58              	3.32137131e+02
59              	3.32332431e+02
60              	3.32522444e+02
61              	3.32701900e+02
62              	3.32875509e+02
63              	3.33031937e+02
64              	3.33178033e+02
65              	3.33314830e+02
66              	3.33445091e+02
67              	3.33567877e+02
68              	3.33682671e+02
69              	3.33791995e+02
70              	3.33891108e+02
71              	3.33980759e+02
72              	3.34056054e+02
73              	3.34121047e+02
74              	3.34180169e+02
75              	3.34234682e+02
76              	3.34289696e+02
77              	3.34351028e+02
78              	3.34413944e+02
79              	3.34477864e+02
80              	3.34550041e+02
81              	3.34623184e+02
82              	3.34689970e+02
83              	3.34754309e+02
84              	3.34810777e+02
85              	3.34865952e+02
86              	3.34917562e+02
87              	3.34967403e+02
88              	3.35013109e+02
89              	3.35056895e+02
90              	3.35099075e+02
91              	3.35137470e+02
92              	3.35171451e+02
93              	3.35204725e+02
94              	3.35240515e+02
95              	3.35282973e+02
96              	3.35328419e+02
97              	3.35382773e+02
98              	3.35428344e+02
99              	3.35482054e+02
100             	3.35537448e+02
101             	3.35593746e+02
102             	3.35646333e+02
103             	3.35698303e+02
104             	3.35744294e+02
105             	3.35785973e+02
106             	3.35822425e+02
107             	3.35855454e+02
108             	3.35892944e+02
109             	3.35924567e+02
110             	3.35956972e+02
111             	3.35998344e+02
112             	3.36048338e+02
113             	3.36093725e+02
114             	3.36146362e+02
115             	3.36193232e+02
116             	3.36238490e+02
117             	3.36280524e+02
118             	3.36317133e+02
119             	3.36353693e+02
120             	3.36390980e+02
121             	3.36422134e+02
122             	3.36451108e+02
123             	3.36474261e+02
124             	3.36493182e+02
125             	3.36512440e+02
126             	3.36532450e+02
127             	3.36557020e+02
128             	3.36575909e+02
129             	3.36600402e+02
130             	3.36626542e+02
131             	3.36657237e+02
132             	3.36692800e+02
133             	3.36733234e+02
134             	3.36772195e+02
135             	3.36804386e+02
136             	3.36835707e+02
137             	3.36866732e+02
138             	3.36897541e+02
139             	3.36925651e+02
140             	3.36952239e+02
141             	3.36976182e+02
142             	3.37000194e+02
143             	3.37022700e+02
144             	3.37042285e+02
145             	3.37059116e+02
146             	3.37071908e+02
147             	3.37079823e+02
148             	3.37086136e+02
149             	3.37093237e+02
150             	3.37102289e+02
151             	3.37115709e+02
152             	3.37129456e+02
153             	3.37146232e+02
154             	3.37166234e+02
155             	3.37182753e+02
156             	3.37204649e+02
157             	3.37228110e+02
158             	3.37247806e+02
159             	3.37267245e+02
160             	3.37284637e+02
161             	3.37301028e+02
162             	3.37315798e+02
163             	3.37327547e+02
164             	3.37337038e+02
165             	3.37343747e+02
166             	3.37350852e+02
167             	3.37354621e+02
168             	3.37357111e+02
169             	3.37362784e+02
170             	3.37369313e+02
171             	3.37378626e+02
172             	3.37382744e+02
173             	3.37389764e+02
174             	3.37398807e+02
175             	3.37401788e+02
176             	3.37407619e+02
177             	3.37414203e+02
178             	3.37420759e+02
179             	3.37426328e+02
180             	3.37431821e+02
181             	3.37437551e+02
182             	3.37442147e+02
183             	3.37444526e+02
184             	3.37447986e+02
185             	3.37450298e+02
186             	3.37453949e+02
187             	3.37462310e+02
188             	3.37475036e+02
189             	3.37483413e+02
190             	3.37496489e+02
191             	3.37511669e+02
192             	3.37524570e+02
193             	3.37538048e+02
194             	3.37551082e+02
195             	3.37561800e+02
196             	3.37569983e+02
197             	3.37576037e+02
198             	3.37580067e+02
199             	3.37581734e+02
200             	3.37582917e+02
201             	3.37581335e+02
202             	3.37579298e+02
203             	3.37577350e+02
204             	3.37575099e+02
205             	3.37575348e+02
206             	3.37576482e+02
207             	3.37578281e+02
208             	3.37581539e+02
209             	3.37587104e+02
210             	3.37596635e+02
211             	3.37607373e+02
212             	3.37618660e+02
213             	3.37627380e+02
214             	3.37638019e+02
215             	3.37644988e+02
216             	3.37651284e+02
217             	3.37656978e+02
218             	3.37661645e+02
219             	3.37665260e+02
220             	3.37668301e+02
221             	3.37670001e+02
222             	3.37671433e+02
223             	3.37672369e+02
224             	3.37672880e+02
225             	3.37672205e+02
226             	3.37671237e+02
227             	3.37670699e+02
228             	3.37669809e+02
229             	3.37670278e+02
230             	3.37671823e+02
231             	3.37673518e+02
232             	3.37675749e+02
233             	3.37679147e+02
234             	3.37685191e+02
235             	3.37688908e+02
236             	3.37690816e+02
237             	3.37694766e+02
238             	3.37699670e+02
239             	3.37703880e+02
240             	3.37706641e+02
241             	3.37708725e+02
242             	3.37709344e+02
243             	3.37708900e+02
244             	3.37707497e+02
245             	3.37705312e+02
246             	3.37703824e+02
247             	3.37704522e+02
248             	3.37703505e+02
249             	3.37703075e+02
250             	3.37703785e+02
251             	3.37706035e+02
252             	3.37709951e+02
253             	3.37715089e+02
254             	3.37719098e+02
255             	3.37720097e+02
256             	3.37722352e+02
257             	3.37724816e+02
258             	3.37727654e+02
259             	3.37731028e+02
260             	3.37733616e+02
261             	3.37734658e+02
262             	3.37734705e+02
263             	3.37734178e+02
264             	3.37733560e+02
265             	3.37732229e+02
266             	3.37730397e+02
267             	3.37728336e+02
268             	3.37725194e+02
269             	3.37721207e+02
270             	3.37718364e+02
271             	3.37717320e+02
272             	3.37716830e+02
273             	3.37717336e+02
274             	3.37719461e+02
275             	3.37723683e+02
276             	3.37730418e+02
277             	3.37738185e+02
278             	3.37743741e+02
279             	3.37748993e+02
280             	3.37755336e+02
281             	3.37761103e+02
282             	3.37766638e+02
283             	3.37772227e+02
284             	3.37778317e+02
285             	3.37784011e+02
286             	3.37787470e+02
287             	3.37789510e+02
288             	3.37790330e+02
289             	3.37789707e+02
290             	3.37788005e+02
291             	3.37785514e+02
292             	3.37782241e+02
293             	3.37778450e+02
294             	3.37777416e+02
295             	3.37775476e+02
296             	3.37774178e+02
297             	3.37774201e+02
298             	3.37776856e+02
299             	3.37780712e+02
300             	3.37785186e+02
301             	3.37788976e+02
302             	3.37790085e+02
303             	3.37792251e+02
304             	3.37793238e+02
305             	3.37793656e+02
306             	3.37793397e+02
307             	3.37792512e+02
308             	3.37791038e+02
309             	3.37789043e+02
310             	3.37787102e+02
311             	3.37782953e+02
312             	3.37779497e+02
313             	3.37778943e+02
314             	3.37778769e+02
315             	3.37779734e+02
316             	3.37782667e+02
317             	3.37784467e+02
318             	3.37785130e+02
319             	3.37787632e+02
320             	3.37790738e+02
321             	3.37793731e+02
322             	3.37796260e+02
323             	3.37798355e+02
324             	3.37799378e+02
325             	3.37799093e+02
326             	3.37799122e+02
327             	3.37798167e+02
328             	3.37797461e+02
329             	3.37797875e+02
330             	3.37798795e+02
331             	3.37799452e+02
332             	3.37800089e+02
333             	3.37799794e+02
334             	3.37798294e+02
335             	3.37796006e+02
336             	3.37793931e+02
337             	3.37794094e+02
338             	3.37795283e+02
339             	3.37796459e+02
340             	3.37796488e+02
341             	3.37797982e+02
342             	3.37800336e+02
343             	3.37802819e+02
344             	3.37803902e+02
345             	3.37805426e+02
346             	3.37805343e+02
347             	3.37805254e+02
348             	3.37804593e+02
349             	3.37804647e+02
350             	3.37805622e+02
351             	3.37806200e+02
352             	3.37806856e+02
353             	3.37807009e+02
354             	3.37806101e+02
355             	3.37805465e+02
356             	3.37805021e+02
357             	3.37804354e+02
358             	3.37803617e+02
359             	3.37802864e+02
360             	3.37802032e+02
361             	3.37801227e+02
362             	3.37800280e+02
363             	3.37799172e+02
364             	3.37797936e+02
365             	3.37796500e+02
366             	3.37795056e+02
367             	3.37794076e+02
368             	3.37793900e+02
369             	3.37793665e+02
370             	3.37794828e+02
371             	3.37796664e+02
372             	3.37799010e+02
373             	3.37801777e+02
374             	3.37804402e+02
375             	3.37806246e+02
376             	3.37808019e+02
377             	3.37809845e+02
378             	3.37812317e+02
379             	3.37813782e+02
380             	3.37816430e+02
381             	3.37819967e+02
382             	3.37822176e+02
383             	3.37823248e+02
384             	3.37821649e+02
385             	3.37820505e+02
386             	3.37819305e+02
387             	3.37817966e+02
388             	3.37816886e+02
389             	3.37815902e+02
390             	3.37815151e+02
391             	3.37814665e+02
392             	3.37814319e+02
393             	3.37814101e+02
394             	3.37813929e+02
395             	3.37813528e+02
396             	3.37812890e+02
397             	3.37811995e+02
398             	3.37810921e+02
399             	3.37809322e+02
400             	3.37807490e+02
401             	3.37805343e+02
402             	3.37802951e+02
403             	3.37800489e+02
404             	3.37798187e+02
405             	3.37796403e+02
406             	3.37794891e+02
407             	3.37793289e+02
408             	3.37792268e+02
409             	3.37791767e+02
410             	3.37791731e+02
411             	3.37791963e+02
412             	3.37792189e+02
413             	3.37792004e+02
414             	3.37791859e+02
415             	3.37792111e+02
416             	3.37792932e+02
417             	3.37794070e+02
418             	3.37794836e+02
419             	3.37795373e+02
420             	3.37795458e+02
421             	3.37794816e+02
422             	3.37793660e+02
423             	3.37792384e+02
424             	3.37790910e+02
425             	3.37789197e+02
426             	3.37787496e+02
427             	3.37785919e+02
428             	3.37784343e+02
429             	3.37782880e+02
430             	3.37781689e+02
431             	3.37780863e+02
432             	3.37780459e+02
433             	3.37780483e+02
434             	3.37780863e+02
435             	3.37781520e+02
436             	3.37782550e+02
437             	3.37783847e+02
438             	3.37784894e+02
439             	3.37786124e+02
440             	3.37787328e+02
441             	3.37788289e+02
442             	3.37789013e+02
443             	3.37789606e+02
444             	3.37790207e+02
445             	3.37790285e+02
446             	3.37790124e+02
447             	3.37789502e+02
448             	3.37788863e+02
449             	3.37788256e+02
450             	3.37787750e+02
451             	3.37787407e+02
452             	3.37787224e+02
453             	3.37787127e+02
454             	3.37787021e+02
455             	3.37787160e+02
456             	3.37787215e+02
457             	3.37787162e+02
458             	3.37787335e+02
459             	3.37787475e+02
460             	3.37787641e+02
461             	3.37787867e+02
462             	3.37788235e+02
463             	3.37788378e+02
464             	3.37788051e+02
465             	3.37787417e+02
466             	3.37787020e+02
467             	3.37787126e+02
468             	3.37786994e+02
469             	3.37786869e+02
470             	3.37786891e+02
471             	3.37787132e+02
472             	3.37787661e+02
473             	3.37788600e+02
474             	3.37789908e+02
475             	3.37791197e+02
476             	3.37792332e+02
477             	3.37793605e+02
478             	3.37794675e+02
479             	3.37795683e+02
480             	3.37796515e+02
481             	3.37796979e+02
482             	3.37797247e+02
483             	3.37797485e+02
484             	3.37797429e+02
485             	3.37797102e+02
486             	3.37796558e+02
487             	3.37795837e+02
488             	3.37794937e+02
489             	3.37793999e+02
490             	3.37792904e+02
491             	3.37791742e+02
492             	3.37791158e+02
493             	3.37790929e+02
494             	3.37790640e+02
495             	3.37790518e+02
496             	3.37790582e+02
497             	3.37790844e+02
498             	3.37791629e+02
499             	3.37792266e+02
500             	3.37792919e+02
501             	3.37793693e+02
502             	3.37793917e+02
503             	3.37794335e+02
504             	3.37794689e+02
505             	3.37794916e+02
506             	3.37795112e+02
507             	3.37795167e+02
508             	3.37794493e+02
509             	3.37793462e+02
510             	3.37792534e+02
511             	3.37791954e+02
512             	3.37790950e+02
513             	3.37790168e+02
514             	3.37790402e+02
515             	3.37790606e+02
516             	3.37790865e+02
517             	3.37791629e+02
518             	3.37792793e+02
519             	3.37794041e+02
520             	3.37795516e+02
521             	3.37796954e+02
522             	3.37798932e+02
523             	3.37800509e+02
524             	3.37800894e+02
525             	3.37801079e+02
526             	3.37800719e+02
527             	3.37799762e+02
528             	3.37798574e+02
529             	3.37797585e+02
530             	3.37797439e+02
531             	3.37796675e+02
532             	3.37795904e+02
533             	3.37795405e+02
534             	3.37795161e+02
535             	3.37795423e+02
536             	3.37796517e+02
537             	3.37798044e+02
538             	3.37800054e+02
539             	3.37801013e+02
540             	3.37801522e+02
541             	3.37802215e+02
542             	3.37802708e+02
543             	3.37802347e+02
544             	3.37801516e+02
545             	3.37800178e+02
546             	3.37798996e+02
547             	3.37799342e+02
548             	3.37798920e+02
549             	3.37797587e+02
550             	3.37796895e+02
551             	3.37796636e+02
552             	3.37796679e+02
553             	3.37796843e+02
554             	3.37797874e+02
555             	3.37799345e+02
556             	3.37800264e+02
557             	3.37801644e+02
558             	3.37802415e+02
559             	3.37803073e+02
560             	3.37803448e+02
561             	3.37803601e+02
562             	3.37803170e+02
563             	3.37802307e+02
564             	3.37801237e+02
565             	3.37799748e+02
566             	3.37798292e+02
567             	3.37796537e+02
568             	3.37795373e+02
569             	3.37794992e+02
570             	3.37794875e+02
571             	3.37795351e+02
572             	3.37796466e+02
573             	3.37798170e+02
574             	3.37800255e+02
575             	3.37802607e+02
576             	3.37805129e+02
577             	3.37807383e+02
578             	3.37808301e+02
579             	3.37809235e+02
580             	3.37809802e+02
581             	3.37809970e+02
582             	3.37810550e+02
583             	3.37810720e+02
584             	3.37810338e+02
585             	3.37809669e+02
586             	3.37808671e+02
587             	3.37807118e+02
588             	3.37805308e+02
589             	3.37803355e+02
590             	3.37801452e+02
591             	3.37799653e+02
592             	3.37798871e+02
593             	3.37798607e+02
594             	3.37799192e+02
595             	3.37799977e+02
596             	3.37801376e+02
597             	3.37803175e+02
598             	3.37804928e+02
599             	3.37805898e+02
600             	3.37806232e+02
601             	3.37806797e+02
602             	3.37807026e+02
603             	3.37807127e+02
604             	3.37807052e+02
605             	3.37806570e+02
606             	3.37805453e+02
607             	3.37803903e+02
608             	3.37802410e+02
609             	3.37800680e+02
610             	3.37800661e+02
611             	3.37800343e+02
612             	3.37800201e+02
613             	3.37800480e+02
614             	3.37801220e+02
615             	3.37802390e+02
616             	3.37802864e+02
617             	3.37803262e+02
618             	3.37804156e+02
619             	3.37805167e+02
620             	3.37806235e+02
621             	3.37806950e+02
