# Region        : cellZone pcb
# Cells         : 536
# Volume        : 1.12942260e+00
# Time          	volAverage(T)
1               	3.00004127e+02
2               	3.00012150e+02
3               	3.00023629e+02
4               	3.00038129e+02
5               	3.00054991e+02
6               	3.00074240e+02
7               	3.00095814e+02
8               	3.00119657e+02
9               	3.00145414e+02
10              	3.00173427e+02
11              	3.00203477e+02
12              	3.00234820e+02
13              	3.00267480e+02
14              	3.00301755e+02
15              	3.00337371e+02
16              	3.00373956e+02
17              	3.00411334e+02
18              	3.00449344e+02
19              	3.00488846e+02
20              	3.00528765e+02
21              	3.00569696e+02
22              	3.00611742e+02
23              	3.00654352e+02
24              	3.00697094e+02
25              	3.00740204e+02
26              	3.00783695e+02
27              	3.00827335e+02
28              	3.00871283e+02
29              	3.00915944e+02
30              	3.00961348e+02
31              	3.01007256e+02
32              	3.01054066e+02
33              	3.01101773e+02
34              	3.01150462e+02
35              	3.01199260e+02
36              	3.01248571e+02
37              	3.01297752e+02
38              	3.01347623e+02
39              	3.01398036e+02
40              	3.01447897e+02
41              	3.01496540e+02
42              	3.01544570e+02
43              	3.01591333e+02
44              	3.01637909e+02
45              	3.01683555e+02
46              	3.01729306e+02
47              	3.01774551e+02
48              	3.01819636e+02
49              	3.01864094e+02
50              	3.01908226e+02
51              	3.01952270e+02
52              	3.01996133e+02
53              	3.02041047e+02
54              	3.02086928e+02
55              	3.02134232e+02
56              	3.02181514e+02
57              	3.02228080e+02
58              	3.02274078e+02
59              	3.02319639e+02
60              	3.02365000e+02
61              	3.02408687e+02
62              	3.02451053e+02
63              	3.02493086e+02
64              	3.02534012e+02
65              	3.02573424e+02
66              	3.02611819e+02
67              	3.02649945e+02
68              	3.02687803e+02
69              	3.02724679e+02
70              	3.02760973e+02
71              	3.02797052e+02
72              	3.02833211e+02
73              	3.02869585e+02
74              	3.02905996e+02
75              	3.02942446e+02
76              	3.02977753e+02
77              	3.03012320e+02
78              	3.03047129e+02
79              	3.03082117e+02
80              	3.03116552e+02
81              	3.03149803e+02
82              	3.03182342e+02
83              	3.03214935e+02
84              	3.03246664e+02
85              	3.03276800e+02
86              	3.03306157e+02
87              	3.03335103e+02
88              	3.03363922e+02
89              	3.03393129e+02
90              	3.03422814e+02
91              	3.03452854e+02
92              	3.03483387e+02
93              	3.03513798e+02
94              	3.03543648e+02
95              	3.03572467e+02
96              	3.03600207e+02
97              	3.03626698e+02
98              	3.03652582e+02
99              	3.03677630e+02
100             	3.03702351e+02
101             	3.03726551e+02
102             	3.03750740e+02
103             	3.03774344e+02
104             	3.03796627e+02
105             	3.03818148e+02
106             	3.03839658e+02
107             	3.03861396e+02
108             	3.03883388e+02
109             	3.03906090e+02
110             	3.03928218e+02
111             	3.03949406e+02
112             	3.03970617e+02
113             	3.03991863e+02
114             	3.04012764e+02
115             	3.04032880e+02
116             	3.04053079e+02
117             	3.04073493e+02
118             	3.04093392e+02
119             	3.04111765e+02
120             	3.04129348e+02
121             	3.04147054e+02
122             	3.04164837e+02
123             	3.04182781e+02
124             	3.04201145e+02
125             	3.04219321e+02
126             	3.04237357e+02
127             	3.04254597e+02
128             	3.04272134e+02
129             	3.04289530e+02
130             	3.04306678e+02
131             	3.04323474e+02
132             	3.04340001e+02
133             	3.04355869e+02
134             	3.04371193e+02
135             	3.04385846e+02
136             	3.04399974e+02
137             	3.04413739e+02
138             	3.04427165e+02
139             	3.04440476e+02
140             	3.04453532e+02
141             	3.04466330e+02
142             	3.04479111e+02
143             	3.04491929e+02
144             	3.04504688e+02
145             	3.04517504e+02
146             	3.04530398e+02
147             	3.04543325e+02
148             	3.04556301e+02
149             	3.04569271e+02
150             	3.04582157e+02
151             	3.04594945e+02
152             	3.04607587e+02
153             	3.04619956e+02
154             	3.04632366e+02
155             	3.04644425e+02
156             	3.04656404e+02
157             	3.04667863e+02
158             	3.04679273e+02
159             	3.04690463e+02
160             	3.04701404e+02
161             	3.04712044e+02
162             	3.04722403e+02
163             	3.04732581e+02
164             	3.04742511e+02
165             	3.04752218e+02
166             	3.04761982e+02
167             	3.04771603e+02
168             	3.04780998e+02
169             	3.04790255e+02
170             	3.04799457e+02
171             	3.04808620e+02
172             	3.04817739e+02
173             	3.04826777e+02
174             	3.04835735e+02
175             	3.04844611e+02
176             	3.04853422e+02
177             	3.04862163e+02
178             	3.04870756e+02
179             	3.04878971e+02
180             	3.04887308e+02
181             	3.04895542e+02
182             	3.04903556e+02
183             	3.04911433e+02
184             	3.04919127e+02
185             	3.04926664e+02
186             	3.04934051e+02
187             	3.04941382e+02
188             	3.04948654e+02
189             	3.04955770e+02
190             	3.04962889e+02
191             	3.04969957e+02
192             	3.04977044e+02
193             	3.04984126e+02
194             	3.04991171e+02
195             	3.04998211e+02
196             	3.05005238e+02
197             	3.05012282e+02
198             	3.05019261e+02
199             	3.05026126e+02
200             	3.05032956e+02
201             	3.05039698e+02
202             	3.05046254e+02
203             	3.05052555e+02
204             	3.05058948e+02
205             	3.05065258e+02
206             	3.05071425e+02
207             	3.05077453e+02
208             	3.05083402e+02
209             	3.05089208e+02
210             	3.05094882e+02
211             	3.05100480e+02
212             	3.05106021e+02
213             	3.05111508e+02
214             	3.05116915e+02
215             	3.05122327e+02
216             	3.05127721e+02
217             	3.05133050e+02
218             	3.05138348e+02
219             	3.05143621e+02
220             	3.05148893e+02
221             	3.05154159e+02
222             	3.05159386e+02
223             	3.05164459e+02
224             	3.05169502e+02
225             	3.05174522e+02
226             	3.05179473e+02
227             	3.05184349e+02
228             	3.05189111e+02
229             	3.05193753e+02
230             	3.05198326e+02
231             	3.05202788e+02
232             	3.05207179e+02
233             	3.05211551e+02
234             	3.05215886e+02
235             	3.05220157e+02
236             	3.05224397e+02
237             	3.05228624e+02
238             	3.05232824e+02
239             	3.05237027e+02
240             	3.05241213e+02
241             	3.05245381e+02
242             	3.05249521e+02
243             	3.05253613e+02
244             	3.05257555e+02
245             	3.05261547e+02
246             	3.05265476e+02
247             	3.05269324e+02
248             	3.05273104e+02
249             	3.05276821e+02
250             	3.05280486e+02
251             	3.05284108e+02
252             	3.05287675e+02
253             	3.05291190e+02
254             	3.05294653e+02
255             	3.05298076e+02
256             	3.05301447e+02
257             	3.05304767e+02
258             	3.05308045e+02
259             	3.05311313e+02
260             	3.05314547e+02
261             	3.05317701e+02
262             	3.05320833e+02
263             	3.05323943e+02
264             	3.05327062e+02
265             	3.05330139e+02
266             	3.05333198e+02
267             	3.05336234e+02
268             	3.05339238e+02
269             	3.05342202e+02
270             	3.05345118e+02
271             	3.05347959e+02
272             	3.05350776e+02
273             	3.05353540e+02
274             	3.05356230e+02
275             	3.05358895e+02
276             	3.05361514e+02
277             	3.05364090e+02
278             	3.05366613e+02
279             	3.05369096e+02
280             	3.05371540e+02
281             	3.05373941e+02
282             	3.05376329e+02
283             	3.05378690e+02
284             	3.05381003e+02
285             	3.05383295e+02
286             	3.05385571e+02
287             	3.05387829e+02
288             	3.05390072e+02
289             	3.05392299e+02
290             	3.05394512e+02
291             	3.05396711e+02
292             	3.05398894e+02
293             	3.05401060e+02
294             	3.05403207e+02
295             	3.05405335e+02
296             	3.05407444e+02
297             	3.05409534e+02
298             	3.05411602e+02
299             	3.05413647e+02
300             	3.05415666e+02
301             	3.05417658e+02
302             	3.05419616e+02
303             	3.05421558e+02
304             	3.05423465e+02
305             	3.05425337e+02
306             	3.05427181e+02
307             	3.05428978e+02
308             	3.05430755e+02
309             	3.05432500e+02
310             	3.05434209e+02
311             	3.05435889e+02
312             	3.05437540e+02
313             	3.05439161e+02
314             	3.05440760e+02
315             	3.05442336e+02
316             	3.05443897e+02
317             	3.05445452e+02
318             	3.05446995e+02
319             	3.05448515e+02
320             	3.05450024e+02
321             	3.05451520e+02
322             	3.05452985e+02
323             	3.05454422e+02
324             	3.05455864e+02
325             	3.05457286e+02
326             	3.05458688e+02
327             	3.05460067e+02
328             	3.05461428e+02
329             	3.05462770e+02
330             	3.05464089e+02
331             	3.05465387e+02
332             	3.05466667e+02
333             	3.05467930e+02
334             	3.05469179e+02
335             	3.05470426e+02
336             	3.05471656e+02
337             	3.05472867e+02
338             	3.05474067e+02
339             	3.05475257e+02
340             	3.05476435e+02
341             	3.05477603e+02
342             	3.05478758e+02
343             	3.05479901e+02
344             	3.05481031e+02
345             	3.05482145e+02
346             	3.05483247e+02
347             	3.05484324e+02
348             	3.05485396e+02
349             	3.05486454e+02
350             	3.05487493e+02
351             	3.05488516e+02
352             	3.05489523e+02
353             	3.05490514e+02
354             	3.05491491e+02
355             	3.05492453e+02
356             	3.05493400e+02
357             	3.05494334e+02
358             	3.05495254e+02
359             	3.05496159e+02
360             	3.05497048e+02
361             	3.05497927e+02
362             	3.05498793e+02
363             	3.05499646e+02
364             	3.05500486e+02
365             	3.05501313e+02
366             	3.05502135e+02
367             	3.05502956e+02
368             	3.05503763e+02
369             	3.05504558e+02
370             	3.05505348e+02
371             	3.05506134e+02
372             	3.05506910e+02
373             	3.05507673e+02
374             	3.05508422e+02
375             	3.05509171e+02
376             	3.05509910e+02
377             	3.05510637e+02
378             	3.05511353e+02
379             	3.05512062e+02
380             	3.05512753e+02
381             	3.05513433e+02
382             	3.05514106e+02
383             	3.05514770e+02
384             	3.05515426e+02
385             	3.05516073e+02
386             	3.05516713e+02
387             	3.05517345e+02
388             	3.05517969e+02
389             	3.05518588e+02
390             	3.05519201e+02
391             	3.05519806e+02
392             	3.05520405e+02
393             	3.05520997e+02
394             	3.05521583e+02
395             	3.05522163e+02
396             	3.05522736e+02
397             	3.05523301e+02
398             	3.05523858e+02
399             	3.05524403e+02
400             	3.05524945e+02
401             	3.05525476e+02
402             	3.05525999e+02
403             	3.05526515e+02
404             	3.05527021e+02
405             	3.05527519e+02
406             	3.05528008e+02
407             	3.05528489e+02
408             	3.05528963e+02
409             	3.05529434e+02
410             	3.05529899e+02
411             	3.05530356e+02
412             	3.05530806e+02
413             	3.05531251e+02
414             	3.05531692e+02
415             	3.05532128e+02
416             	3.05532559e+02
417             	3.05532984e+02
418             	3.05533405e+02
419             	3.05533820e+02
420             	3.05534233e+02
421             	3.05534640e+02
422             	3.05535044e+02
423             	3.05535442e+02
424             	3.05535835e+02
425             	3.05536224e+02
426             	3.05536610e+02
427             	3.05536988e+02
428             	3.05537360e+02
429             	3.05537727e+02
430             	3.05538090e+02
431             	3.05538450e+02
432             	3.05538806e+02
433             	3.05539156e+02
434             	3.05539502e+02
435             	3.05539842e+02
436             	3.05540178e+02
437             	3.05540508e+02
438             	3.05540832e+02
439             	3.05541153e+02
440             	3.05541470e+02
441             	3.05541782e+02
442             	3.05542091e+02
443             	3.05542397e+02
444             	3.05542699e+02
445             	3.05542999e+02
446             	3.05543295e+02
447             	3.05543587e+02
448             	3.05543875e+02
449             	3.05544161e+02
450             	3.05544441e+02
451             	3.05544718e+02
452             	3.05544990e+02
453             	3.05545258e+02
454             	3.05545524e+02
455             	3.05545786e+02
456             	3.05546046e+02
457             	3.05546301e+02
458             	3.05546554e+02
459             	3.05546803e+02
460             	3.05547049e+02
461             	3.05547292e+02
462             	3.05547532e+02
463             	3.05547769e+02
464             	3.05548002e+02
465             	3.05548232e+02
466             	3.05548459e+02
467             	3.05548683e+02
468             	3.05548904e+02
469             	3.05549122e+02
470             	3.05549336e+02
471             	3.05549547e+02
472             	3.05549756e+02
473             	3.05549962e+02
474             	3.05550165e+02
475             	3.05550366e+02
476             	3.05550565e+02
477             	3.05550761e+02
478             	3.05550954e+02
479             	3.05551146e+02
480             	3.05551335e+02
481             	3.05551523e+02
482             	3.05551708e+02
483             	3.05551890e+02
484             	3.05552071e+02
485             	3.05552250e+02
486             	3.05552426e+02
487             	3.05552601e+02
488             	3.05552773e+02
489             	3.05552944e+02
490             	3.05553113e+02
491             	3.05553280e+02
492             	3.05553446e+02
493             	3.05553609e+02
494             	3.05553770e+02
495             	3.05553930e+02
496             	3.05554088e+02
497             	3.05554243e+02
498             	3.05554397e+02
499             	3.05554548e+02
500             	3.05554698e+02
501             	3.05554846e+02
502             	3.05554991e+02
503             	3.05555134e+02
504             	3.05555275e+02
505             	3.05555415e+02
506             	3.05555552e+02
507             	3.05555687e+02
508             	3.05555820e+02
509             	3.05555951e+02
510             	3.05556080e+02
511             	3.05556208e+02
512             	3.05556334e+02
513             	3.05556459e+02
514             	3.05556581e+02
515             	3.05556704e+02
516             	3.05556824e+02
517             	3.05556943e+02
518             	3.05557060e+02
519             	3.05557177e+02
520             	3.05557292e+02
521             	3.05557406e+02
522             	3.05557519e+02
523             	3.05557630e+02
524             	3.05557740e+02
525             	3.05557848e+02
526             	3.05557955e+02
527             	3.05558061e+02
528             	3.05558165e+02
529             	3.05558268e+02
530             	3.05558370e+02
531             	3.05558470e+02
532             	3.05558569e+02
533             	3.05558666e+02
534             	3.05558762e+02
535             	3.05558857e+02
536             	3.05558951e+02
537             	3.05559043e+02
538             	3.05559135e+02
539             	3.05559225e+02
540             	3.05559313e+02
541             	3.05559401e+02
542             	3.05559488e+02
543             	3.05559574e+02
544             	3.05559659e+02
545             	3.05559743e+02
546             	3.05559827e+02
547             	3.05559909e+02
548             	3.05559991e+02
549             	3.05560073e+02
550             	3.05560153e+02
551             	3.05560233e+02
552             	3.05560312e+02
553             	3.05560390e+02
554             	3.05560466e+02
555             	3.05560542e+02
556             	3.05560616e+02
557             	3.05560690e+02
558             	3.05560762e+02
559             	3.05560833e+02
560             	3.05560926e+02
561             	3.05561021e+02
562             	3.05561115e+02
563             	3.05561203e+02
564             	3.05561290e+02
565             	3.05561377e+02
566             	3.05561463e+02
567             	3.05561546e+02
568             	3.05561628e+02
569             	3.05561709e+02
570             	3.05561788e+02
571             	3.05561867e+02
572             	3.05561943e+02
573             	3.05562018e+02
574             	3.05562091e+02
575             	3.05562164e+02
576             	3.05562235e+02
577             	3.05562304e+02
578             	3.05562370e+02
579             	3.05562436e+02
580             	3.05562502e+02
581             	3.05562566e+02
582             	3.05562628e+02
583             	3.05562688e+02
584             	3.05562748e+02
585             	3.05562806e+02
586             	3.05562863e+02
587             	3.05562919e+02
588             	3.05562974e+02
589             	3.05563029e+02
590             	3.05563082e+02
591             	3.05563136e+02
592             	3.05563186e+02
593             	3.05563237e+02
594             	3.05563287e+02
595             	3.05563337e+02
596             	3.05563386e+02
597             	3.05563434e+02
598             	3.05563482e+02
599             	3.05563528e+02
600             	3.05563574e+02
601             	3.05563620e+02
602             	3.05563664e+02
603             	3.05563708e+02
604             	3.05563752e+02
605             	3.05563795e+02
606             	3.05563837e+02
607             	3.05563877e+02
608             	3.05563917e+02
609             	3.05563957e+02
610             	3.05563996e+02
611             	3.05564034e+02
612             	3.05564071e+02
613             	3.05564107e+02
614             	3.05564142e+02
615             	3.05564177e+02
616             	3.05564211e+02
617             	3.05564244e+02
618             	3.05564277e+02
619             	3.05564309e+02
620             	3.05564340e+02
621             	3.05564371e+02
