# Region        : cellZone component_4
# Cells         : 48
# Volume        : 8.04709246e-02
# Time          	volAverage(T)
1               	3.03464510e+02
2               	3.06864997e+02
3               	3.09606700e+02
4               	3.12002452e+02
5               	3.14365022e+02
6               	3.16746160e+02
7               	3.19110092e+02
8               	3.21437419e+02
9               	3.23753444e+02
10              	3.26056694e+02
11              	3.28325332e+02
12              	3.30570818e+02
13              	3.32784294e+02
14              	3.34963824e+02
15              	3.37080418e+02
16              	3.39035234e+02
17              	3.40768216e+02
18              	3.42338838e+02
19              	3.43744141e+02
20              	3.45169519e+02
21              	3.46630463e+02
22              	3.47992775e+02
23              	3.49248939e+02
24              	3.50463701e+02
25              	3.51624163e+02
26              	3.52722026e+02
27              	3.53768823e+02
28              	3.54753433e+02
29              	3.55719553e+02
30              	3.56839422e+02
31              	3.57773297e+02
32              	3.58609692e+02
33              	3.59259770e+02
34              	3.60096283e+02
35              	3.60965986e+02
36              	3.61793749e+02
37              	3.62585273e+02
38              	3.63347305e+02
39              	3.64046404e+02
40              	3.64689618e+02
41              	3.65392788e+02
42              	3.66112505e+02
43              	3.66742077e+02
44              	3.67359244e+02
45              	3.67949097e+02
46              	3.68621423e+02
47              	3.69362317e+02
48              	3.70130193e+02
49              	3.70866728e+02
50              	3.71603086e+02
51              	3.72326274e+02
52              	3.73041006e+02
53              	3.73749006e+02
54              	3.74434982e+02
55              	3.75056498e+02
56              	3.75637641e+02
57              	3.76148441e+02
58              	3.76581448e+02
59              	3.76958522e+02
60              	3.77357528e+02
61              	3.77769282e+02
62              	3.78215557e+02
63              	3.78700771e+02
64              	3.79217442e+02
65              	3.79758306e+02
66              	3.80314598e+02
67              	3.80851435e+02
68              	3.81372754e+02
69              	3.81834401e+02
70              	3.82250172e+02
71              	3.82627254e+02
72              	3.82979445e+02
73              	3.83304882e+02
74              	3.83591399e+02
75              	3.83880708e+02
76              	3.84139547e+02
77              	3.84417281e+02
78              	3.84728181e+02
79              	3.85097472e+02
80              	3.85456404e+02
81              	3.85855717e+02
82              	3.86177616e+02
83              	3.86532292e+02
84              	3.86906169e+02
85              	3.87228486e+02
86              	3.87519315e+02
87              	3.87768589e+02
88              	3.87994065e+02
89              	3.88203294e+02
90              	3.88404799e+02
91              	3.88601555e+02
92              	3.88784091e+02
93              	3.88998416e+02
94              	3.89236639e+02
95              	3.89526568e+02
96              	3.89784509e+02
97              	3.89986415e+02
98              	3.90160158e+02
99              	3.90323420e+02
100             	3.90476719e+02
101             	3.90618839e+02
102             	3.90748310e+02
103             	3.90869831e+02
104             	3.90969716e+02
105             	3.91044429e+02
106             	3.91065019e+02
107             	3.91111763e+02
108             	3.91148909e+02
109             	3.91228692e+02
110             	3.91350825e+02
111             	3.91527638e+02
112             	3.91698001e+02
113             	3.91889919e+02
114             	3.92057121e+02
115             	3.92201663e+02
116             	3.92325540e+02
117             	3.92421695e+02
118             	3.92490441e+02
119             	3.92538012e+02
120             	3.92594444e+02
121             	3.92668355e+02
122             	3.92716537e+02
123             	3.92766405e+02
124             	3.92829185e+02
125             	3.92907353e+02
126             	3.93002443e+02
127             	3.93096428e+02
128             	3.93205936e+02
129             	3.93293557e+02
130             	3.93386731e+02
131             	3.93474822e+02
132             	3.93556751e+02
133             	3.93636226e+02
134             	3.93712355e+02
135             	3.93778009e+02
136             	3.93834013e+02
137             	3.93828628e+02
138             	3.93866480e+02
139             	3.93884938e+02
140             	3.93916271e+02
141             	3.93967174e+02
142             	3.94029053e+02
143             	3.94093927e+02
144             	3.94116420e+02
145             	3.94144437e+02
146             	3.94174493e+02
147             	3.94197910e+02
148             	3.94218292e+02
149             	3.94241163e+02
150             	3.94270436e+02
151             	3.94304115e+02
152             	3.94333864e+02
153             	3.94364374e+02
154             	3.94406168e+02
155             	3.94396345e+02
156             	3.94384537e+02
157             	3.94376861e+02
158             	3.94368702e+02
159             	3.94359729e+02
160             	3.94359323e+02
161             	3.94352397e+02
162             	3.94352728e+02
163             	3.94364058e+02
164             	3.94383248e+02
165             	3.94406446e+02
166             	3.94429709e+02
167             	3.94450713e+02
168             	3.94440872e+02
169             	3.94435451e+02
170             	3.94430815e+02
171             	3.94422206e+02
172             	3.94406974e+02
173             	3.94386772e+02
174             	3.94362223e+02
175             	3.94332562e+02
176             	3.94295640e+02
177             	3.94261721e+02
178             	3.94228204e+02
179             	3.94199543e+02
180             	3.94180931e+02
181             	3.94171259e+02
182             	3.94153716e+02
183             	3.94134943e+02
184             	3.94120693e+02
185             	3.94105189e+02
186             	3.94087869e+02
187             	3.94069212e+02
188             	3.94051454e+02
189             	3.94017480e+02
190             	3.93986771e+02
191             	3.93958014e+02
192             	3.93929816e+02
193             	3.93900105e+02
194             	3.93867344e+02
195             	3.93828863e+02
196             	3.93785490e+02
197             	3.93738261e+02
198             	3.93696286e+02
199             	3.93656241e+02
200             	3.93613228e+02
201             	3.93574420e+02
202             	3.93538619e+02
203             	3.93503417e+02
204             	3.93470849e+02
205             	3.93439155e+02
206             	3.93408269e+02
207             	3.93376773e+02
208             	3.93347203e+02
209             	3.93316306e+02
210             	3.93283317e+02
211             	3.93246954e+02
212             	3.93203348e+02
213             	3.93163493e+02
214             	3.93123975e+02
215             	3.93084813e+02
216             	3.93043977e+02
217             	3.93002588e+02
218             	3.92959471e+02
219             	3.92910994e+02
220             	3.92865086e+02
221             	3.92818027e+02
222             	3.92769292e+02
223             	3.92725343e+02
224             	3.92682377e+02
225             	3.92641173e+02
226             	3.92599281e+02
227             	3.92558465e+02
228             	3.92512011e+02
229             	3.92470504e+02
230             	3.92428893e+02
231             	3.92388503e+02
232             	3.92346498e+02
233             	3.92303477e+02
234             	3.92258825e+02
235             	3.92214691e+02
236             	3.92168708e+02
237             	3.92124344e+02
238             	3.92076712e+02
239             	3.92028702e+02
240             	3.91982781e+02
241             	3.91938351e+02
242             	3.91893332e+02
243             	3.91848524e+02
244             	3.91805026e+02
245             	3.91762661e+02
246             	3.91720357e+02
247             	3.91677688e+02
248             	3.91634157e+02
249             	3.91593292e+02
250             	3.91552065e+02
251             	3.91510362e+02
252             	3.91468907e+02
253             	3.91427886e+02
254             	3.91385723e+02
255             	3.91342978e+02
256             	3.91300840e+02
257             	3.91259513e+02
258             	3.91217409e+02
259             	3.91174952e+02
260             	3.91133923e+02
261             	3.91093370e+02
262             	3.91052894e+02
263             	3.91011693e+02
264             	3.90971187e+02
265             	3.90931840e+02
266             	3.90892113e+02
267             	3.90852310e+02
268             	3.90813347e+02
269             	3.90775456e+02
270             	3.90737110e+02
271             	3.90699336e+02
272             	3.90661412e+02
273             	3.90624542e+02
274             	3.90587076e+02
275             	3.90549437e+02
276             	3.90512267e+02
277             	3.90474972e+02
278             	3.90437583e+02
279             	3.90400385e+02
280             	3.90364088e+02
281             	3.90328628e+02
282             	3.90292476e+02
283             	3.90256145e+02
284             	3.90220939e+02
285             	3.90186247e+02
286             	3.90151192e+02
287             	3.90116954e+02
288             	3.90082895e+02
289             	3.90049715e+02
290             	3.90016559e+02
291             	3.89983469e+02
292             	3.89951228e+02
293             	3.89917991e+02
294             	3.89885749e+02
295             	3.89853961e+02
296             	3.89822814e+02
297             	3.89792372e+02
298             	3.89761556e+02
299             	3.89730469e+02
300             	3.89700102e+02
301             	3.89670457e+02
302             	3.89640399e+02
303             	3.89609869e+02
304             	3.89580077e+02
305             	3.89551200e+02
306             	3.89522437e+02
307             	3.89493165e+02
308             	3.89464594e+02
309             	3.89436827e+02
310             	3.89409559e+02
311             	3.89381774e+02
312             	3.89354664e+02
313             	3.89328422e+02
314             	3.89302269e+02
315             	3.89275858e+02
316             	3.89250187e+02
317             	3.89224439e+02
318             	3.89199172e+02
319             	3.89173954e+02
320             	3.89149356e+02
321             	3.89125045e+02
322             	3.89100289e+02
323             	3.89075408e+02
324             	3.89051198e+02
325             	3.89027467e+02
326             	3.89003358e+02
327             	3.88979394e+02
328             	3.88955845e+02
329             	3.88933204e+02
330             	3.88910211e+02
331             	3.88887582e+02
332             	3.88865243e+02
333             	3.88843515e+02
334             	3.88821889e+02
335             	3.88800284e+02
336             	3.88779311e+02
337             	3.88758907e+02
338             	3.88738486e+02
339             	3.88717748e+02
340             	3.88697557e+02
341             	3.88677982e+02
342             	3.88658187e+02
343             	3.88638150e+02
344             	3.88618661e+02
345             	3.88599550e+02
346             	3.88580341e+02
347             	3.88560893e+02
348             	3.88541822e+02
349             	3.88523129e+02
350             	3.88504366e+02
351             	3.88485638e+02
352             	3.88467282e+02
353             	3.88449383e+02
354             	3.88431734e+02
355             	3.88413972e+02
356             	3.88396713e+02
357             	3.88380019e+02
358             	3.88363457e+02
359             	3.88346859e+02
360             	3.88330656e+02
361             	3.88314700e+02
362             	3.88298397e+02
363             	3.88282325e+02
364             	3.88266744e+02
365             	3.88251429e+02
366             	3.88236124e+02
367             	3.88220577e+02
368             	3.88205390e+02
369             	3.88190480e+02
370             	3.88175724e+02
371             	3.88160820e+02
372             	3.88146236e+02
373             	3.88132206e+02
374             	3.88118250e+02
375             	3.88104194e+02
376             	3.88090503e+02
377             	3.88077114e+02
378             	3.88063254e+02
379             	3.88049377e+02
380             	3.88036374e+02
381             	3.88023790e+02
382             	3.88011216e+02
383             	3.87998487e+02
384             	3.87985935e+02
385             	3.87973841e+02
386             	3.87961484e+02
387             	3.87949016e+02
388             	3.87937019e+02
389             	3.87925450e+02
390             	3.87913718e+02
391             	3.87902095e+02
392             	3.87890851e+02
393             	3.87879937e+02
394             	3.87869079e+02
395             	3.87857900e+02
396             	3.87847327e+02
397             	3.87836379e+02
398             	3.87825276e+02
399             	3.87814598e+02
400             	3.87804402e+02
401             	3.87794684e+02
402             	3.87784875e+02
403             	3.87774602e+02
404             	3.87764373e+02
405             	3.87754402e+02
406             	3.87744556e+02
407             	3.87734906e+02
408             	3.87725573e+02
409             	3.87716574e+02
410             	3.87707756e+02
411             	3.87698984e+02
412             	3.87690390e+02
413             	3.87682030e+02
414             	3.87673700e+02
415             	3.87665316e+02
416             	3.87657082e+02
417             	3.87649000e+02
418             	3.87640880e+02
419             	3.87632944e+02
420             	3.87625221e+02
421             	3.87617613e+02
422             	3.87609948e+02
423             	3.87602148e+02
424             	3.87594573e+02
425             	3.87587075e+02
426             	3.87579578e+02
427             	3.87572063e+02
428             	3.87564734e+02
429             	3.87557674e+02
430             	3.87550760e+02
431             	3.87543927e+02
432             	3.87537243e+02
433             	3.87530865e+02
434             	3.87524467e+02
435             	3.87518071e+02
436             	3.87511820e+02
437             	3.87505710e+02
438             	3.87499618e+02
439             	3.87493567e+02
440             	3.87487590e+02
441             	3.87481746e+02
442             	3.87475951e+02
443             	3.87470168e+02
444             	3.87464468e+02
445             	3.87458970e+02
446             	3.87453546e+02
447             	3.87448150e+02
448             	3.87442832e+02
449             	3.87437688e+02
450             	3.87432530e+02
451             	3.87427389e+02
452             	3.87422354e+02
453             	3.87417443e+02
454             	3.87412523e+02
455             	3.87407845e+02
456             	3.87402978e+02
457             	3.87398196e+02
458             	3.87393435e+02
459             	3.87389049e+02
460             	3.87384555e+02
461             	3.87380089e+02
462             	3.87375677e+02
463             	3.87371587e+02
464             	3.87367348e+02
465             	3.87363255e+02
466             	3.87359129e+02
467             	3.87355250e+02
468             	3.87351298e+02
469             	3.87347412e+02
470             	3.87343588e+02
471             	3.87339997e+02
472             	3.87336308e+02
473             	3.87332712e+02
474             	3.87329195e+02
475             	3.87325933e+02
476             	3.87322314e+02
477             	3.87318981e+02
478             	3.87315782e+02
479             	3.87312798e+02
480             	3.87309631e+02
481             	3.87306573e+02
482             	3.87303557e+02
483             	3.87300723e+02
484             	3.87297805e+02
485             	3.87294920e+02
486             	3.87292107e+02
487             	3.87289444e+02
488             	3.87286733e+02
489             	3.87284098e+02
490             	3.87281510e+02
491             	3.87279119e+02
492             	3.87276605e+02
493             	3.87274145e+02
494             	3.87271730e+02
495             	3.87269505e+02
496             	3.87267208e+02
497             	3.87264973e+02
498             	3.87262798e+02
499             	3.87260772e+02
500             	3.87258688e+02
501             	3.87256661e+02
502             	3.87254651e+02
503             	3.87252769e+02
504             	3.87250825e+02
505             	3.87248924e+02
506             	3.87247021e+02
507             	3.87245268e+02
508             	3.87243454e+02
509             	3.87241682e+02
510             	3.87239974e+02
511             	3.87238392e+02
512             	3.87236757e+02
513             	3.87235171e+02
514             	3.87233623e+02
515             	3.87232193e+02
516             	3.87230227e+02
517             	3.87228528e+02
518             	3.87227020e+02
519             	3.87225717e+02
520             	3.87224447e+02
521             	3.87223211e+02
522             	3.87221975e+02
523             	3.87220812e+02
524             	3.87219691e+02
525             	3.87218601e+02
526             	3.87217387e+02
527             	3.87216233e+02
528             	3.87215061e+02
529             	3.87213926e+02
530             	3.87212877e+02
531             	3.87211990e+02
532             	3.87211094e+02
533             	3.87210246e+02
534             	3.87209281e+02
535             	3.87208540e+02
536             	3.87207814e+02
537             	3.87207032e+02
538             	3.87206210e+02
539             	3.87205405e+02
540             	3.87204572e+02
541             	3.87203731e+02
542             	3.87202903e+02
543             	3.87202120e+02
544             	3.87201322e+02
545             	3.87200545e+02
546             	3.87199809e+02
547             	3.87199163e+02
548             	3.87198512e+02
549             	3.87197895e+02
550             	3.87197302e+02
551             	3.87196777e+02
552             	3.87196234e+02
553             	3.87195568e+02
554             	3.87194990e+02
555             	3.87194481e+02
556             	3.87193994e+02
557             	3.87193488e+02
558             	3.87192975e+02
559             	3.87192503e+02
560             	3.87192033e+02
561             	3.87191564e+02
562             	3.87191105e+02
563             	3.87190702e+02
564             	3.87190317e+02
565             	3.87189939e+02
566             	3.87189575e+02
567             	3.87189259e+02
568             	3.87188944e+02
569             	3.87188660e+02
570             	3.87188387e+02
571             	3.87188141e+02
572             	3.87187861e+02
573             	3.87187608e+02
574             	3.87187369e+02
575             	3.87187146e+02
576             	3.87186921e+02
577             	3.87186719e+02
578             	3.87186552e+02
579             	3.87186384e+02
580             	3.87186235e+02
581             	3.87186114e+02
582             	3.87186070e+02
583             	3.87186046e+02
584             	3.87186039e+02
585             	3.87186052e+02
586             	3.87186137e+02
587             	3.87186246e+02
588             	3.87186365e+02
589             	3.87186499e+02
590             	3.87186638e+02
591             	3.87186759e+02
592             	3.87186882e+02
593             	3.87186983e+02
594             	3.87187052e+02
595             	3.87187088e+02
596             	3.87187145e+02
597             	3.87187167e+02
598             	3.87187185e+02
599             	3.87187219e+02
600             	3.87187277e+02
601             	3.87187366e+02
602             	3.87187495e+02
603             	3.87187665e+02
604             	3.87187868e+02
605             	3.87188115e+02
606             	3.87188332e+02
607             	3.87188597e+02
608             	3.87188886e+02
609             	3.87189173e+02
610             	3.87189455e+02
611             	3.87189708e+02
612             	3.87189965e+02
613             	3.87190209e+02
614             	3.87190443e+02
615             	3.87190658e+02
616             	3.87190881e+02
617             	3.87191106e+02
618             	3.87191328e+02
619             	3.87191549e+02
620             	3.87191777e+02
621             	3.87192014e+02
