# Region        : cellZone component_3
# Cells         : 11
# Volume        : 6.55281286e-03
# Time          	volAverage(T)
1               	3.10309490e+02
2               	3.20278354e+02
3               	3.26719879e+02
4               	3.31586973e+02
5               	3.36237180e+02
6               	3.40917924e+02
7               	3.45606876e+02
8               	3.50360022e+02
9               	3.55310541e+02
10              	3.60149761e+02
11              	3.64740224e+02
12              	3.69096082e+02
13              	3.73342042e+02
14              	3.77437768e+02
15              	3.80858889e+02
16              	3.83382812e+02
17              	3.85489707e+02
18              	3.87276821e+02
19              	3.89074008e+02
20              	3.90858732e+02
21              	3.92393791e+02
22              	3.93570257e+02
23              	3.94737155e+02
24              	3.96507354e+02
25              	3.98979677e+02
26              	4.01289321e+02
27              	4.03741715e+02
28              	4.05481267e+02
29              	4.06845375e+02
30              	4.08417515e+02
31              	4.09949206e+02
32              	4.11772622e+02
33              	4.13466101e+02
34              	4.14941229e+02
35              	4.15795026e+02
36              	4.15892179e+02
37              	4.15837826e+02
38              	4.15615704e+02
39              	4.15117481e+02
40              	4.14664396e+02
41              	4.14456706e+02
42              	4.14473099e+02
43              	4.14855000e+02
44              	4.15609528e+02
45              	4.16753030e+02
46              	4.17924179e+02
47              	4.18577783e+02
48              	4.18835264e+02
49              	4.18878258e+02
50              	4.19226725e+02
51              	4.19998383e+02
52              	4.20613620e+02
53              	4.21172779e+02
54              	4.21928136e+02
55              	4.22720862e+02
56              	4.23304810e+02
57              	4.23612418e+02
58              	4.23886891e+02
59              	4.24380572e+02
60              	4.25159602e+02
61              	4.25682629e+02
62              	4.25549240e+02
63              	4.25063283e+02
64              	4.24974161e+02
65              	4.25155858e+02
66              	4.25462665e+02
67              	4.26245208e+02
68              	4.27062561e+02
69              	4.27490861e+02
70              	4.27685698e+02
71              	4.28234128e+02
72              	4.28820804e+02
73              	4.29338396e+02
74              	4.29875175e+02
75              	4.29840093e+02
76              	4.29856410e+02
77              	4.29713911e+02
78              	4.29541940e+02
79              	4.30025489e+02
80              	4.30072599e+02
81              	4.30445079e+02
82              	4.30694479e+02
83              	4.30862219e+02
84              	4.31197980e+02
85              	4.31817421e+02
86              	4.32539626e+02
87              	4.32568670e+02
88              	4.32344855e+02
89              	4.32291842e+02
90              	4.32279210e+02
91              	4.32617801e+02
92              	4.32845227e+02
93              	4.33165370e+02
94              	4.33673323e+02
95              	4.33703248e+02
96              	4.33952596e+02
97              	4.34393728e+02
98              	4.34744171e+02
99              	4.35014134e+02
100             	4.35136498e+02
101             	4.35268544e+02
102             	4.35422105e+02
103             	4.35412828e+02
104             	4.35440608e+02
105             	4.35495736e+02
106             	4.35562913e+02
107             	4.35814194e+02
108             	4.36050273e+02
109             	4.36097720e+02
110             	4.36282946e+02
111             	4.36414746e+02
112             	4.36663918e+02
113             	4.36942249e+02
114             	4.37227439e+02
115             	4.37318460e+02
116             	4.37462149e+02
117             	4.37660136e+02
118             	4.37841557e+02
119             	4.37976728e+02
120             	4.38093183e+02
121             	4.38125483e+02
122             	4.38111846e+02
123             	4.38070462e+02
124             	4.38147691e+02
125             	4.38038144e+02
126             	4.38018700e+02
127             	4.37905361e+02
128             	4.38028694e+02
129             	4.37997908e+02
130             	4.38122440e+02
131             	4.38159326e+02
132             	4.38301629e+02
133             	4.38333150e+02
134             	4.38507611e+02
135             	4.38399599e+02
136             	4.38332985e+02
137             	4.38300129e+02
138             	4.38277484e+02
139             	4.38231310e+02
140             	4.38090610e+02
141             	4.37871209e+02
142             	4.37616012e+02
143             	4.37350839e+02
144             	4.37076811e+02
145             	4.36697752e+02
146             	4.36405673e+02
147             	4.36036994e+02
148             	4.35770013e+02
149             	4.35447244e+02
150             	4.35280109e+02
151             	4.35040508e+02
152             	4.34978201e+02
153             	4.34824945e+02
154             	4.34809857e+02
155             	4.34681354e+02
156             	4.34695420e+02
157             	4.34614166e+02
158             	4.34714318e+02
159             	4.34729635e+02
160             	4.34883228e+02
161             	4.34916848e+02
162             	4.35095714e+02
163             	4.35179824e+02
164             	4.35402908e+02
165             	4.35484314e+02
166             	4.35660637e+02
167             	4.35679432e+02
168             	4.35764915e+02
169             	4.35753067e+02
170             	4.35783252e+02
171             	4.35685179e+02
172             	4.35612242e+02
173             	4.35430188e+02
174             	4.35327919e+02
175             	4.35105095e+02
176             	4.34951948e+02
177             	4.34696462e+02
178             	4.34583885e+02
179             	4.34337120e+02
180             	4.34257213e+02
181             	4.34083933e+02
182             	4.34074563e+02
183             	4.33960639e+02
184             	4.34001093e+02
185             	4.33957708e+02
186             	4.34052635e+02
187             	4.34019899e+02
188             	4.34073412e+02
189             	4.34006215e+02
190             	4.34002141e+02
191             	4.33938948e+02
192             	4.33918221e+02
193             	4.33805993e+02
194             	4.33738359e+02
195             	4.33606341e+02
196             	4.33610398e+02
197             	4.33507160e+02
198             	4.33513261e+02
199             	4.33395404e+02
200             	4.33278129e+02
201             	4.33188379e+02
202             	4.33113121e+02
203             	4.33042844e+02
204             	4.32979725e+02
205             	4.32924742e+02
206             	4.32877856e+02
207             	4.32822634e+02
208             	4.32838478e+02
209             	4.32711423e+02
210             	4.32626259e+02
211             	4.32448884e+02
212             	4.32357776e+02
213             	4.32165270e+02
214             	4.32040374e+02
215             	4.31801549e+02
216             	4.31639091e+02
217             	4.31361677e+02
218             	4.31199696e+02
219             	4.31050484e+02
220             	4.30905873e+02
221             	4.30777574e+02
222             	4.30665396e+02
223             	4.30565354e+02
224             	4.30483515e+02
225             	4.30450331e+02
226             	4.30447027e+02
227             	4.30451941e+02
228             	4.30450512e+02
229             	4.30453401e+02
230             	4.30467932e+02
231             	4.30481205e+02
232             	4.30585666e+02
233             	4.30534078e+02
234             	4.30532675e+02
235             	4.30440836e+02
236             	4.30438648e+02
237             	4.30353983e+02
238             	4.30360924e+02
239             	4.30244591e+02
240             	4.30248855e+02
241             	4.30140216e+02
242             	4.30160014e+02
243             	4.30044456e+02
244             	4.30028495e+02
245             	4.29889658e+02
246             	4.29857973e+02
247             	4.29740802e+02
248             	4.29766339e+02
249             	4.29701608e+02
250             	4.29757320e+02
251             	4.29704076e+02
252             	4.29767556e+02
253             	4.29712427e+02
254             	4.29799277e+02
255             	4.29771628e+02
256             	4.29845185e+02
257             	4.29782957e+02
258             	4.29802413e+02
259             	4.29722435e+02
260             	4.29762417e+02
261             	4.29693494e+02
262             	4.29717976e+02
263             	4.29619424e+02
264             	4.29625136e+02
265             	4.29521765e+02
266             	4.29558217e+02
267             	4.29481947e+02
268             	4.29519113e+02
269             	4.29430604e+02
270             	4.29448417e+02
271             	4.29365087e+02
272             	4.29418983e+02
273             	4.29380202e+02
274             	4.29446844e+02
275             	4.29398917e+02
276             	4.29446497e+02
277             	4.29388731e+02
278             	4.29465762e+02
279             	4.29434445e+02
280             	4.29511071e+02
281             	4.29458943e+02
282             	4.29507063e+02
283             	4.29443754e+02
284             	4.29522477e+02
285             	4.29496056e+02
286             	4.29575022e+02
287             	4.29532875e+02
288             	4.29580284e+02
289             	4.29521979e+02
290             	4.29591137e+02
291             	4.29555275e+02
292             	4.29618397e+02
293             	4.29556944e+02
294             	4.29585572e+02
295             	4.29502778e+02
296             	4.29547783e+02
297             	4.29481257e+02
298             	4.29518085e+02
299             	4.29425523e+02
300             	4.29430483e+02
301             	4.29326108e+02
302             	4.29357746e+02
303             	4.29279103e+02
304             	4.29309361e+02
305             	4.29215212e+02
306             	4.29225148e+02
307             	4.29130779e+02
308             	4.29178173e+02
309             	4.29122165e+02
310             	4.29179660e+02
311             	4.29115815e+02
312             	4.29158439e+02
313             	4.29095891e+02
314             	4.29173453e+02
315             	4.29142590e+02
316             	4.29220210e+02
317             	4.29169494e+02
318             	4.29220999e+02
319             	4.29161984e+02
320             	4.29237931e+02
321             	4.29204052e+02
322             	4.29276755e+02
323             	4.29226978e+02
324             	4.29273080e+02
325             	4.29213734e+02
326             	4.29286046e+02
327             	4.29249867e+02
328             	4.29320362e+02
329             	4.29264726e+02
330             	4.29310697e+02
331             	4.29247997e+02
332             	4.29320659e+02
333             	4.29281794e+02
334             	4.29346175e+02
335             	4.29280993e+02
336             	4.29307411e+02
337             	4.29231014e+02
338             	4.29284126e+02
339             	4.29232150e+02
340             	4.29274662e+02
341             	4.29194011e+02
342             	4.29198569e+02
343             	4.29109560e+02
344             	4.29157473e+02
345             	4.29098451e+02
346             	4.29142408e+02
347             	4.29061977e+02
348             	4.29093079e+02
349             	4.29019670e+02
350             	4.29089010e+02
351             	4.29050991e+02
352             	4.29128121e+02
353             	4.29082514e+02
354             	4.29142839e+02
355             	4.29098060e+02
356             	4.29192629e+02
357             	4.29181654e+02
358             	4.29279817e+02
359             	4.29258150e+02
360             	4.29331812e+02
361             	4.29302631e+02
362             	4.29406831e+02
363             	4.29403915e+02
364             	4.29510657e+02
365             	4.29480632e+02
366             	4.29545918e+02
367             	4.29495004e+02
368             	4.29578041e+02
369             	4.29542426e+02
370             	4.29603286e+02
371             	4.29530119e+02
372             	4.29550801e+02
373             	4.29459254e+02
374             	4.29359263e+02
375             	4.29287005e+02
376             	4.29221074e+02
377             	4.29159041e+02
378             	4.29100317e+02
379             	4.29045477e+02
380             	4.28994283e+02
381             	4.28946405e+02
382             	4.28901876e+02
383             	4.28861532e+02
384             	4.28823746e+02
385             	4.28782534e+02
386             	4.28743702e+02
387             	4.28707571e+02
388             	4.28673367e+02
389             	4.28751710e+02
390             	4.28692168e+02
391             	4.28650960e+02
392             	4.28652002e+02
393             	4.28672997e+02
394             	4.28695625e+02
395             	4.28711911e+02
396             	4.28719283e+02
397             	4.28741269e+02
398             	4.28783741e+02
399             	4.28838125e+02
400             	4.28887396e+02
401             	4.28924250e+02
402             	4.29061716e+02
403             	4.29074426e+02
404             	4.29215483e+02
405             	4.29358143e+02
406             	4.29356589e+02
407             	4.29336824e+02
408             	4.29316455e+02
409             	4.29297764e+02
410             	4.29279889e+02
411             	4.29261810e+02
412             	4.29243920e+02
413             	4.29226407e+02
414             	4.29208853e+02
415             	4.29191694e+02
416             	4.29174621e+02
417             	4.29275966e+02
418             	4.29246238e+02
419             	4.29196394e+02
420             	4.29251951e+02
421             	4.29188019e+02
422             	4.29262135e+02
423             	4.29223508e+02
424             	4.29300248e+02
425             	4.29237422e+02
426             	4.29173349e+02
427             	4.29117654e+02
428             	4.29068414e+02
429             	4.29024208e+02
430             	4.28984492e+02
431             	4.28948919e+02
432             	4.28917225e+02
433             	4.28889276e+02
434             	4.29014304e+02
435             	4.29145476e+02
436             	4.29143607e+02
437             	4.29145562e+02
438             	4.29280987e+02
439             	4.29302158e+02
440             	4.29323751e+02
441             	4.29340174e+02
442             	4.29333199e+02
443             	4.29409460e+02
444             	4.29362820e+02
445             	4.29438812e+02
446             	4.29403861e+02
447             	4.29464411e+02
448             	4.29395524e+02
449             	4.29425844e+02
450             	4.29342764e+02
451             	4.29399925e+02
452             	4.29342517e+02
453             	4.29387810e+02
454             	4.29301440e+02
455             	4.29318043e+02
456             	4.29221734e+02
457             	4.29265023e+02
458             	4.29190936e+02
459             	4.29228888e+02
460             	4.29143034e+02
461             	4.29155739e+02
462             	4.29061507e+02
463             	4.29106901e+02
464             	4.29050259e+02
465             	4.29102077e+02
466             	4.29028175e+02
467             	4.29060796e+02
468             	4.28990023e+02
469             	4.29065536e+02
470             	4.29029585e+02
471             	4.29111870e+02
472             	4.29063067e+02
473             	4.29126468e+02
474             	4.29078206e+02
475             	4.29175017e+02
476             	4.29164168e+02
477             	4.29267960e+02
478             	4.29241371e+02
479             	4.29316934e+02
480             	4.29278841e+02
481             	4.29382191e+02
482             	4.29367499e+02
483             	4.29458290e+02
484             	4.29416177e+02
485             	4.29476860e+02
486             	4.29416842e+02
487             	4.29493888e+02
488             	4.29447858e+02
489             	4.29505627e+02
490             	4.29571020e+02
491             	4.29632913e+02
492             	4.29551781e+02
493             	4.29462197e+02
494             	4.29378002e+02
495             	4.29299870e+02
496             	4.29227244e+02
497             	4.29159644e+02
498             	4.29097298e+02
499             	4.29039117e+02
500             	4.28984847e+02
501             	4.28934462e+02
502             	4.28986017e+02
503             	4.28911277e+02
504             	4.28947145e+02
505             	4.28883317e+02
506             	4.28936161e+02
507             	4.28862807e+02
508             	4.28896418e+02
509             	4.28801594e+02
510             	4.28833838e+02
511             	4.28776323e+02
512             	4.28850140e+02
513             	4.28804219e+02
514             	4.28877390e+02
515             	4.28815138e+02
516             	4.28884347e+02
517             	4.28854655e+02
518             	4.28954902e+02
519             	4.28924272e+02
520             	4.28985436e+02
521             	4.28918727e+02
522             	4.28974360e+02
523             	4.28931132e+02
524             	4.29005868e+02
525             	4.28957680e+02
526             	4.29010031e+02
527             	4.28933833e+02
528             	4.28976471e+02
529             	4.28926316e+02
530             	4.28997998e+02
531             	4.28943745e+02
532             	4.28991509e+02
533             	4.28905817e+02
534             	4.28946267e+02
535             	4.28885215e+02
536             	4.28944873e+02
537             	4.28877523e+02
538             	4.28911549e+02
539             	4.28814354e+02
540             	4.28839186e+02
541             	4.28769261e+02
542             	4.28823013e+02
543             	4.28754976e+02
544             	4.28793988e+02
545             	4.28704659e+02
546             	4.28739408e+02
547             	4.28683269e+02
548             	4.28750376e+02
549             	4.28699460e+02
550             	4.28754160e+02
551             	4.28816793e+02
552             	4.28755984e+02
553             	4.28686250e+02
554             	4.28759839e+02
555             	4.28731467e+02
556             	4.28820999e+02
557             	4.28787372e+02
558             	4.28887638e+02
559             	4.28889092e+02
560             	4.29016345e+02
561             	4.29007318e+02
562             	4.29095584e+02
563             	4.29037654e+02
564             	4.29092274e+02
565             	4.29051669e+02
566             	4.29119098e+02
567             	4.29063783e+02
568             	4.29095895e+02
569             	4.29004759e+02
570             	4.29031748e+02
571             	4.28982065e+02
572             	4.29050922e+02
573             	4.28988046e+02
574             	4.29035423e+02
575             	4.28949546e+02
576             	4.28992383e+02
577             	4.28935311e+02
578             	4.29001607e+02
579             	4.28934597e+02
580             	4.28960935e+02
581             	4.28876686e+02
582             	4.28910423e+02
583             	4.28856162e+02
584             	4.28919260e+02
585             	4.28865020e+02
586             	4.28924307e+02
587             	4.28862391e+02
588             	4.28934254e+02
589             	4.28907969e+02
590             	4.29012569e+02
591             	4.28990422e+02
592             	4.29073672e+02
593             	4.29024666e+02
594             	4.29099193e+02
595             	4.29072198e+02
596             	4.29161425e+02
597             	4.29123957e+02
598             	4.29188771e+02
599             	4.29122809e+02
600             	4.29175588e+02
601             	4.29129889e+02
602             	4.29209526e+02
603             	4.29164814e+02
604             	4.29228729e+02
605             	4.29157742e+02
606             	4.29212764e+02
607             	4.29165292e+02
608             	4.29243055e+02
609             	4.29191196e+02
610             	4.29242584e+02
611             	4.29156397e+02
612             	4.29178276e+02
613             	4.29113765e+02
614             	4.29165437e+02
615             	4.29096535e+02
616             	4.29124379e+02
617             	4.29030352e+02
618             	4.29060031e+02
619             	4.29001941e+02
620             	4.29070358e+02
621             	4.29019264e+02
