# Region        : cellZone component_0
# Cells         : 561
# Volume        : 1.10341309e+00
# Time          	volAverage(T)
1               	3.00105751e+02
2               	3.00210845e+02
3               	3.00311971e+02
4               	3.00410356e+02
5               	3.00507288e+02
6               	3.00603025e+02
7               	3.00697762e+02
8               	3.00791573e+02
9               	3.00884725e+02
10              	3.00977293e+02
11              	3.01068750e+02
12              	3.01159461e+02
13              	3.01249517e+02
14              	3.01339369e+02
15              	3.01428420e+02
16              	3.01516674e+02
17              	3.01602742e+02
18              	3.01689270e+02
19              	3.01776240e+02
20              	3.01861935e+02
21              	3.01945600e+02
22              	3.02027571e+02
23              	3.02110022e+02
24              	3.02190267e+02
25              	3.02269155e+02
26              	3.02347227e+02
27              	3.02423256e+02
28              	3.02499515e+02
29              	3.02575624e+02
30              	3.02652307e+02
31              	3.02728046e+02
32              	3.02801199e+02
33              	3.02874061e+02
34              	3.02945424e+02
35              	3.03015537e+02
36              	3.03084485e+02
37              	3.03152812e+02
38              	3.03222031e+02
39              	3.03288852e+02
40              	3.03356890e+02
41              	3.03422858e+02
42              	3.03490035e+02
43              	3.03555348e+02
44              	3.03621019e+02
45              	3.03689825e+02
46              	3.03754973e+02
47              	3.03818830e+02
48              	3.03881101e+02
49              	3.03943489e+02
50              	3.04005409e+02
51              	3.04068042e+02
52              	3.04130053e+02
53              	3.04192101e+02
54              	3.04254996e+02
55              	3.04321275e+02
56              	3.04385450e+02
57              	3.04447918e+02
58              	3.04509279e+02
59              	3.04570643e+02
60              	3.04633362e+02
61              	3.04696225e+02
62              	3.04756564e+02
63              	3.04815662e+02
64              	3.04873365e+02
65              	3.04927836e+02
66              	3.04985226e+02
67              	3.05038199e+02
68              	3.05079032e+02
69              	3.05112384e+02
70              	3.05143001e+02
71              	3.05175358e+02
72              	3.05208446e+02
73              	3.05240824e+02
74              	3.05274806e+02
75              	3.05311904e+02
76              	3.05349203e+02
77              	3.05389120e+02
78              	3.05432799e+02
79              	3.05478993e+02
80              	3.05520581e+02
81              	3.05556473e+02
82              	3.05590189e+02
83              	3.05620245e+02
84              	3.05649528e+02
85              	3.05679616e+02
86              	3.05714596e+02
87              	3.05752666e+02
88              	3.05789264e+02
89              	3.05821041e+02
90              	3.05854409e+02
91              	3.05890199e+02
92              	3.05926389e+02
93              	3.05964474e+02
94              	3.06001111e+02
95              	3.06033495e+02
96              	3.06063528e+02
97              	3.06092464e+02
98              	3.06123272e+02
99              	3.06154895e+02
100             	3.06183281e+02
101             	3.06211752e+02
102             	3.06243718e+02
103             	3.06275057e+02
104             	3.06309714e+02
105             	3.06335936e+02
106             	3.06356385e+02
107             	3.06377175e+02
108             	3.06397049e+02
109             	3.06421538e+02
110             	3.06449959e+02
111             	3.06478734e+02
112             	3.06508508e+02
113             	3.06539661e+02
114             	3.06571976e+02
115             	3.06604255e+02
116             	3.06635938e+02
117             	3.06668437e+02
118             	3.06702277e+02
119             	3.06738396e+02
120             	3.06773590e+02
121             	3.06809714e+02
122             	3.06844376e+02
123             	3.06876111e+02
124             	3.06906358e+02
125             	3.06933420e+02
126             	3.06963658e+02
127             	3.06991978e+02
128             	3.07018980e+02
129             	3.07045633e+02
130             	3.07073891e+02
131             	3.07103672e+02
132             	3.07132486e+02
133             	3.07163430e+02
134             	3.07197235e+02
135             	3.07230552e+02
136             	3.07261811e+02
137             	3.07292770e+02
138             	3.07322705e+02
139             	3.07354100e+02
140             	3.07386759e+02
141             	3.07418037e+02
142             	3.07445764e+02
143             	3.07475291e+02
144             	3.07508654e+02
145             	3.07541705e+02
146             	3.07570627e+02
147             	3.07598853e+02
148             	3.07621671e+02
149             	3.07633050e+02
150             	3.07643305e+02
151             	3.07654691e+02
152             	3.07661174e+02
153             	3.07662889e+02
154             	3.07669153e+02
155             	3.07682976e+02
156             	3.07699178e+02
157             	3.07714866e+02
158             	3.07730348e+02
159             	3.07742462e+02
160             	3.07755996e+02
161             	3.07775291e+02
162             	3.07802007e+02
163             	3.07820486e+02
164             	3.07825110e+02
165             	3.07837346e+02
166             	3.07863912e+02
167             	3.07882851e+02
168             	3.07874529e+02
169             	3.07872469e+02
170             	3.07893548e+02
171             	3.07928032e+02
172             	3.07947514e+02
173             	3.07926440e+02
174             	3.07892672e+02
175             	3.07906428e+02
176             	3.07960575e+02
177             	3.07994731e+02
178             	3.07963445e+02
179             	3.07901773e+02
180             	3.07892118e+02
181             	3.07956165e+02
182             	3.08031264e+02
183             	3.08009745e+02
184             	3.07929723e+02
185             	3.07908982e+02
186             	3.07989134e+02
187             	3.08072548e+02
188             	3.08044459e+02
189             	3.07947110e+02
190             	3.07927196e+02
191             	3.08035424e+02
192             	3.08126934e+02
193             	3.08069223e+02
194             	3.07943709e+02
195             	3.07949931e+02
196             	3.08104792e+02
197             	3.08198591e+02
198             	3.08094714e+02
199             	3.07942756e+02
200             	3.07977055e+02
201             	3.08176115e+02
202             	3.08265287e+02
203             	3.08112121e+02
204             	3.07939806e+02
205             	3.08014069e+02
206             	3.08261360e+02
207             	3.08338122e+02
208             	3.08130937e+02
209             	3.07940195e+02
210             	3.08062335e+02
211             	3.08354614e+02
212             	3.08394902e+02
213             	3.08116513e+02
214             	3.07912716e+02
215             	3.08098428e+02
216             	3.08449815e+02
217             	3.08449732e+02
218             	3.08087768e+02
219             	3.07880403e+02
220             	3.08160486e+02
221             	3.08565926e+02
222             	3.08495345e+02
223             	3.08033579e+02
224             	3.07838245e+02
225             	3.08236712e+02
226             	3.08696538e+02
227             	3.08526602e+02
228             	3.07980839e+02
229             	3.07813818e+02
230             	3.08290670e+02
231             	3.08760510e+02
232             	3.08522066e+02
233             	3.07933847e+02
234             	3.07803606e+02
235             	3.08340106e+02
236             	3.08830526e+02
237             	3.08534607e+02
238             	3.07945069e+02
239             	3.07849904e+02
240             	3.08444254e+02
241             	3.08912229e+02
242             	3.08544825e+02
243             	3.07925150e+02
244             	3.07886114e+02
245             	3.08516243e+02
246             	3.08937816e+02
247             	3.08511536e+02
248             	3.07903778e+02
249             	3.07934912e+02
250             	3.08591025e+02
251             	3.08943940e+02
252             	3.08457342e+02
253             	3.07879943e+02
254             	3.07998965e+02
255             	3.08673833e+02
256             	3.08934700e+02
257             	3.08384739e+02
258             	3.07857126e+02
259             	3.08086299e+02
260             	3.08795710e+02
261             	3.08931584e+02
262             	3.08315901e+02
263             	3.07851796e+02
264             	3.08191909e+02
265             	3.08876337e+02
266             	3.08888941e+02
267             	3.08223612e+02
268             	3.07812749e+02
269             	3.08250534e+02
270             	3.08948751e+02
271             	3.08860446e+02
272             	3.08140900e+02
273             	3.07773732e+02
274             	3.08301996e+02
275             	3.09021408e+02
276             	3.08849768e+02
277             	3.08104520e+02
278             	3.07789705e+02
279             	3.08381844e+02
280             	3.09107121e+02
281             	3.08886725e+02
282             	3.08118794e+02
283             	3.07845921e+02
284             	3.08475191e+02
285             	3.09173326e+02
286             	3.08888797e+02
287             	3.08095618e+02
288             	3.07843185e+02
289             	3.08492165e+02
290             	3.09147276e+02
291             	3.08833281e+02
292             	3.08052906e+02
293             	3.07837535e+02
294             	3.08514280e+02
295             	3.09146487e+02
296             	3.08780346e+02
297             	3.08006376e+02
298             	3.07853958e+02
299             	3.08573888e+02
300             	3.09173675e+02
301             	3.08772086e+02
302             	3.08029779e+02
303             	3.07943613e+02
304             	3.08685712e+02
305             	3.09214425e+02
306             	3.08725761e+02
307             	3.07994117e+02
308             	3.08003833e+02
309             	3.08765344e+02
310             	3.09189437e+02
311             	3.08639670e+02
312             	3.07959514e+02
313             	3.08073162e+02
314             	3.08833030e+02
315             	3.09143650e+02
316             	3.08523031e+02
317             	3.07602477e+02
318             	3.07804542e+02
319             	3.08590419e+02
320             	3.08799907e+02
321             	3.08229390e+02
322             	3.07913145e+02
323             	3.08660555e+02
324             	3.09794562e+02
325             	3.10076309e+02
326             	3.09500072e+02
327             	3.09249686e+02
328             	3.10009338e+02
329             	3.10984117e+02
330             	3.11039446e+02
331             	3.10391656e+02
332             	3.10589414e+02
333             	3.11812691e+02
334             	3.12748941e+02
335             	3.12340860e+02
336             	3.11454887e+02
337             	3.11560600e+02
338             	3.12863175e+02
339             	3.14096303e+02
340             	3.13950649e+02
341             	3.13240770e+02
342             	3.13319164e+02
343             	3.14641079e+02
344             	3.15479424e+02
345             	3.14436572e+02
346             	3.13316763e+02
347             	3.13594069e+02
348             	3.15062057e+02
349             	3.15969511e+02
350             	3.15272825e+02
351             	2.60689386e+02
352             	2.84294022e+02
353             	2.84302768e+02
354             	3.87274607e+02
355             	2.50000000e+02
356             	2.88668117e+02
357             	2.50000000e+02
358             	2.93271534e+02
