# Region        : cellZone component_2
# Cells         : 83
# Volume        : 1.63365273e-01
# Time          	volAverage(T)
1               	3.00502740e+02
2               	3.00996622e+02
3               	3.01453467e+02
4               	3.01881859e+02
5               	3.02290256e+02
6               	3.02683035e+02
7               	3.03064370e+02
8               	3.03435359e+02
9               	3.03799119e+02
10              	3.04157871e+02
11              	3.04511591e+02
12              	3.04863378e+02
13              	3.05204242e+02
14              	3.05538373e+02
15              	3.05865131e+02
16              	3.06187414e+02
17              	3.06501300e+02
18              	3.06803903e+02
19              	3.07094622e+02
20              	3.07376455e+02
21              	3.07653409e+02
22              	3.07924785e+02
23              	3.08194362e+02
24              	3.08461278e+02
25              	3.08728772e+02
26              	3.08994467e+02
27              	3.09254837e+02
28              	3.09509437e+02
29              	3.09757971e+02
30              	3.09999924e+02
31              	3.10231112e+02
32              	3.10452366e+02
33              	3.10665611e+02
34              	3.10872596e+02
35              	3.11070890e+02
36              	3.11261229e+02
37              	3.11441770e+02
38              	3.11611579e+02
39              	3.11779993e+02
40              	3.11942224e+02
41              	3.12101973e+02
42              	3.12263384e+02
43              	3.12427134e+02
44              	3.12591097e+02
45              	3.12747935e+02
46              	3.12892161e+02
47              	3.13016576e+02
48              	3.13110214e+02
49              	3.13180755e+02
50              	3.13267298e+02
51              	3.13341430e+02
52              	3.13393783e+02
53              	3.13434454e+02
54              	3.13468845e+02
55              	3.13508879e+02
56              	3.13557606e+02
57              	3.13620754e+02
58              	3.13701355e+02
59              	3.13788650e+02
60              	3.13878472e+02
61              	3.13963703e+02
62              	3.14043193e+02
63              	3.14120628e+02
64              	3.14195652e+02
65              	3.14267199e+02
66              	3.14338846e+02
67              	3.14415780e+02
68              	3.14496419e+02
69              	3.14583931e+02
70              	3.14671967e+02
71              	3.14758614e+02
72              	3.14843784e+02
73              	3.14924554e+02
74              	3.14996863e+02
75              	3.15058986e+02
76              	3.15117392e+02
77              	3.15186731e+02
78              	3.15247938e+02
79              	3.15289228e+02
80              	3.15292549e+02
81              	3.15276945e+02
82              	3.15257558e+02
83              	3.15247077e+02
84              	3.15239737e+02
85              	3.15238780e+02
86              	3.15233979e+02
87              	3.15222010e+02
88              	3.15208903e+02
89              	3.15200109e+02
90              	3.15203825e+02
91              	3.15223437e+02
92              	3.15265166e+02
93              	3.15315295e+02
94              	3.15357052e+02
95              	3.15387828e+02
96              	3.15416622e+02
97              	3.15440331e+02
98              	3.15461476e+02
99              	3.15478367e+02
100             	3.15490351e+02
101             	3.15501822e+02
102             	3.15513861e+02
103             	3.15531343e+02
104             	3.15555972e+02
105             	3.15588355e+02
106             	3.15631368e+02
107             	3.15683675e+02
108             	3.15729277e+02
109             	3.15766033e+02
110             	3.15792467e+02
111             	3.15814902e+02
112             	3.15838482e+02
113             	3.15859164e+02
114             	3.15876651e+02
115             	3.15893802e+02
116             	3.15909327e+02
117             	3.15921580e+02
118             	3.15935858e+02
119             	3.15955235e+02
120             	3.15980280e+02
121             	3.16015268e+02
122             	3.16055408e+02
123             	3.16080274e+02
124             	3.16104407e+02
125             	3.16122417e+02
126             	3.16135313e+02
127             	3.16143581e+02
128             	3.16147060e+02
129             	3.16146032e+02
130             	3.16140567e+02
131             	3.16141145e+02
132             	3.16159431e+02
133             	3.16187607e+02
134             	3.16212908e+02
135             	3.16211057e+02
136             	3.16208921e+02
137             	3.16198788e+02
138             	3.16178234e+02
139             	3.16154956e+02
140             	3.16131103e+02
141             	3.16106251e+02
142             	3.16088766e+02
143             	3.16085732e+02
144             	3.16102394e+02
145             	3.16130183e+02
146             	3.16151974e+02
147             	3.16142766e+02
148             	3.16127530e+02
149             	3.16105193e+02
150             	3.16075305e+02
151             	3.16046073e+02
152             	3.16019807e+02
153             	3.15993977e+02
154             	3.15979338e+02
155             	3.15975474e+02
156             	3.15998728e+02
157             	3.16024048e+02
158             	3.16026224e+02
159             	3.15984495e+02
160             	3.15928683e+02
161             	3.15895802e+02
162             	3.15873472e+02
163             	3.15849055e+02
164             	3.15824479e+02
165             	3.15801108e+02
166             	3.15779443e+02
167             	3.15777159e+02
168             	3.15796837e+02
169             	3.15842036e+02
170             	3.15860509e+02
171             	3.15850886e+02
172             	3.15809154e+02
173             	3.15765543e+02
174             	3.15735170e+02
175             	3.15698699e+02
176             	3.15643557e+02
177             	3.15593445e+02
178             	3.15550117e+02
179             	3.15514887e+02
180             	3.15498187e+02
181             	3.15504691e+02
182             	3.15515780e+02
183             	3.15520292e+02
184             	3.15505570e+02
185             	3.15508541e+02
186             	3.15506573e+02
187             	3.15508441e+02
188             	3.15509302e+02
189             	3.15507907e+02
190             	3.15500524e+02
191             	3.15504703e+02
192             	3.15520198e+02
193             	3.15571180e+02
194             	3.15582868e+02
195             	3.15564601e+02
196             	3.15520722e+02
197             	3.15473114e+02
198             	3.15440369e+02
199             	3.15410805e+02
200             	3.15381064e+02
201             	3.15347130e+02
202             	3.15313348e+02
203             	3.15287147e+02
204             	3.15275907e+02
205             	3.15284578e+02
206             	3.15311519e+02
207             	3.15342905e+02
208             	3.15365106e+02
209             	3.15371245e+02
210             	3.15390547e+02
211             	3.15404402e+02
212             	3.15409343e+02
213             	3.15411285e+02
214             	3.15410943e+02
215             	3.15409575e+02
216             	3.15414068e+02
217             	3.15432591e+02
218             	3.15471445e+02
219             	3.15509388e+02
220             	3.15545129e+02
221             	3.15564032e+02
222             	3.15559845e+02
223             	3.15562917e+02
224             	3.15562953e+02
225             	3.15554900e+02
226             	3.15544729e+02
227             	3.15531490e+02
228             	3.15514645e+02
229             	3.15505719e+02
230             	3.15514104e+02
231             	3.15540354e+02
232             	3.15577539e+02
233             	3.15615277e+02
234             	3.15626046e+02
235             	3.15637634e+02
236             	3.15643329e+02
237             	3.15647708e+02
238             	3.15648933e+02
239             	3.15643883e+02
240             	3.15640626e+02
241             	3.15649114e+02
242             	3.15676091e+02
243             	3.15724756e+02
244             	3.15761125e+02
245             	3.15791547e+02
246             	3.15805827e+02
247             	3.15827224e+02
248             	3.15846273e+02
249             	3.15860692e+02
250             	3.15871509e+02
251             	3.15877716e+02
252             	3.15881247e+02
253             	3.15889232e+02
254             	3.15908367e+02
255             	3.15938514e+02
256             	3.15971569e+02
257             	3.16003838e+02
258             	3.16012785e+02
259             	3.16015746e+02
260             	3.16020643e+02
261             	3.16025544e+02
262             	3.16023288e+02
263             	3.16012211e+02
264             	3.15998454e+02
265             	3.15989188e+02
266             	3.15995277e+02
267             	3.16016549e+02
268             	3.16047292e+02
269             	3.16059171e+02
270             	3.16066589e+02
271             	3.16067686e+02
272             	3.16077201e+02
273             	3.16085889e+02
274             	3.16089509e+02
275             	3.16085040e+02
276             	3.16082798e+02
277             	3.16082917e+02
278             	3.16109820e+02
279             	3.16146941e+02
280             	3.16168272e+02
281             	3.16155724e+02
282             	3.16122245e+02
283             	3.16089682e+02
284             	3.16075938e+02
285             	3.16059240e+02
286             	3.16040096e+02
287             	3.16019983e+02
288             	3.15996322e+02
289             	3.15978206e+02
290             	3.15977284e+02
291             	3.16006433e+02
292             	3.16017526e+02
293             	3.16018010e+02
294             	3.15994190e+02
295             	3.15973119e+02
296             	3.15958712e+02
297             	3.15952967e+02
298             	3.15946505e+02
299             	3.15930686e+02
300             	3.15920035e+02
301             	3.15913405e+02
302             	3.15927445e+02
303             	3.15965296e+02
304             	3.15997700e+02
305             	3.16005928e+02
306             	3.15987512e+02
307             	3.15957021e+02
308             	3.15940764e+02
309             	3.15921617e+02
310             	3.15891086e+02
311             	3.15857156e+02
312             	3.15818055e+02
313             	3.15788237e+02
314             	3.15777361e+02
315             	3.15793069e+02
316             	3.15819469e+02
317             	3.15839911e+02
318             	3.15840339e+02
319             	3.15827316e+02
320             	3.15800962e+02
321             	3.15777370e+02
322             	3.15756357e+02
323             	3.15734795e+02
324             	3.15717574e+02
325             	3.15698870e+02
326             	3.15692520e+02
327             	3.15704209e+02
328             	3.15735605e+02
329             	3.15781692e+02
330             	3.15810141e+02
331             	3.15817330e+02
332             	3.15796437e+02
333             	3.15768571e+02
334             	3.15748192e+02
335             	3.15731098e+02
336             	3.15711616e+02
337             	3.15692136e+02
338             	3.15675355e+02
339             	3.15656587e+02
340             	3.15650822e+02
341             	3.15661084e+02
342             	3.15686240e+02
343             	3.15723644e+02
344             	3.15762026e+02
345             	3.15776755e+02
346             	3.15780006e+02
347             	3.15789221e+02
348             	3.15803516e+02
349             	3.15815791e+02
350             	3.15826199e+02
351             	3.15834061e+02
352             	3.15842636e+02
353             	3.15857147e+02
354             	3.15880511e+02
355             	3.15909777e+02
356             	3.15944050e+02
357             	3.15982089e+02
358             	3.16027881e+02
359             	3.16074699e+02
360             	3.16120617e+02
361             	3.16160499e+02
362             	3.16192623e+02
363             	3.16216338e+02
364             	3.16232734e+02
365             	3.16246351e+02
366             	3.16258389e+02
367             	3.16269953e+02
368             	3.16280409e+02
369             	3.16291815e+02
370             	3.16307312e+02
371             	3.16328460e+02
372             	3.16355432e+02
373             	3.16385869e+02
374             	3.16418119e+02
375             	3.16450612e+02
376             	3.16480060e+02
377             	3.16505578e+02
378             	3.16527289e+02
379             	3.16544954e+02
380             	3.16558180e+02
381             	3.16568071e+02
382             	3.16575984e+02
383             	3.16583166e+02
384             	3.16591385e+02
385             	3.16602417e+02
386             	3.16616301e+02
387             	3.16634180e+02
388             	3.16655582e+02
389             	3.16679511e+02
390             	3.16704979e+02
391             	3.16730708e+02
392             	3.16755545e+02
393             	3.16778444e+02
394             	3.16797329e+02
395             	3.16814499e+02
396             	3.16830124e+02
397             	3.16844850e+02
398             	3.16858905e+02
399             	3.16872745e+02
400             	3.16885664e+02
401             	3.16897526e+02
402             	3.16908927e+02
403             	3.16919732e+02
404             	3.16931020e+02
405             	3.16943283e+02
406             	3.16954706e+02
407             	3.16970796e+02
408             	3.16989514e+02
409             	3.17010123e+02
410             	3.17030054e+02
411             	3.17048417e+02
412             	3.17061164e+02
413             	3.17071532e+02
414             	3.17077663e+02
415             	3.17080692e+02
416             	3.17081335e+02
417             	3.17081751e+02
418             	3.17083938e+02
419             	3.17086859e+02
420             	3.17091360e+02
421             	3.17100683e+02
422             	3.17113634e+02
423             	3.17128980e+02
424             	3.17148029e+02
425             	3.17168154e+02
426             	3.17190068e+02
427             	3.17211267e+02
428             	3.17229944e+02
429             	3.17248556e+02
430             	3.17267196e+02
431             	3.17284622e+02
432             	3.17300988e+02
433             	3.17316927e+02
434             	3.17331482e+02
435             	3.17343787e+02
436             	3.17352748e+02
437             	3.17357652e+02
438             	3.17358988e+02
439             	3.17356158e+02
440             	3.17350412e+02
441             	3.17343952e+02
442             	3.17335281e+02
443             	3.17330072e+02
444             	3.17327573e+02
445             	3.17329894e+02
446             	3.17334880e+02
447             	3.17342176e+02
448             	3.17351033e+02
449             	3.17359874e+02
450             	3.17368761e+02
451             	3.17377510e+02
452             	3.17385859e+02
453             	3.17391500e+02
454             	3.17396227e+02
455             	3.17399933e+02
456             	3.17402551e+02
457             	3.17406050e+02
458             	3.17410526e+02
459             	3.17415838e+02
460             	3.17424108e+02
461             	3.17435026e+02
462             	3.17447874e+02
463             	3.17461120e+02
464             	3.17471157e+02
465             	3.17477202e+02
466             	3.17480957e+02
467             	3.17481550e+02
468             	3.17478984e+02
469             	3.17474215e+02
470             	3.17468440e+02
471             	3.17463472e+02
472             	3.17460607e+02
473             	3.17459911e+02
474             	3.17460348e+02
475             	3.17463278e+02
476             	3.17467776e+02
477             	3.17472177e+02
478             	3.17476154e+02
479             	3.17480384e+02
480             	3.17482589e+02
481             	3.17484787e+02
482             	3.17486146e+02
483             	3.17485343e+02
484             	3.17482597e+02
485             	3.17478044e+02
486             	3.17472543e+02
487             	3.17465308e+02
488             	3.17457200e+02
489             	3.17448580e+02
490             	3.17439912e+02
491             	3.17431696e+02
492             	3.17425031e+02
493             	3.17421270e+02
494             	3.17421890e+02
495             	3.17422048e+02
496             	3.17424820e+02
497             	3.17429134e+02
498             	3.17435218e+02
499             	3.17441102e+02
500             	3.17446747e+02
501             	3.17451510e+02
502             	3.17455319e+02
503             	3.17457866e+02
504             	3.17459366e+02
505             	3.17459196e+02
506             	3.17457920e+02
507             	3.17455423e+02
508             	3.17452048e+02
509             	3.17448151e+02
510             	3.17444466e+02
511             	3.17441880e+02
512             	3.17441120e+02
513             	3.17441388e+02
514             	3.17443346e+02
515             	3.17446890e+02
516             	3.17450839e+02
517             	3.17455710e+02
518             	3.17459670e+02
519             	3.17461804e+02
520             	3.17462870e+02
521             	3.17462446e+02
522             	3.17459832e+02
523             	3.17455830e+02
524             	3.17451276e+02
525             	3.17447534e+02
526             	3.17444649e+02
527             	3.17441640e+02
528             	3.17440293e+02
529             	3.17440047e+02
530             	3.17440604e+02
531             	3.17441887e+02
532             	3.17443995e+02
533             	3.17446164e+02
534             	3.17447713e+02
535             	3.17448059e+02
536             	3.17447647e+02
537             	3.17444899e+02
538             	3.17440461e+02
539             	3.17434747e+02
540             	3.17428064e+02
541             	3.17421072e+02
542             	3.17415345e+02
543             	3.17411220e+02
544             	3.17408772e+02
545             	3.17407477e+02
546             	3.17408057e+02
547             	3.17409714e+02
548             	3.17411678e+02
549             	3.17414467e+02
550             	3.17417853e+02
551             	3.17418415e+02
552             	3.17419082e+02
553             	3.17418152e+02
554             	3.17416032e+02
555             	3.17412383e+02
556             	3.17407874e+02
557             	3.17404041e+02
558             	3.17400646e+02
559             	3.17398431e+02
560             	3.17397791e+02
561             	3.17398947e+02
562             	3.17401859e+02
563             	3.17406433e+02
564             	3.17411687e+02
565             	3.17416444e+02
566             	3.17419694e+02
567             	3.17420444e+02
568             	3.17420040e+02
569             	3.17417874e+02
570             	3.17413942e+02
571             	3.17408632e+02
572             	3.17402375e+02
573             	3.17395731e+02
574             	3.17389637e+02
575             	3.17385595e+02
576             	3.17383273e+02
577             	3.17381923e+02
578             	3.17383548e+02
579             	3.17387641e+02
580             	3.17392636e+02
581             	3.17397496e+02
582             	3.17400909e+02
583             	3.17403713e+02
584             	3.17405632e+02
585             	3.17406560e+02
586             	3.17406088e+02
587             	3.17404679e+02
588             	3.17402730e+02
589             	3.17400547e+02
590             	3.17398478e+02
591             	3.17396723e+02
592             	3.17395458e+02
593             	3.17394490e+02
594             	3.17394261e+02
595             	3.17395123e+02
596             	3.17397263e+02
597             	3.17399207e+02
598             	3.17401449e+02
599             	3.17403949e+02
600             	3.17406277e+02
601             	3.17408219e+02
602             	3.17410353e+02
603             	3.17412433e+02
604             	3.17413614e+02
605             	3.17413496e+02
606             	3.17413293e+02
607             	3.17411811e+02
608             	3.17409395e+02
609             	3.17406118e+02
610             	3.17403177e+02
611             	3.17400759e+02
612             	3.17399299e+02
613             	3.17398708e+02
614             	3.17398947e+02
615             	3.17399375e+02
616             	3.17400954e+02
617             	3.17402211e+02
618             	3.17403991e+02
619             	3.17406099e+02
620             	3.17407618e+02
621             	3.17409005e+02
