# Region        : cellZone component_0
# Cells         : 336
# Volume        : 6.30627717e-01
# Time          	volAverage(T)
1               	3.00668762e+02
2               	3.01328516e+02
3               	3.01884933e+02
4               	3.02381701e+02
5               	3.02883278e+02
6               	3.03402149e+02
7               	3.03917269e+02
8               	3.04418875e+02
9               	3.04913475e+02
10              	3.05402300e+02
11              	3.05884495e+02
12              	3.06359011e+02
13              	3.06822404e+02
14              	3.07274505e+02
15              	3.07720804e+02
16              	3.08163988e+02
17              	3.08602362e+02
18              	3.09030632e+02
19              	3.09452786e+02
20              	3.09877489e+02
21              	3.10290934e+02
22              	3.10696668e+02
23              	3.11090925e+02
24              	3.11469117e+02
25              	3.11841180e+02
26              	3.12200810e+02
27              	3.12565174e+02
28              	3.12920710e+02
29              	3.13258491e+02
30              	3.13580098e+02
31              	3.13902383e+02
32              	3.14216685e+02
33              	3.14531730e+02
34              	3.14844815e+02
35              	3.15143974e+02
36              	3.15424816e+02
37              	3.15692491e+02
38              	3.15946228e+02
39              	3.16213670e+02
40              	3.16463011e+02
41              	3.16685769e+02
42              	3.16862853e+02
43              	3.17035201e+02
44              	3.17202723e+02
45              	3.17375316e+02
46              	3.17565900e+02
47              	3.17765585e+02
48              	3.17957929e+02
49              	3.18135183e+02
50              	3.18308127e+02
51              	3.18482530e+02
52              	3.18668234e+02
53              	3.18864235e+02
54              	3.19058155e+02
55              	3.19250696e+02
56              	3.19435946e+02
57              	3.19614118e+02
58              	3.19779937e+02
59              	3.19933311e+02
60              	3.20078691e+02
61              	3.20219760e+02
62              	3.20365031e+02
63              	3.20503631e+02
64              	3.20629239e+02
65              	3.20742329e+02
66              	3.20853530e+02
67              	3.20968066e+02
68              	3.21081355e+02
69              	3.21184633e+02
70              	3.21270928e+02
71              	3.21357684e+02
72              	3.21429971e+02
73              	3.21498444e+02
74              	3.21579661e+02
75              	3.21673200e+02
76              	3.21764301e+02
77              	3.21854648e+02
78              	3.21939403e+02
79              	3.22028801e+02
80              	3.22115241e+02
81              	3.22192704e+02
82              	3.22263834e+02
83              	3.22324657e+02
84              	3.22384710e+02
85              	3.22446112e+02
86              	3.22508909e+02
87              	3.22573096e+02
88              	3.22636315e+02
89              	3.22696857e+02
90              	3.22756987e+02
91              	3.22818172e+02
92              	3.22879197e+02
93              	3.22939239e+02
94              	3.22996519e+02
95              	3.23051997e+02
96              	3.23103747e+02
97              	3.23151117e+02
98              	3.23196501e+02
99              	3.23240339e+02
100             	3.23284612e+02
101             	3.23328325e+02
102             	3.23372246e+02
103             	3.23416992e+02
104             	3.23462176e+02
105             	3.23508024e+02
106             	3.23554485e+02
107             	3.23600297e+02
108             	3.23645076e+02
109             	3.23687015e+02
110             	3.23727127e+02
111             	3.23765611e+02
112             	3.23803088e+02
113             	3.23839779e+02
114             	3.23875867e+02
115             	3.23911430e+02
116             	3.23946578e+02
117             	3.23980314e+02
118             	3.24014098e+02
119             	3.24047870e+02
120             	3.24081457e+02
121             	3.24114614e+02
122             	3.24147234e+02
123             	3.24179424e+02
124             	3.24210752e+02
125             	3.24240816e+02
126             	3.24269682e+02
127             	3.24297128e+02
128             	3.24323305e+02
129             	3.24348657e+02
130             	3.24373435e+02
131             	3.24397623e+02
132             	3.24421818e+02
133             	3.24445858e+02
134             	3.24470167e+02
135             	3.24494353e+02
136             	3.24518442e+02
137             	3.24542305e+02
138             	3.24565865e+02
139             	3.24589023e+02
140             	3.24611717e+02
141             	3.24634065e+02
142             	3.24656055e+02
143             	3.24677801e+02
144             	3.24699048e+02
145             	3.24720061e+02
146             	3.24740606e+02
147             	3.24749052e+02
148             	3.24756287e+02
149             	3.24770794e+02
150             	3.24792750e+02
151             	3.24818880e+02
152             	3.24845827e+02
153             	3.24872255e+02
154             	3.24898010e+02
155             	3.24923277e+02
156             	3.24946869e+02
157             	3.24969084e+02
158             	3.24990407e+02
159             	3.25011273e+02
160             	3.25031754e+02
161             	3.25051802e+02
162             	3.25071288e+02
163             	3.25090201e+02
164             	3.25108718e+02
165             	3.25126870e+02
166             	3.25144732e+02
167             	3.25161990e+02
168             	3.25178647e+02
169             	3.25195042e+02
170             	3.25211114e+02
171             	3.25226862e+02
172             	3.25242286e+02
173             	3.25257391e+02
174             	3.25272466e+02
175             	3.25287799e+02
176             	3.25303317e+02
177             	3.25318920e+02
178             	3.25334518e+02
179             	3.25349828e+02
180             	3.25365000e+02
181             	3.25379776e+02
182             	3.25393494e+02
183             	3.25406625e+02
184             	3.25419137e+02
185             	3.25431066e+02
186             	3.25442607e+02
187             	3.25453889e+02
188             	3.25465229e+02
189             	3.25476550e+02
190             	3.25487867e+02
191             	3.25499144e+02
192             	3.25510423e+02
193             	3.25521616e+02
194             	3.25532488e+02
195             	3.25543131e+02
196             	3.25553522e+02
197             	3.25563579e+02
198             	3.25573487e+02
199             	3.25583201e+02
200             	3.25592738e+02
201             	3.25602117e+02
202             	3.25611299e+02
203             	3.25620266e+02
204             	3.25629198e+02
205             	3.25638130e+02
206             	3.25646960e+02
207             	3.25655708e+02
208             	3.25664374e+02
209             	3.25672943e+02
210             	3.25681046e+02
211             	3.25688854e+02
212             	3.25696432e+02
213             	3.25703655e+02
214             	3.25710672e+02
215             	3.25717511e+02
216             	3.25724218e+02
217             	3.25730805e+02
218             	3.25737370e+02
219             	3.25744091e+02
220             	3.25750902e+02
221             	3.25757751e+02
222             	3.25764499e+02
223             	3.25771193e+02
224             	3.25777892e+02
225             	3.25784608e+02
226             	3.25791250e+02
227             	3.25797679e+02
228             	3.25803775e+02
229             	3.25809659e+02
230             	3.25815323e+02
231             	3.25820779e+02
232             	3.25826089e+02
233             	3.25831241e+02
234             	3.25836240e+02
235             	3.25841120e+02
236             	3.25845898e+02
237             	3.25850610e+02
238             	3.25855351e+02
239             	3.25860089e+02
240             	3.25864764e+02
241             	3.25875130e+02
242             	3.25886884e+02
243             	3.25897216e+02
244             	3.25905825e+02
245             	3.25913762e+02
246             	3.25921319e+02
247             	3.25928964e+02
248             	3.25936791e+02
249             	3.25944611e+02
250             	3.25951963e+02
251             	3.25958784e+02
252             	3.25965268e+02
253             	3.25971437e+02
254             	3.25978126e+02
255             	3.25985011e+02
256             	3.25991680e+02
257             	3.25998027e+02
258             	3.26004095e+02
259             	3.26009948e+02
260             	3.26015652e+02
261             	3.26021242e+02
262             	3.26026724e+02
263             	3.26032075e+02
264             	3.26037357e+02
265             	3.26042568e+02
266             	3.26047680e+02
267             	3.26052718e+02
268             	3.26055699e+02
269             	3.26058856e+02
270             	3.26061491e+02
271             	3.26064662e+02
272             	3.26067891e+02
273             	3.26071409e+02
274             	3.26075114e+02
275             	3.26078788e+02
276             	3.26082340e+02
277             	3.26084407e+02
278             	3.26086537e+02
279             	3.26089046e+02
280             	3.26091706e+02
281             	3.26094378e+02
282             	3.26096960e+02
283             	3.26099436e+02
284             	3.26101809e+02
285             	3.26104140e+02
286             	3.26106449e+02
287             	3.26108716e+02
288             	3.26110922e+02
289             	3.26113063e+02
290             	3.26115139e+02
291             	3.26117162e+02
292             	3.26119141e+02
293             	3.26121080e+02
294             	3.26122989e+02
295             	3.26124881e+02
296             	3.26126760e+02
297             	3.26128743e+02
298             	3.26130785e+02
299             	3.26132841e+02
300             	3.26134876e+02
301             	3.26136880e+02
302             	3.26138842e+02
303             	3.26140743e+02
304             	3.26142589e+02
305             	3.26144372e+02
306             	3.26146088e+02
307             	3.26147725e+02
308             	3.26149306e+02
309             	3.26150820e+02
310             	3.26152290e+02
311             	3.26153722e+02
312             	3.26155130e+02
313             	3.26156524e+02
314             	3.26157878e+02
315             	3.26159160e+02
316             	3.26160464e+02
317             	3.26161772e+02
318             	3.26163071e+02
319             	3.26164359e+02
320             	3.26165625e+02
321             	3.26166971e+02
322             	3.26167523e+02
323             	3.26167408e+02
324             	3.26167703e+02
325             	3.26168534e+02
326             	3.26169578e+02
327             	3.26170561e+02
328             	3.26171298e+02
329             	3.26171813e+02
330             	3.26172181e+02
331             	3.26172586e+02
332             	3.26173056e+02
333             	3.26173639e+02
334             	3.26174335e+02
335             	3.26175122e+02
336             	3.26176018e+02
337             	3.26177035e+02
338             	3.26178052e+02
339             	3.26178924e+02
340             	3.26179618e+02
341             	3.26180194e+02
342             	3.26180677e+02
343             	3.26181071e+02
344             	3.26181405e+02
345             	3.26181754e+02
346             	3.26182180e+02
347             	3.26182652e+02
348             	3.26183154e+02
349             	3.26183684e+02
350             	3.26184249e+02
351             	3.26184841e+02
352             	3.26185408e+02
353             	3.26185915e+02
354             	3.26186357e+02
355             	3.26186769e+02
356             	3.26187140e+02
357             	3.26187469e+02
358             	3.26187831e+02
359             	3.26188240e+02
360             	3.26188687e+02
361             	3.26189194e+02
362             	3.26189767e+02
363             	3.26190392e+02
364             	3.26191044e+02
365             	3.26191679e+02
366             	3.26192286e+02
367             	3.26192839e+02
368             	3.26193334e+02
369             	3.26193780e+02
370             	3.26194187e+02
371             	3.26194563e+02
372             	3.26194917e+02
373             	3.26195257e+02
374             	3.26195606e+02
375             	3.26196007e+02
376             	3.26196426e+02
377             	3.26196854e+02
378             	3.26197282e+02
379             	3.26197700e+02
380             	3.26198119e+02
381             	3.26198541e+02
382             	3.26198959e+02
383             	3.26199369e+02
384             	3.26199766e+02
385             	3.26200146e+02
386             	3.26200501e+02
387             	3.26200816e+02
388             	3.26201079e+02
389             	3.26201334e+02
390             	3.26201602e+02
391             	3.26201880e+02
392             	3.26202156e+02
393             	3.26202439e+02
394             	3.26202755e+02
395             	3.26203098e+02
396             	3.26203456e+02
397             	3.26203823e+02
398             	3.26204197e+02
399             	3.26204567e+02
400             	3.26204929e+02
401             	3.26205275e+02
402             	3.26205600e+02
403             	3.26205903e+02
404             	3.26206187e+02
405             	3.26206458e+02
406             	3.26206715e+02
407             	3.26206964e+02
408             	3.26207215e+02
409             	3.26207472e+02
410             	3.26207733e+02
411             	3.26207991e+02
412             	3.26208252e+02
413             	3.26208512e+02
414             	3.26208776e+02
415             	3.26209039e+02
416             	3.26209308e+02
417             	3.26209585e+02
418             	3.26209860e+02
419             	3.26210132e+02
420             	3.26210399e+02
421             	3.26210656e+02
422             	3.26210906e+02
423             	3.26211146e+02
424             	3.26211339e+02
425             	3.26211509e+02
426             	3.26211662e+02
427             	3.26211798e+02
428             	3.26211924e+02
429             	3.26212055e+02
430             	3.26212182e+02
431             	3.26212308e+02
432             	3.26212447e+02
433             	3.26212623e+02
434             	3.26212829e+02
435             	3.26213049e+02
436             	3.26213262e+02
437             	3.26213482e+02
438             	3.26213708e+02
439             	3.26213929e+02
440             	3.26214127e+02
441             	3.26214313e+02
442             	3.26214503e+02
443             	3.26214689e+02
444             	3.26214871e+02
445             	3.26215052e+02
446             	3.26215234e+02
447             	3.26215420e+02
448             	3.26215610e+02
449             	3.26215801e+02
450             	3.26215993e+02
451             	3.26216185e+02
452             	3.26216378e+02
453             	3.26216592e+02
454             	3.26216818e+02
455             	3.26217023e+02
456             	3.26217161e+02
457             	3.26217282e+02
458             	3.26217398e+02
459             	3.26217504e+02
460             	3.26217600e+02
461             	3.26217690e+02
462             	3.26217783e+02
463             	3.26217879e+02
464             	3.26217971e+02
465             	3.26218061e+02
466             	3.26218144e+02
467             	3.26218261e+02
468             	3.26218393e+02
469             	3.26218533e+02
470             	3.26218687e+02
471             	3.26218857e+02
472             	3.26219038e+02
473             	3.26219229e+02
474             	3.26219423e+02
475             	3.26219622e+02
476             	3.26219821e+02
477             	3.26220010e+02
478             	3.26220192e+02
479             	3.26220370e+02
480             	3.26220536e+02
481             	3.26220694e+02
482             	3.26220848e+02
483             	3.26220993e+02
484             	3.26221133e+02
485             	3.26221266e+02
486             	3.26221388e+02
487             	3.26221504e+02
488             	3.26221615e+02
489             	3.26221719e+02
490             	3.26221822e+02
491             	3.26221919e+02
492             	3.26222011e+02
493             	3.26222095e+02
494             	3.26222178e+02
495             	3.26222256e+02
496             	3.26222332e+02
497             	3.26222406e+02
498             	3.26222478e+02
499             	3.26222554e+02
500             	3.26222629e+02
501             	3.26222702e+02
502             	3.26222771e+02
503             	3.26222838e+02
504             	3.26222903e+02
505             	3.26222967e+02
506             	3.26223019e+02
507             	3.26223063e+02
508             	3.26223100e+02
509             	3.26223136e+02
510             	3.26223160e+02
511             	3.26223182e+02
512             	3.26223207e+02
513             	3.26223240e+02
514             	3.26223281e+02
515             	3.26223330e+02
516             	3.26223387e+02
517             	3.26223453e+02
518             	3.26223525e+02
519             	3.26223601e+02
520             	3.26223681e+02
521             	3.26223756e+02
522             	3.26223834e+02
523             	3.26223918e+02
524             	3.26224007e+02
525             	3.26224098e+02
526             	3.26224205e+02
527             	3.26224315e+02
528             	3.26224424e+02
529             	3.26224531e+02
530             	3.26224633e+02
531             	3.26224731e+02
532             	3.26224825e+02
533             	3.26224919e+02
534             	3.26225008e+02
535             	3.26225084e+02
536             	3.26225145e+02
537             	3.26225193e+02
538             	3.26225228e+02
539             	3.26225253e+02
540             	3.26225266e+02
541             	3.26225270e+02
542             	3.26225274e+02
543             	3.26225288e+02
544             	3.26225306e+02
545             	3.26225328e+02
546             	3.26225354e+02
547             	3.26225381e+02
548             	3.26225410e+02
549             	3.26225439e+02
550             	3.26225467e+02
551             	3.26225492e+02
552             	3.26225520e+02
553             	3.26225552e+02
554             	3.26225597e+02
555             	3.26225649e+02
556             	3.26225707e+02
557             	3.26225772e+02
558             	3.26225844e+02
559             	3.26225928e+02
560             	3.26226017e+02
561             	3.26226109e+02
562             	3.26226228e+02
563             	3.26226356e+02
564             	3.26226486e+02
565             	3.26226611e+02
566             	3.26226715e+02
567             	3.26226815e+02
568             	3.26226907e+02
569             	3.26226921e+02
570             	3.26226897e+02
571             	3.26226851e+02
572             	3.26226788e+02
573             	3.26226765e+02
574             	3.26226741e+02
575             	3.26226706e+02
576             	3.26226671e+02
577             	3.26226644e+02
578             	3.26226622e+02
579             	3.26226601e+02
580             	3.26226576e+02
581             	3.26226550e+02
582             	3.26226530e+02
583             	3.26226514e+02
584             	3.26226516e+02
585             	3.26226545e+02
586             	3.26226579e+02
587             	3.26226613e+02
588             	3.26226648e+02
589             	3.26226679e+02
590             	3.26226710e+02
591             	3.26226740e+02
592             	3.26226777e+02
593             	3.26226824e+02
594             	3.26226877e+02
595             	3.26226936e+02
596             	3.26227004e+02
597             	3.26227079e+02
598             	3.26227158e+02
599             	3.26227254e+02
600             	3.26227361e+02
601             	3.26227474e+02
602             	3.26227591e+02
603             	3.26227716e+02
604             	3.26227798e+02
605             	3.26227865e+02
606             	3.26227919e+02
607             	3.26227907e+02
608             	3.26227861e+02
609             	3.26227789e+02
610             	3.26227695e+02
611             	3.26227586e+02
612             	3.26227473e+02
613             	3.26227365e+02
614             	3.26227265e+02
615             	3.26227202e+02
616             	3.26227164e+02
617             	3.26227163e+02
618             	3.26227207e+02
619             	3.26227288e+02
620             	3.26227399e+02
621             	3.26227509e+02
