# Region        : cellZone component_3
# Cells         : 72
# Volume        : 1.43406833e-01
# Time          	volAverage(T)
1               	3.01334235e+02
2               	3.02653214e+02
3               	3.03881014e+02
4               	3.05049819e+02
5               	3.06181156e+02
6               	3.07277374e+02
7               	3.08348201e+02
8               	3.09398240e+02
9               	3.10431029e+02
10              	3.11452043e+02
11              	3.12449927e+02
12              	3.13419996e+02
13              	3.14374785e+02
14              	3.15295890e+02
15              	3.16172039e+02
16              	3.16991391e+02
17              	3.17762260e+02
18              	3.18499456e+02
19              	3.19170831e+02
20              	3.19824289e+02
21              	3.20517013e+02
22              	3.21110022e+02
23              	3.21618418e+02
24              	3.22113222e+02
25              	3.22619518e+02
26              	3.23099042e+02
27              	3.23537737e+02
28              	3.23887293e+02
29              	3.24189635e+02
30              	3.24459818e+02
31              	3.24767104e+02
32              	3.25113762e+02
33              	3.25543157e+02
34              	3.25944128e+02
35              	3.26340503e+02
36              	3.26721001e+02
37              	3.27090878e+02
38              	3.27449412e+02
39              	3.27745162e+02
40              	3.28019839e+02
41              	3.28441069e+02
42              	3.28751657e+02
43              	3.29017776e+02
44              	3.29258318e+02
45              	3.29511897e+02
46              	3.29856717e+02
47              	3.30184555e+02
48              	3.30457137e+02
49              	3.30761512e+02
50              	3.31015025e+02
51              	3.31241548e+02
52              	3.31444057e+02
53              	3.31632679e+02
54              	3.31783451e+02
55              	3.31912503e+02
56              	3.32055743e+02
57              	3.32222657e+02
58              	3.32379580e+02
59              	3.32522068e+02
60              	3.32630296e+02
61              	3.32755230e+02
62              	3.32888385e+02
63              	3.33039197e+02
64              	3.33186541e+02
65              	3.33360864e+02
66              	3.33565495e+02
67              	3.33768121e+02
68              	3.33970583e+02
69              	3.34188211e+02
70              	3.34383519e+02
71              	3.34512810e+02
72              	3.34611233e+02
73              	3.34683279e+02
74              	3.34751109e+02
75              	3.34876938e+02
76              	3.35025643e+02
77              	3.35190382e+02
78              	3.35363033e+02
79              	3.35542401e+02
80              	3.35700950e+02
81              	3.35873334e+02
82              	3.36022404e+02
83              	3.36191936e+02
84              	3.36350550e+02
85              	3.36537185e+02
86              	3.36743135e+02
87              	3.36966014e+02
88              	3.37195515e+02
89              	3.37418846e+02
90              	3.37629740e+02
91              	3.37859646e+02
92              	3.38100207e+02
93              	3.38317366e+02
94              	3.38508390e+02
95              	3.38669822e+02
96              	3.38864461e+02
97              	3.39093624e+02
98              	3.39313056e+02
99              	3.39513638e+02
100             	3.39698635e+02
101             	3.39859028e+02
102             	3.40012006e+02
103             	3.40152341e+02
104             	3.40283256e+02
105             	3.40441570e+02
106             	3.40635361e+02
107             	3.40847831e+02
108             	3.41061001e+02
109             	3.41278358e+02
110             	3.41488470e+02
111             	3.41697867e+02
112             	3.41896626e+02
113             	3.42097318e+02
114             	3.42284089e+02
115             	3.42470429e+02
116             	3.42655990e+02
117             	3.42830696e+02
118             	3.42992715e+02
119             	3.43148934e+02
120             	3.43292624e+02
121             	3.43436402e+02
122             	3.43580803e+02
123             	3.43729005e+02
124             	3.43885172e+02
125             	3.44052245e+02
126             	3.44236758e+02
127             	3.44419235e+02
128             	3.44608042e+02
129             	3.44801790e+02
130             	3.45004172e+02
131             	3.45200469e+02
132             	3.45387967e+02
133             	3.45562627e+02
134             	3.45732146e+02
135             	3.45894353e+02
136             	3.46042926e+02
137             	3.46178628e+02
138             	3.46308429e+02
139             	3.46430573e+02
140             	3.46550306e+02
141             	3.46669333e+02
142             	3.46784584e+02
143             	3.46903631e+02
144             	3.47027306e+02
145             	3.47152977e+02
146             	3.47280122e+02
147             	3.47408467e+02
148             	3.47532446e+02
149             	3.47660555e+02
150             	3.47791017e+02
151             	3.47921137e+02
152             	3.48023051e+02
153             	3.48139770e+02
154             	3.48261037e+02
155             	3.48381611e+02
156             	3.48497803e+02
157             	3.48608069e+02
158             	3.48714423e+02
159             	3.48800665e+02
160             	3.48896393e+02
161             	3.48992641e+02
162             	3.49075819e+02
163             	3.49156311e+02
164             	3.49239115e+02
165             	3.49321704e+02
166             	3.49407466e+02
167             	3.49498211e+02
168             	3.49593212e+02
169             	3.49698519e+02
170             	3.49808992e+02
171             	3.49928579e+02
172             	3.50057784e+02
173             	3.50195110e+02
174             	3.50327491e+02
175             	3.50464162e+02
176             	3.50588010e+02
177             	3.50726990e+02
178             	3.50872953e+02
179             	3.51020584e+02
180             	3.51164868e+02
181             	3.51289866e+02
182             	3.51409096e+02
183             	3.51513530e+02
184             	3.51616292e+02
185             	3.51709931e+02
186             	3.51799124e+02
187             	3.51887568e+02
188             	3.51978800e+02
189             	3.52072279e+02
190             	3.52166121e+02
191             	3.52260604e+02
192             	3.52356183e+02
193             	3.52452204e+02
194             	3.52547878e+02
195             	3.52644790e+02
196             	3.52745313e+02
197             	3.52850693e+02
198             	3.52963394e+02
199             	3.53079533e+02
200             	3.53196918e+02
201             	3.53293474e+02
202             	3.53401717e+02
203             	3.53506949e+02
204             	3.53612281e+02
205             	3.53711033e+02
206             	3.53799878e+02
207             	3.53881557e+02
208             	3.53958488e+02
209             	3.54030989e+02
210             	3.54102668e+02
211             	3.54167564e+02
212             	3.54225690e+02
213             	3.54282642e+02
214             	3.54348428e+02
215             	3.54417373e+02
216             	3.54491466e+02
217             	3.54570390e+02
218             	3.54644397e+02
219             	3.54724570e+02
220             	3.54811036e+02
221             	3.54899774e+02
222             	3.54988897e+02
223             	3.55079957e+02
224             	3.55169204e+02
225             	3.55260728e+02
226             	3.55331801e+02
227             	3.55414218e+02
228             	3.55495853e+02
229             	3.55577283e+02
230             	3.55657903e+02
231             	3.55731072e+02
232             	3.55793292e+02
233             	3.55846897e+02
234             	3.55893050e+02
235             	3.55935277e+02
236             	3.55976343e+02
237             	3.56016328e+02
238             	3.56053303e+02
239             	3.56074795e+02
240             	3.56094680e+02
241             	3.56120495e+02
242             	3.56154320e+02
243             	3.56193827e+02
244             	3.56228689e+02
245             	3.56273183e+02
246             	3.56322514e+02
247             	3.56374055e+02
248             	3.56430577e+02
249             	3.56492398e+02
250             	3.56562968e+02
251             	3.56636759e+02
252             	3.56710274e+02
253             	3.56763194e+02
254             	3.56827510e+02
255             	3.56894315e+02
256             	3.56952387e+02
257             	3.57003132e+02
258             	3.57044261e+02
259             	3.57080346e+02
260             	3.57110947e+02
261             	3.57135993e+02
262             	3.57156703e+02
263             	3.57173598e+02
264             	3.57186918e+02
265             	3.57199466e+02
266             	3.57213338e+02
267             	3.57229755e+02
268             	3.57251994e+02
269             	3.57278752e+02
270             	3.57310889e+02
271             	3.57349511e+02
272             	3.57395975e+02
273             	3.57448881e+02
274             	3.57505837e+02
275             	3.57566559e+02
276             	3.57623896e+02
277             	3.57680565e+02
278             	3.57735089e+02
279             	3.57788968e+02
280             	3.57846141e+02
281             	3.57905610e+02
282             	3.57956921e+02
283             	3.58014487e+02
284             	3.58072765e+02
285             	3.58128474e+02
286             	3.58181510e+02
287             	3.58229665e+02
288             	3.58274878e+02
289             	3.58322335e+02
290             	3.58368702e+02
291             	3.58411697e+02
292             	3.58450942e+02
293             	3.58486301e+02
294             	3.58521073e+02
295             	3.58554903e+02
296             	3.58586986e+02
297             	3.58622839e+02
298             	3.58650513e+02
299             	3.58676530e+02
300             	3.58703477e+02
301             	3.58737907e+02
302             	3.58763637e+02
303             	3.58787587e+02
304             	3.58812474e+02
305             	3.58841142e+02
306             	3.58870348e+02
307             	3.58902621e+02
308             	3.58936331e+02
309             	3.58970094e+02
310             	3.59005106e+02
311             	3.59042907e+02
312             	3.59081763e+02
313             	3.59121586e+02
314             	3.59162568e+02
315             	3.59203104e+02
316             	3.59244652e+02
317             	3.59287553e+02
318             	3.59327925e+02
319             	3.59368392e+02
320             	3.59409233e+02
321             	3.59451056e+02
322             	3.59490142e+02
323             	3.59526363e+02
324             	3.59562905e+02
325             	3.59598895e+02
326             	3.59627518e+02
327             	3.59661860e+02
328             	3.59696793e+02
329             	3.59731851e+02
330             	3.59763857e+02
331             	3.59793064e+02
332             	3.59821345e+02
333             	3.59851475e+02
334             	3.59878690e+02
335             	3.59904990e+02
336             	3.59930423e+02
337             	3.59955759e+02
338             	3.59981488e+02
339             	3.60007582e+02
340             	3.60033538e+02
341             	3.60058736e+02
342             	3.60085149e+02
343             	3.60114690e+02
344             	3.60141701e+02
345             	3.60170839e+02
346             	3.60195689e+02
347             	3.60217995e+02
348             	3.60240078e+02
349             	3.60262905e+02
350             	3.60285659e+02
351             	3.60307946e+02
352             	3.60329392e+02
353             	3.60351983e+02
354             	3.60375165e+02
355             	3.60398676e+02
356             	3.60422176e+02
357             	3.60445699e+02
358             	3.60470017e+02
359             	3.60494396e+02
360             	3.60519383e+02
361             	3.60542580e+02
362             	3.60567037e+02
363             	3.60589046e+02
364             	3.60611292e+02
365             	3.60629028e+02
366             	3.60650180e+02
367             	3.60672319e+02
368             	3.60693944e+02
369             	3.60714100e+02
370             	3.60734489e+02
371             	3.60754283e+02
372             	3.60771866e+02
373             	3.60790368e+02
374             	3.60808207e+02
375             	3.60824694e+02
376             	3.60840484e+02
377             	3.60855503e+02
378             	3.60869087e+02
379             	3.60882271e+02
380             	3.60895453e+02
381             	3.60908710e+02
382             	3.60922535e+02
383             	3.60937974e+02
384             	3.60955278e+02
385             	3.60968296e+02
386             	3.60981216e+02
387             	3.60994637e+02
388             	3.61008834e+02
389             	3.61023592e+02
390             	3.61038820e+02
391             	3.61053706e+02
392             	3.61067935e+02
393             	3.61081980e+02
394             	3.61095398e+02
395             	3.61107730e+02
396             	3.61121523e+02
397             	3.61133684e+02
398             	3.61148230e+02
399             	3.61162879e+02
400             	3.61177374e+02
401             	3.61191557e+02
402             	3.61206674e+02
403             	3.61221377e+02
404             	3.61235668e+02
405             	3.61250118e+02
406             	3.61263578e+02
407             	3.61276621e+02
408             	3.61289603e+02
409             	3.61303318e+02
410             	3.61316506e+02
411             	3.61326644e+02
412             	3.61338522e+02
413             	3.61346136e+02
414             	3.61352583e+02
415             	3.61358729e+02
416             	3.61364627e+02
417             	3.61370227e+02
418             	3.61375436e+02
419             	3.61383214e+02
420             	3.61391353e+02
421             	3.61400030e+02
422             	3.61408599e+02
423             	3.61416334e+02
424             	3.61426655e+02
425             	3.61435200e+02
426             	3.61443693e+02
427             	3.61453290e+02
428             	3.61464449e+02
429             	3.61474797e+02
430             	3.61485066e+02
431             	3.61495886e+02
432             	3.61507434e+02
433             	3.61519130e+02
434             	3.61530068e+02
435             	3.61541023e+02
436             	3.61552500e+02
437             	3.61563624e+02
438             	3.61573964e+02
439             	3.61583677e+02
440             	3.61591415e+02
441             	3.61598208e+02
442             	3.61606645e+02
443             	3.61614568e+02
444             	3.61621332e+02
445             	3.61627747e+02
446             	3.61634003e+02
447             	3.61640333e+02
448             	3.61646135e+02
449             	3.61651874e+02
450             	3.61657695e+02
451             	3.61663317e+02
452             	3.61669096e+02
453             	3.61675270e+02
454             	3.61681553e+02
455             	3.61687964e+02
456             	3.61696700e+02
457             	3.61702293e+02
458             	3.61707346e+02
459             	3.61713207e+02
460             	3.61719343e+02
461             	3.61725452e+02
462             	3.61731389e+02
463             	3.61737123e+02
464             	3.61742512e+02
465             	3.61747827e+02
466             	3.61752808e+02
467             	3.61757973e+02
468             	3.61763501e+02
469             	3.61765261e+02
470             	3.61770658e+02
471             	3.61777394e+02
472             	3.61783032e+02
473             	3.61788250e+02
474             	3.61793569e+02
475             	3.61798874e+02
476             	3.61804010e+02
477             	3.61808937e+02
478             	3.61813657e+02
479             	3.61818142e+02
480             	3.61822385e+02
481             	3.61826290e+02
482             	3.61830807e+02
483             	3.61834180e+02
484             	3.61837146e+02
485             	3.61839898e+02
486             	3.61842410e+02
487             	3.61844722e+02
488             	3.61846349e+02
489             	3.61848406e+02
490             	3.61850340e+02
491             	3.61852142e+02
492             	3.61854428e+02
493             	3.61856723e+02
494             	3.61858439e+02
495             	3.61861036e+02
496             	3.61863433e+02
497             	3.61866158e+02
498             	3.61869421e+02
499             	3.61873177e+02
500             	3.61877305e+02
501             	3.61881585e+02
502             	3.61886117e+02
503             	3.61891081e+02
504             	3.61896265e+02
505             	3.61901455e+02
506             	3.61906875e+02
507             	3.61912331e+02
508             	3.61917485e+02
509             	3.61922361e+02
510             	3.61927147e+02
511             	3.61931556e+02
512             	3.61935200e+02
513             	3.61939227e+02
514             	3.61943005e+02
515             	3.61946120e+02
516             	3.61949153e+02
517             	3.61952104e+02
518             	3.61954723e+02
519             	3.61957306e+02
520             	3.61959846e+02
521             	3.61962282e+02
522             	3.61964481e+02
523             	3.61966560e+02
524             	3.61968556e+02
525             	3.61970418e+02
526             	3.61972203e+02
527             	3.61974031e+02
528             	3.61975949e+02
529             	3.61977903e+02
530             	3.61979926e+02
531             	3.61981869e+02
532             	3.61983795e+02
533             	3.61985654e+02
534             	3.61988074e+02
535             	3.61989685e+02
536             	3.61991123e+02
537             	3.61992703e+02
538             	3.61994440e+02
539             	3.61996117e+02
540             	3.61997715e+02
541             	3.61999169e+02
542             	3.62000702e+02
543             	3.62002336e+02
544             	3.62004038e+02
545             	3.62005810e+02
546             	3.62007524e+02
547             	3.62009399e+02
548             	3.62011263e+02
549             	3.62013176e+02
550             	3.62014924e+02
551             	3.62016647e+02
552             	3.62018200e+02
553             	3.62019883e+02
554             	3.62021404e+02
555             	3.62022878e+02
556             	3.62024232e+02
557             	3.62025601e+02
558             	3.62026965e+02
559             	3.62028144e+02
560             	3.62029631e+02
561             	3.62031077e+02
562             	3.62032379e+02
563             	3.62033583e+02
564             	3.62034722e+02
565             	3.62035811e+02
566             	3.62036845e+02
567             	3.62037857e+02
568             	3.62038816e+02
569             	3.62039768e+02
570             	3.62040945e+02
571             	3.62041942e+02
572             	3.62043481e+02
573             	3.62044237e+02
574             	3.62044897e+02
575             	3.62045705e+02
576             	3.62046579e+02
577             	3.62047599e+02
578             	3.62048644e+02
579             	3.62049611e+02
580             	3.62050525e+02
581             	3.62051696e+02
582             	3.62052712e+02
583             	3.62053838e+02
584             	3.62055000e+02
585             	3.62055788e+02
586             	3.62056914e+02
587             	3.62058079e+02
588             	3.62059103e+02
589             	3.62060042e+02
590             	3.62060937e+02
591             	3.62062026e+02
592             	3.62062988e+02
593             	3.62064001e+02
594             	3.62065089e+02
595             	3.62065957e+02
596             	3.62067126e+02
597             	3.62068014e+02
598             	3.62068855e+02
599             	3.62069583e+02
600             	3.62070421e+02
601             	3.62070984e+02
602             	3.62071435e+02
603             	3.62071551e+02
604             	3.62071660e+02
605             	3.62071761e+02
606             	3.62071906e+02
607             	3.62072140e+02
608             	3.62072388e+02
609             	3.62072799e+02
610             	3.62073288e+02
611             	3.62073988e+02
612             	3.62074632e+02
613             	3.62075324e+02
614             	3.62076144e+02
615             	3.62077181e+02
616             	3.62078044e+02
617             	3.62078742e+02
618             	3.62079879e+02
619             	3.62080793e+02
620             	3.62082094e+02
621             	3.62083432e+02
