# Region        : cellZone component_0
# Cells         : 144
# Volume        : 3.02391759e-01
# Time          	volAverage(T)
1               	3.01286696e+02
2               	3.02546847e+02
3               	3.03579902e+02
4               	3.04454858e+02
5               	3.05295525e+02
6               	3.06137800e+02
7               	3.06961056e+02
8               	3.07756459e+02
9               	3.08531163e+02
10              	3.09299003e+02
11              	3.10034757e+02
12              	3.10732710e+02
13              	3.11363774e+02
14              	3.11980424e+02
15              	3.12580519e+02
16              	3.13158031e+02
17              	3.13742439e+02
18              	3.14300157e+02
19              	3.14817026e+02
20              	3.15294271e+02
21              	3.15743663e+02
22              	3.16180412e+02
23              	3.16634274e+02
24              	3.17120240e+02
25              	3.17609297e+02
26              	3.18069504e+02
27              	3.18528139e+02
28              	3.18966727e+02
29              	3.19373334e+02
30              	3.19756644e+02
31              	3.20183286e+02
32              	3.20577270e+02
33              	3.20796026e+02
34              	3.20911345e+02
35              	3.20978762e+02
36              	3.21036830e+02
37              	3.21228380e+02
38              	3.21540964e+02
39              	3.21778695e+02
40              	3.21993014e+02
41              	3.22195265e+02
42              	3.22452470e+02
43              	3.22752731e+02
44              	3.23073316e+02
45              	3.23386184e+02
46              	3.23681881e+02
47              	3.23838374e+02
48              	3.23996127e+02
49              	3.24192574e+02
50              	3.24414993e+02
51              	3.24613693e+02
52              	3.24801575e+02
53              	3.24968910e+02
54              	3.25128737e+02
55              	3.25299141e+02
56              	3.25293822e+02
57              	3.25136698e+02
58              	3.24961239e+02
59              	3.24860954e+02
60              	3.24901003e+02
61              	3.25042018e+02
62              	3.25149247e+02
63              	3.25266893e+02
64              	3.25382367e+02
65              	3.25526022e+02
66              	3.25649824e+02
67              	3.25814994e+02
68              	3.25982052e+02
69              	3.26095731e+02
70              	3.26193896e+02
71              	3.26243927e+02
72              	3.26328971e+02
73              	3.26455442e+02
74              	3.26607292e+02
75              	3.26758454e+02
76              	3.26887259e+02
77              	3.27009298e+02
78              	3.27207458e+02
79              	3.27336443e+02
80              	3.27385097e+02
81              	3.27431506e+02
82              	3.27486143e+02
83              	3.27617599e+02
84              	3.27803189e+02
85              	3.28030130e+02
86              	3.28255552e+02
87              	3.28473706e+02
88              	3.28692016e+02
89              	3.28890439e+02
90              	3.29078351e+02
91              	3.29258569e+02
92              	3.29424763e+02
93              	3.29528435e+02
94              	3.29594886e+02
95              	3.29679368e+02
96              	3.29763750e+02
97              	3.29867551e+02
98              	3.29985802e+02
99              	3.30112690e+02
100             	3.30219590e+02
101             	3.30297019e+02
102             	3.30419922e+02
103             	3.30560396e+02
104             	3.30650911e+02
105             	3.30693331e+02
106             	3.30770982e+02
107             	3.30869144e+02
108             	3.30987037e+02
109             	3.31131118e+02
110             	3.31287555e+02
111             	3.31460804e+02
112             	3.31635908e+02
113             	3.31803833e+02
114             	3.31956858e+02
115             	3.32057714e+02
116             	3.32168213e+02
117             	3.32244453e+02
118             	3.32302290e+02
119             	3.32382493e+02
120             	3.32470618e+02
121             	3.32540085e+02
122             	3.32569037e+02
123             	3.32561094e+02
124             	3.32576050e+02
125             	3.32660705e+02
126             	3.32758100e+02
127             	3.32877067e+02
128             	3.32984299e+02
129             	3.33079625e+02
130             	3.33186121e+02
131             	3.33295947e+02
132             	3.33361102e+02
133             	3.33475630e+02
134             	3.33595112e+02
135             	3.33700639e+02
136             	3.33744211e+02
137             	3.33769589e+02
138             	3.33843232e+02
139             	3.33940120e+02
140             	3.34037797e+02
141             	3.34098572e+02
142             	3.34168931e+02
143             	3.34204274e+02
144             	3.34256770e+02
145             	3.34301365e+02
146             	3.34384551e+02
147             	3.34455409e+02
148             	3.34549777e+02
149             	3.34654530e+02
150             	3.34751404e+02
151             	3.34839398e+02
152             	3.34857343e+02
153             	3.34930989e+02
154             	3.35018066e+02
155             	3.35071038e+02
156             	3.35050648e+02
157             	3.35025736e+02
158             	3.35017130e+02
159             	3.35050205e+02
160             	3.35050567e+02
161             	3.35057542e+02
162             	3.35066438e+02
163             	3.35101632e+02
164             	3.35166511e+02
165             	3.35235123e+02
166             	3.35295079e+02
167             	3.35349450e+02
168             	3.35386198e+02
169             	3.35351882e+02
170             	3.35382382e+02
171             	3.35477192e+02
172             	3.35528768e+02
173             	3.35516872e+02
174             	3.35450710e+02
175             	3.35360415e+02
176             	3.35375155e+02
177             	3.35412547e+02
178             	3.35429534e+02
179             	3.35438198e+02
180             	3.35452355e+02
181             	3.35475313e+02
182             	3.35463816e+02
183             	3.35520832e+02
184             	3.35579294e+02
185             	3.35623119e+02
186             	3.35625526e+02
187             	3.35608628e+02
188             	3.35632244e+02
189             	3.35678364e+02
190             	3.35694009e+02
191             	3.35728372e+02
192             	3.35782773e+02
193             	3.35812777e+02
194             	3.35838641e+02
195             	3.35878448e+02
196             	3.35915940e+02
197             	3.35967469e+02
198             	3.36024632e+02
199             	3.36047786e+02
200             	3.36093712e+02
201             	3.36158030e+02
202             	3.36223460e+02
203             	3.36263811e+02
204             	3.36312471e+02
205             	3.36306485e+02
206             	3.36346741e+02
207             	3.36396604e+02
208             	3.36374573e+02
209             	3.36366783e+02
210             	3.36367622e+02
211             	3.36376655e+02
212             	3.36343888e+02
213             	3.36339806e+02
214             	3.36366903e+02
215             	3.36416161e+02
216             	3.36461927e+02
217             	3.36513297e+02
218             	3.36558956e+02
219             	3.36584413e+02
220             	3.36605970e+02
221             	3.36600156e+02
222             	3.36575036e+02
223             	3.36533386e+02
224             	3.36502167e+02
225             	3.36502267e+02
226             	3.36470664e+02
227             	3.36412565e+02
228             	3.36351117e+02
229             	3.36311488e+02
230             	3.36295885e+02
231             	3.36308907e+02
232             	3.36333238e+02
233             	3.36366272e+02
234             	3.36383265e+02
235             	3.36390588e+02
236             	3.36394541e+02
237             	3.36402491e+02
238             	3.36363307e+02
239             	3.36379931e+02
240             	3.36407052e+02
241             	3.36418451e+02
242             	3.36374051e+02
243             	3.36330359e+02
244             	3.36342823e+02
245             	3.36386609e+02
246             	3.36434776e+02
247             	3.36456224e+02
248             	3.36498797e+02
249             	3.36551431e+02
250             	3.36612220e+02
251             	3.36604846e+02
252             	3.36616491e+02
253             	3.36651569e+02
254             	3.36695226e+02
255             	3.36734363e+02
256             	3.36768135e+02
257             	3.36800341e+02
258             	3.36834803e+02
259             	3.36844126e+02
260             	3.36848499e+02
261             	3.36884260e+02
262             	3.36914757e+02
263             	3.36906793e+02
264             	3.36902914e+02
265             	3.36909807e+02
266             	3.36913342e+02
267             	3.36926177e+02
268             	3.36929464e+02
269             	3.36943967e+02
270             	3.36977289e+02
271             	3.36981087e+02
272             	3.37007088e+02
273             	3.37008279e+02
274             	3.37030724e+02
275             	3.37062965e+02
276             	3.37104875e+02
277             	3.37141658e+02
278             	3.37175796e+02
279             	3.37191863e+02
280             	3.37149589e+02
281             	3.37159396e+02
282             	3.37195313e+02
283             	3.37218276e+02
284             	3.37198852e+02
285             	3.37154913e+02
286             	3.37144977e+02
287             	3.37152838e+02
288             	3.37138293e+02
289             	3.37151775e+02
290             	3.37179678e+02
291             	3.37184218e+02
292             	3.37213567e+02
293             	3.37224391e+02
294             	3.37255117e+02
295             	3.37284877e+02
296             	3.37311975e+02
297             	3.37309832e+02
298             	3.37277114e+02
299             	3.37298074e+02
300             	3.37332515e+02
301             	3.37359599e+02
302             	3.37348810e+02
303             	3.37343121e+02
304             	3.37317204e+02
305             	3.37303658e+02
306             	3.37298510e+02
307             	3.37299357e+02
308             	3.37315217e+02
309             	3.37304235e+02
310             	3.37311897e+02
311             	3.37331994e+02
312             	3.37329875e+02
313             	3.37287695e+02
314             	3.37311364e+02
315             	3.37343975e+02
316             	3.37348592e+02
317             	3.37307857e+02
318             	3.37300077e+02
319             	3.37280529e+02
320             	3.37279961e+02
321             	3.37295255e+02
322             	3.37323651e+02
323             	3.37338624e+02
324             	3.37355052e+02
325             	3.37375650e+02
326             	3.37360257e+02
327             	3.37358774e+02
328             	3.37374608e+02
329             	3.37362017e+02
330             	3.37368030e+02
331             	3.37385831e+02
332             	3.37409038e+02
333             	3.37438669e+02
334             	3.37410689e+02
335             	3.37424863e+02
336             	3.37455172e+02
337             	3.37482065e+02
338             	3.37473592e+02
339             	3.37475430e+02
340             	3.37453568e+02
341             	3.37457235e+02
342             	3.37467613e+02
343             	3.37475165e+02
344             	3.37477430e+02
345             	3.37453053e+02
346             	3.37445678e+02
347             	3.37449559e+02
348             	3.37441826e+02
349             	3.37453708e+02
350             	3.37465974e+02
351             	3.37445707e+02
352             	3.37445716e+02
353             	3.37442347e+02
354             	3.37462238e+02
355             	3.37473255e+02
356             	3.37485605e+02
357             	3.37477861e+02
358             	3.37481197e+02
359             	3.37487908e+02
360             	3.37506614e+02
361             	3.37532845e+02
362             	3.37548224e+02
363             	3.37558149e+02
364             	3.37502088e+02
365             	3.37498988e+02
366             	3.37503413e+02
367             	3.37503456e+02
368             	3.37504299e+02
369             	3.37464981e+02
370             	3.37432545e+02
371             	3.37397566e+02
372             	3.37392060e+02
373             	3.37375360e+02
374             	3.37385553e+02
375             	3.37413197e+02
376             	3.37433566e+02
377             	3.37425727e+02
378             	3.37433734e+02
379             	3.37449207e+02
380             	3.37466114e+02
381             	3.37476122e+02
382             	3.37476893e+02
383             	3.37464466e+02
384             	3.37404340e+02
385             	3.37397409e+02
386             	3.37407066e+02
387             	3.37423431e+02
388             	3.37441284e+02
389             	3.37450589e+02
390             	3.37452418e+02
391             	3.37468072e+02
392             	3.37472994e+02
393             	3.37458414e+02
394             	3.37457640e+02
395             	3.37432245e+02
396             	3.37393053e+02
397             	3.37412146e+02
398             	3.37430932e+02
399             	3.37410067e+02
400             	3.37393159e+02
401             	3.37349099e+02
402             	3.37334747e+02
403             	3.37330668e+02
404             	3.37335806e+02
405             	3.37366971e+02
406             	3.37362214e+02
407             	3.37372218e+02
408             	3.37386853e+02
409             	3.37398028e+02
410             	3.37385157e+02
411             	3.37369978e+02
412             	3.37373440e+02
413             	3.37367930e+02
414             	3.37376861e+02
415             	3.37405055e+02
416             	3.37433510e+02
417             	3.37451167e+02
418             	3.37447074e+02
419             	3.37445380e+02
420             	3.37418926e+02
421             	3.37406550e+02
422             	3.37440028e+02
423             	3.37442805e+02
424             	3.37462087e+02
425             	3.37448954e+02
426             	3.37455888e+02
427             	3.37451972e+02
428             	3.37480046e+02
429             	3.37506742e+02
430             	3.37530737e+02
431             	3.37545002e+02
432             	3.37552030e+02
433             	3.37564809e+02
434             	3.37541559e+02
435             	3.37541010e+02
436             	3.37559680e+02
437             	3.37573681e+02
438             	3.37588039e+02
439             	3.37612614e+02
440             	3.37640342e+02
441             	3.37634707e+02
442             	3.37618219e+02
443             	3.37623660e+02
444             	3.37633236e+02
445             	3.37636956e+02
446             	3.37608697e+02
447             	3.37610415e+02
448             	3.37593819e+02
449             	3.37595141e+02
450             	3.37584667e+02
451             	3.37601547e+02
452             	3.37626524e+02
453             	3.37644713e+02
454             	3.37646573e+02
455             	3.37630019e+02
456             	3.37621804e+02
457             	3.37615277e+02
458             	3.37592903e+02
459             	3.37596038e+02
460             	3.37614164e+02
461             	3.37585680e+02
462             	3.37571244e+02
463             	3.37580741e+02
464             	3.37600148e+02
465             	3.37605019e+02
466             	3.37610709e+02
467             	3.37595677e+02
468             	3.37598254e+02
469             	3.37608660e+02
470             	3.37597305e+02
471             	3.37600936e+02
472             	3.37586752e+02
473             	3.37600498e+02
474             	3.37625444e+02
475             	3.37652936e+02
476             	3.37639996e+02
477             	3.37648807e+02
478             	3.37637986e+02
479             	3.37649603e+02
480             	3.37672423e+02
481             	3.37669131e+02
482             	3.37678172e+02
483             	3.37659436e+02
484             	3.37670424e+02
485             	3.37652818e+02
486             	3.37675202e+02
487             	3.37698468e+02
488             	3.37673173e+02
489             	3.37665299e+02
490             	3.37671232e+02
491             	3.37676972e+02
492             	3.37658663e+02
493             	3.37663841e+02
494             	3.37655735e+02
495             	3.37668341e+02
496             	3.37664714e+02
497             	3.37678895e+02
498             	3.37677577e+02
499             	3.37691690e+02
500             	3.37712147e+02
501             	3.37728014e+02
502             	3.37703710e+02
503             	3.37717055e+02
504             	3.37735129e+02
505             	3.37710614e+02
506             	3.37702220e+02
507             	3.37706396e+02
508             	3.37710030e+02
509             	3.37711545e+02
510             	3.37702694e+02
511             	3.37679550e+02
512             	3.37681401e+02
513             	3.37668316e+02
514             	3.37669598e+02
515             	3.37680302e+02
516             	3.37683993e+02
517             	3.37671866e+02
518             	3.37674498e+02
519             	3.37685601e+02
520             	3.37701718e+02
521             	3.37728287e+02
522             	3.37756197e+02
523             	3.37744408e+02
524             	3.37740797e+02
525             	3.37720649e+02
526             	3.37717890e+02
527             	3.37730263e+02
528             	3.37714061e+02
529             	3.37714277e+02
530             	3.37731497e+02
531             	3.37707728e+02
532             	3.37704547e+02
533             	3.37715569e+02
534             	3.37703626e+02
535             	3.37684547e+02
536             	3.37698041e+02
537             	3.37716809e+02
538             	3.37710688e+02
539             	3.37717915e+02
540             	3.37731870e+02
541             	3.37751354e+02
542             	3.37773551e+02
543             	3.37762001e+02
544             	3.37768002e+02
545             	3.37786412e+02
546             	3.37807999e+02
547             	3.37767570e+02
548             	3.37755425e+02
549             	3.37726385e+02
550             	3.37720288e+02
551             	3.37695706e+02
552             	3.37693552e+02
553             	3.37704087e+02
554             	3.37728233e+02
555             	3.37721667e+02
556             	3.37728041e+02
557             	3.37742920e+02
558             	3.37758125e+02
559             	3.37768773e+02
560             	3.37768805e+02
561             	3.37741608e+02
562             	3.37740290e+02
563             	3.37760606e+02
564             	3.37776277e+02
565             	3.37756403e+02
566             	3.37749679e+02
567             	3.37722209e+02
568             	3.37712170e+02
569             	3.37688571e+02
570             	3.37688254e+02
571             	3.37701300e+02
572             	3.37699478e+02
573             	3.37679589e+02
574             	3.37678005e+02
575             	3.37690003e+02
576             	3.37667764e+02
577             	3.37659445e+02
578             	3.37649441e+02
579             	3.37655798e+02
580             	3.37661461e+02
581             	3.37671353e+02
582             	3.37692907e+02
583             	3.37677720e+02
584             	3.37678480e+02
585             	3.37687660e+02
586             	3.37706494e+02
587             	3.37695067e+02
588             	3.37694483e+02
589             	3.37705778e+02
590             	3.37690453e+02
591             	3.37695677e+02
592             	3.37713689e+02
593             	3.37698522e+02
594             	3.37696413e+02
595             	3.37707239e+02
596             	3.37688646e+02
597             	3.37684736e+02
598             	3.37692927e+02
599             	3.37708041e+02
600             	3.37691798e+02
601             	3.37689843e+02
602             	3.37706747e+02
603             	3.37698514e+02
604             	3.37707805e+02
605             	3.37728368e+02
606             	3.37721531e+02
607             	3.37731093e+02
608             	3.37719171e+02
609             	3.37720154e+02
610             	3.37727992e+02
611             	3.37751660e+02
612             	3.37759983e+02
613             	3.37776411e+02
614             	3.37793782e+02
615             	3.37812085e+02
616             	3.37835247e+02
617             	3.37819464e+02
618             	3.37819883e+02
619             	3.37837912e+02
620             	3.37822503e+02
621             	3.37826270e+02
