# Region        : cellZone component_2
# Cells         : 320
# Volume        : 6.26672213e-01
# Time          	volAverage(T)
1               	3.00587313e+02
2               	3.01169522e+02
3               	3.01696522e+02
4               	3.02193349e+02
5               	3.02684829e+02
6               	3.03176374e+02
7               	3.03666142e+02
8               	3.04153197e+02
9               	3.04638331e+02
10              	3.05118827e+02
11              	3.05595626e+02
12              	3.06068658e+02
13              	3.06533588e+02
14              	3.06993434e+02
15              	3.07448585e+02
16              	3.07898845e+02
17              	3.08352797e+02
18              	3.08799194e+02
19              	3.09242744e+02
20              	3.09676533e+02
21              	3.10101809e+02
22              	3.10520442e+02
23              	3.10935582e+02
24              	3.11344747e+02
25              	3.11749666e+02
26              	3.12151597e+02
27              	3.12543679e+02
28              	3.12920370e+02
29              	3.13287360e+02
30              	3.13642929e+02
31              	3.13979327e+02
32              	3.14316632e+02
33              	3.14647639e+02
34              	3.14992808e+02
35              	3.15327599e+02
36              	3.15650518e+02
37              	3.15963063e+02
38              	3.16272427e+02
39              	3.16589008e+02
40              	3.16890308e+02
41              	3.17185168e+02
42              	3.17473971e+02
43              	3.17765605e+02
44              	3.18025441e+02
45              	3.18284956e+02
46              	3.18536670e+02
47              	3.18790631e+02
48              	3.19037118e+02
49              	3.19273623e+02
50              	3.19504651e+02
51              	3.19740773e+02
52              	3.19970533e+02
53              	3.20195372e+02
54              	3.20417145e+02
55              	3.20639501e+02
56              	3.20862082e+02
57              	3.21083252e+02
58              	3.21308012e+02
59              	3.21525512e+02
60              	3.21735372e+02
61              	3.21933165e+02
62              	3.22138445e+02
63              	3.22337901e+02
64              	3.22529233e+02
65              	3.22712029e+02
66              	3.22887865e+02
67              	3.23063764e+02
68              	3.23241598e+02
69              	3.23419039e+02
70              	3.23594044e+02
71              	3.23766303e+02
72              	3.23935114e+02
73              	3.24100107e+02
74              	3.24262001e+02
75              	3.24421011e+02
76              	3.24578636e+02
77              	3.24734967e+02
78              	3.24890168e+02
79              	3.25043672e+02
80              	3.25195466e+02
81              	3.25345517e+02
82              	3.25492827e+02
83              	3.25637804e+02
84              	3.25780163e+02
85              	3.25919434e+02
86              	3.26055591e+02
87              	3.26188778e+02
88              	3.26320344e+02
89              	3.26450513e+02
90              	3.26579221e+02
91              	3.26706802e+02
92              	3.26833096e+02
93              	3.26958055e+02
94              	3.27082020e+02
95              	3.27192920e+02
96              	3.27295005e+02
97              	3.27396369e+02
98              	3.27495905e+02
99              	3.27590440e+02
100             	3.27685565e+02
101             	3.27779645e+02
102             	3.27870288e+02
103             	3.27962741e+02
104             	3.28055086e+02
105             	3.28147781e+02
106             	3.28245394e+02
107             	3.28342862e+02
108             	3.28439053e+02
109             	3.28531296e+02
110             	3.28619653e+02
111             	3.28700787e+02
112             	3.28776272e+02
113             	3.28846719e+02
114             	3.28915358e+02
115             	3.28988124e+02
116             	3.29061648e+02
117             	3.29135034e+02
118             	3.29208145e+02
119             	3.29280789e+02
120             	3.29352729e+02
121             	3.29424033e+02
122             	3.29494598e+02
123             	3.29564299e+02
124             	3.29633197e+02
125             	3.29701407e+02
126             	3.29768746e+02
127             	3.29834670e+02
128             	3.29899539e+02
129             	3.29963418e+02
130             	3.30026066e+02
131             	3.30087464e+02
132             	3.30147685e+02
133             	3.30207126e+02
134             	3.30265988e+02
135             	3.30324339e+02
136             	3.30382361e+02
137             	3.30440201e+02
138             	3.30497195e+02
139             	3.30553843e+02
140             	3.30609734e+02
141             	3.30664675e+02
142             	3.30718533e+02
143             	3.30771329e+02
144             	3.30823235e+02
145             	3.30874200e+02
146             	3.30924402e+02
147             	3.30973880e+02
148             	3.31022815e+02
149             	3.31071339e+02
150             	3.31119522e+02
151             	3.31167249e+02
152             	3.31214362e+02
153             	3.31260860e+02
154             	3.31306697e+02
155             	3.31351837e+02
156             	3.31396219e+02
157             	3.31439848e+02
158             	3.31482788e+02
159             	3.31525017e+02
160             	3.31566610e+02
161             	3.31607625e+02
162             	3.31648115e+02
163             	3.31688103e+02
164             	3.31727608e+02
165             	3.31766618e+02
166             	3.31805187e+02
167             	3.31843329e+02
168             	3.31881020e+02
169             	3.31918252e+02
170             	3.31955032e+02
171             	3.31991354e+02
172             	3.32027248e+02
173             	3.32062742e+02
174             	3.32097814e+02
175             	3.32132345e+02
176             	3.32166428e+02
177             	3.32200054e+02
178             	3.32233183e+02
179             	3.32265825e+02
180             	3.32297998e+02
181             	3.32329754e+02
182             	3.32361142e+02
183             	3.32392168e+02
184             	3.32422843e+02
185             	3.32453178e+02
186             	3.32483174e+02
187             	3.32512822e+02
188             	3.32542118e+02
189             	3.32571063e+02
190             	3.32599679e+02
191             	3.32627959e+02
192             	3.32655877e+02
193             	3.32683319e+02
194             	3.32710392e+02
195             	3.32737067e+02
196             	3.32763309e+02
197             	3.32789143e+02
198             	3.32814628e+02
199             	3.32839792e+02
200             	3.32864672e+02
201             	3.32889316e+02
202             	3.32913742e+02
203             	3.32937977e+02
204             	3.32961955e+02
205             	3.32985633e+02
206             	3.33008977e+02
207             	3.33032008e+02
208             	3.33054685e+02
209             	3.33077021e+02
210             	3.33099057e+02
211             	3.33120801e+02
212             	3.33142279e+02
213             	3.33163508e+02
214             	3.33184513e+02
215             	3.33205286e+02
216             	3.33225854e+02
217             	3.33246198e+02
218             	3.33266306e+02
219             	3.33286160e+02
220             	3.33305742e+02
221             	3.33325043e+02
222             	3.33344056e+02
223             	3.33362783e+02
224             	3.33381233e+02
225             	3.33399420e+02
226             	3.33417351e+02
227             	3.33435040e+02
228             	3.33452523e+02
229             	3.33469815e+02
230             	3.33486920e+02
231             	3.33503846e+02
232             	3.33520594e+02
233             	3.33537165e+02
234             	3.33553546e+02
235             	3.33569743e+02
236             	3.33585753e+02
237             	3.33601565e+02
238             	3.33617180e+02
239             	3.33632601e+02
240             	3.33647836e+02
241             	3.33662890e+02
242             	3.33677766e+02
243             	3.33692470e+02
244             	3.33707008e+02
245             	3.33721382e+02
246             	3.33735578e+02
247             	3.33749576e+02
248             	3.33763374e+02
249             	3.33776981e+02
250             	3.33790386e+02
251             	3.33803593e+02
252             	3.33816617e+02
253             	3.33829475e+02
254             	3.33845931e+02
255             	3.33861754e+02
256             	3.33874608e+02
257             	3.33883891e+02
258             	3.33889955e+02
259             	3.33893280e+02
260             	3.33894270e+02
261             	3.33893140e+02
262             	3.33890508e+02
263             	3.33886413e+02
264             	3.33881082e+02
265             	3.33874602e+02
266             	3.33867040e+02
267             	3.33858061e+02
268             	3.33848243e+02
269             	3.33837807e+02
270             	3.33826734e+02
271             	3.33814982e+02
272             	3.33802600e+02
273             	3.33789929e+02
274             	3.33776781e+02
275             	3.33763185e+02
276             	3.33749066e+02
277             	3.33734411e+02
278             	3.33719315e+02
279             	3.33703859e+02
280             	3.33688093e+02
281             	3.33671982e+02
282             	3.33655241e+02
283             	3.33638570e+02
284             	3.33621832e+02
285             	3.33604753e+02
286             	3.33587395e+02
287             	3.33569863e+02
288             	3.33552225e+02
289             	3.33534509e+02
290             	3.33516789e+02
291             	3.33499109e+02
292             	3.33481633e+02
293             	3.33464116e+02
294             	3.33446278e+02
295             	3.33428589e+02
296             	3.33410679e+02
297             	3.33392614e+02
298             	3.33374654e+02
299             	3.33356775e+02
300             	3.33338638e+02
301             	3.33320377e+02
302             	3.33302163e+02
303             	3.33283929e+02
304             	3.33265793e+02
305             	3.33247844e+02
306             	3.33230100e+02
307             	3.33212485e+02
308             	3.33194901e+02
309             	3.33177431e+02
310             	3.33160287e+02
311             	3.33143359e+02
312             	3.33126462e+02
313             	3.33109756e+02
314             	3.33092910e+02
315             	3.33076087e+02
316             	3.33059453e+02
317             	3.33042762e+02
318             	3.33026380e+02
319             	3.33010347e+02
320             	3.32994559e+02
321             	3.32979070e+02
322             	3.32963962e+02
323             	3.32948905e+02
324             	3.32934496e+02
325             	3.32920383e+02
326             	3.32906238e+02
327             	3.32892205e+02
328             	3.32878268e+02
329             	3.32864726e+02
330             	3.32851381e+02
331             	3.32837988e+02
332             	3.32824832e+02
333             	3.32811932e+02
334             	3.32798965e+02
335             	3.32786460e+02
336             	3.32774185e+02
337             	3.32761920e+02
338             	3.32749736e+02
339             	3.32737665e+02
340             	3.32725648e+02
341             	3.32713765e+02
342             	3.32702167e+02
343             	3.32690694e+02
344             	3.32679424e+02
345             	3.32668407e+02
346             	3.32657841e+02
347             	3.32647392e+02
348             	3.32637383e+02
349             	3.32627613e+02
350             	3.32618206e+02
351             	3.32608914e+02
352             	3.32599906e+02
353             	3.32591190e+02
354             	3.32582653e+02
355             	3.32574070e+02
356             	3.32565571e+02
357             	3.32557080e+02
358             	3.32548544e+02
359             	3.32540246e+02
360             	3.32532168e+02
361             	3.32524286e+02
362             	3.32516877e+02
363             	3.32509520e+02
364             	3.32502264e+02
365             	3.32494883e+02
366             	3.32487631e+02
367             	3.32480569e+02
368             	3.32473600e+02
369             	3.32466918e+02
370             	3.32460522e+02
371             	3.32454190e+02
372             	3.32448299e+02
373             	3.32442797e+02
374             	3.32437619e+02
375             	3.32432610e+02
376             	3.32427656e+02
377             	3.32422990e+02
378             	3.32418515e+02
379             	3.32413900e+02
380             	3.32409185e+02
381             	3.32404779e+02
382             	3.32399993e+02
383             	3.32394911e+02
384             	3.32390027e+02
385             	3.32385600e+02
386             	3.32381625e+02
387             	3.32377946e+02
388             	3.32374550e+02
389             	3.32371491e+02
390             	3.32368432e+02
391             	3.32365464e+02
392             	3.32362647e+02
393             	3.32359891e+02
394             	3.32357146e+02
395             	3.32354488e+02
396             	3.32351992e+02
397             	3.32349609e+02
398             	3.32347285e+02
399             	3.32344683e+02
400             	3.32342562e+02
401             	3.32340554e+02
402             	3.32338410e+02
403             	3.32336275e+02
404             	3.32334310e+02
405             	3.32332567e+02
406             	3.32331203e+02
407             	3.32329934e+02
408             	3.32329095e+02
409             	3.32328218e+02
410             	3.32327448e+02
411             	3.32326957e+02
412             	3.32326544e+02
413             	3.32326137e+02
414             	3.32325598e+02
415             	3.32325255e+02
416             	3.32324985e+02
417             	3.32324866e+02
418             	3.32324731e+02
419             	3.32324465e+02
420             	3.32324400e+02
421             	3.32324346e+02
422             	3.32324599e+02
423             	3.32325179e+02
424             	3.32326016e+02
425             	3.32327075e+02
426             	3.32328296e+02
427             	3.32329431e+02
428             	3.32330658e+02
429             	3.32331992e+02
430             	3.32333251e+02
431             	3.32334423e+02
432             	3.32335725e+02
433             	3.32337125e+02
434             	3.32338352e+02
435             	3.32339570e+02
436             	3.32341000e+02
437             	3.32342723e+02
438             	3.32344604e+02
439             	3.32346597e+02
440             	3.32348727e+02
441             	3.32350906e+02
442             	3.32353124e+02
443             	3.32355526e+02
444             	3.32358013e+02
445             	3.32360525e+02
446             	3.32363173e+02
447             	3.32365979e+02
448             	3.32368893e+02
449             	3.32371843e+02
450             	3.32374803e+02
451             	3.32378099e+02
452             	3.32381677e+02
453             	3.32385323e+02
454             	3.32388903e+02
455             	3.32392352e+02
456             	3.32395745e+02
457             	3.32399330e+02
458             	3.32403047e+02
459             	3.32406770e+02
460             	3.32410463e+02
461             	3.32414185e+02
462             	3.32417843e+02
463             	3.32421516e+02
464             	3.32425410e+02
465             	3.32429263e+02
466             	3.32433303e+02
467             	3.32437393e+02
468             	3.32441662e+02
469             	3.32446065e+02
470             	3.32450523e+02
471             	3.32454853e+02
472             	3.32459245e+02
473             	3.32463794e+02
474             	3.32468435e+02
475             	3.32473290e+02
476             	3.32478264e+02
477             	3.32483331e+02
478             	3.32488402e+02
479             	3.32493570e+02
480             	3.32498810e+02
481             	3.32504059e+02
482             	3.32509237e+02
483             	3.32514467e+02
484             	3.32519706e+02
485             	3.32524843e+02
486             	3.32529868e+02
487             	3.32535115e+02
488             	3.32540330e+02
489             	3.32545661e+02
490             	3.32551197e+02
491             	3.32556772e+02
492             	3.32562468e+02
493             	3.32568075e+02
494             	3.32573800e+02
495             	3.32579533e+02
496             	3.32585226e+02
497             	3.32590896e+02
498             	3.32596399e+02
499             	3.32602115e+02
500             	3.32607823e+02
501             	3.32613526e+02
502             	3.32619435e+02
503             	3.32625322e+02
504             	3.32631517e+02
505             	3.32637663e+02
506             	3.32643895e+02
507             	3.32650097e+02
508             	3.32656583e+02
509             	3.32662994e+02
510             	3.32669524e+02
511             	3.32676155e+02
512             	3.32682733e+02
513             	3.32689151e+02
514             	3.32695621e+02
515             	3.32702080e+02
516             	3.32708568e+02
517             	3.32715121e+02
518             	3.32721707e+02
519             	3.32728327e+02
520             	3.32735043e+02
521             	3.32741817e+02
522             	3.32748493e+02
523             	3.32755395e+02
524             	3.32762162e+02
525             	3.32768764e+02
526             	3.32775363e+02
527             	3.32782120e+02
528             	3.32788734e+02
529             	3.32795448e+02
530             	3.32802295e+02
531             	3.32809274e+02
532             	3.32816210e+02
533             	3.32823176e+02
534             	3.32830305e+02
535             	3.32837591e+02
536             	3.32844869e+02
537             	3.32852142e+02
538             	3.32859381e+02
539             	3.32866745e+02
540             	3.32874177e+02
541             	3.32881620e+02
542             	3.32889060e+02
543             	3.32896542e+02
544             	3.32904023e+02
545             	3.32911504e+02
546             	3.32919022e+02
547             	3.32926492e+02
548             	3.32933853e+02
549             	3.32941293e+02
550             	3.32948756e+02
551             	3.32956395e+02
552             	3.32963925e+02
553             	3.32971422e+02
554             	3.32978918e+02
555             	3.32986582e+02
556             	3.32994179e+02
557             	3.33001936e+02
558             	3.33009940e+02
559             	3.33017943e+02
560             	3.33025795e+02
561             	3.33033782e+02
562             	3.33041796e+02
563             	3.33049803e+02
564             	3.33057805e+02
565             	3.33065760e+02
566             	3.33073747e+02
567             	3.33081759e+02
568             	3.33089845e+02
569             	3.33097875e+02
570             	3.33105955e+02
571             	3.33114086e+02
572             	3.33122173e+02
573             	3.33130238e+02
574             	3.33138377e+02
575             	3.33146477e+02
576             	3.33154595e+02
577             	3.33162729e+02
578             	3.33171007e+02
579             	3.33179010e+02
580             	3.33186836e+02
581             	3.33194917e+02
582             	3.33203264e+02
583             	3.33211364e+02
584             	3.33219310e+02
585             	3.33227417e+02
586             	3.33235630e+02
587             	3.33243867e+02
588             	3.33252091e+02
589             	3.33260320e+02
590             	3.33268565e+02
591             	3.33276812e+02
592             	3.33285088e+02
593             	3.33293377e+02
594             	3.33301713e+02
595             	3.33310037e+02
596             	3.33318414e+02
597             	3.33326796e+02
598             	3.33335228e+02
599             	3.33343665e+02
600             	3.33352141e+02
601             	3.33360627e+02
602             	3.33369141e+02
603             	3.33377702e+02
604             	3.33386160e+02
605             	3.33394767e+02
606             	3.33403277e+02
607             	3.33411575e+02
608             	3.33420020e+02
609             	3.33428381e+02
610             	3.33436726e+02
611             	3.33445203e+02
612             	3.33453514e+02
613             	3.33461653e+02
614             	3.33470174e+02
615             	3.33478485e+02
616             	3.33486669e+02
617             	3.33495058e+02
618             	3.33503498e+02
619             	3.33511816e+02
620             	3.33520314e+02
621             	3.33528764e+02
