# Region        : cellZone component_0
# Cells         : 17
# Volume        : 1.42982124e-02
# Time          	volAverage(T)
1               	3.07159400e+02
2               	3.13986692e+02
3               	3.20001291e+02
4               	3.25577770e+02
5               	3.30923551e+02
6               	3.36035904e+02
7               	3.40933751e+02
8               	3.45614151e+02
9               	3.50135383e+02
10              	3.54449459e+02
11              	3.58666256e+02
12              	3.62781209e+02
13              	3.66901221e+02
14              	3.70858425e+02
15              	3.74655138e+02
16              	3.78358342e+02
17              	3.81950719e+02
18              	3.85465107e+02
19              	3.89003236e+02
20              	3.92576581e+02
21              	3.96137369e+02
22              	3.99600346e+02
23              	4.02989106e+02
24              	4.06147807e+02
25              	4.09118399e+02
26              	4.11886571e+02
27              	4.14510964e+02
28              	4.17105628e+02
29              	4.19620689e+02
30              	4.22178689e+02
31              	4.24810266e+02
32              	4.27586192e+02
33              	4.30184939e+02
34              	4.32788765e+02
35              	4.35402857e+02
36              	4.38076774e+02
37              	4.40594930e+02
38              	4.42881656e+02
39              	4.45011602e+02
40              	4.47112770e+02
41              	4.49024886e+02
42              	4.50838164e+02
43              	4.52419377e+02
44              	4.53745353e+02
45              	4.54893303e+02
46              	4.56124878e+02
47              	4.57292225e+02
48              	4.58649474e+02
49              	4.60176498e+02
50              	4.61774655e+02
51              	4.63397775e+02
52              	4.65051834e+02
53              	4.66062784e+02
54              	4.67241771e+02
55              	4.68505933e+02
56              	4.69697893e+02
57              	4.70610276e+02
58              	4.71161081e+02
59              	4.71643056e+02
60              	4.72122976e+02
61              	4.72645798e+02
62              	4.73512675e+02
63              	4.74233046e+02
64              	4.74728897e+02
65              	4.75374657e+02
66              	4.76132406e+02
67              	4.76926144e+02
68              	4.78012445e+02
69              	4.79169222e+02
70              	4.80159434e+02
71              	4.81441025e+02
72              	4.82384372e+02
73              	4.83241314e+02
74              	4.84093742e+02
75              	4.85027515e+02
76              	4.85878343e+02
77              	4.86821839e+02
78              	4.87865596e+02
79              	4.88953395e+02
80              	4.90124105e+02
81              	4.91206518e+02
82              	4.92356691e+02
83              	4.93583405e+02
84              	4.94835517e+02
85              	4.96027302e+02
86              	4.97067561e+02
87              	4.98144360e+02
88              	4.99144229e+02
89              	5.00255673e+02
90              	5.01443960e+02
91              	5.02566270e+02
92              	5.03657762e+02
93              	5.04573693e+02
94              	5.05454343e+02
95              	5.06298564e+02
96              	5.07296141e+02
97              	5.08019940e+02
98              	5.08907487e+02
99              	5.09816819e+02
100             	5.10877168e+02
101             	5.11900259e+02
102             	5.12973619e+02
103             	5.14027792e+02
104             	5.15256861e+02
105             	5.16472184e+02
106             	5.17692824e+02
107             	5.18945110e+02
108             	5.20089568e+02
109             	5.21169489e+02
110             	5.22217160e+02
111             	5.23263998e+02
112             	5.24308680e+02
113             	5.25343181e+02
114             	5.26374974e+02
115             	5.27453190e+02
116             	5.28542614e+02
117             	5.29616778e+02
118             	5.30655813e+02
119             	5.31605633e+02
120             	5.32501241e+02
121             	5.33364241e+02
122             	5.34209132e+02
123             	5.35022455e+02
124             	5.35742435e+02
125             	5.36400598e+02
126             	5.37062101e+02
127             	5.37741840e+02
128             	5.38552386e+02
129             	5.39417416e+02
130             	5.40232747e+02
131             	5.41000388e+02
132             	5.41762126e+02
133             	5.42544848e+02
134             	5.43359154e+02
135             	5.44116147e+02
136             	5.44741594e+02
137             	5.45386844e+02
138             	5.46053184e+02
139             	5.46732401e+02
140             	5.47392524e+02
141             	5.48031096e+02
142             	5.48846057e+02
143             	5.49668708e+02
144             	5.50392353e+02
145             	5.51049431e+02
146             	5.51675424e+02
147             	5.52302094e+02
148             	5.52942461e+02
149             	5.53586763e+02
150             	5.54223052e+02
151             	5.54836067e+02
152             	5.55389192e+02
153             	5.55952225e+02
154             	5.56539505e+02
155             	5.57144340e+02
156             	5.57745207e+02
157             	5.58337568e+02
158             	5.58890143e+02
159             	5.59424730e+02
160             	5.59956889e+02
161             	5.60497888e+02
162             	5.61000735e+02
163             	5.61478908e+02
164             	5.61934514e+02
165             	5.62378609e+02
166             	5.62823614e+02
167             	5.63301500e+02
168             	5.63772725e+02
169             	5.64216959e+02
170             	5.64619730e+02
171             	5.65034853e+02
172             	5.65457648e+02
173             	5.65868506e+02
174             	5.66244706e+02
175             	5.66637071e+02
176             	5.67049308e+02
177             	5.67439438e+02
178             	5.67795256e+02
179             	5.68138201e+02
180             	5.68495446e+02
181             	5.68888311e+02
182             	5.69261076e+02
183             	5.69586446e+02
184             	5.69902519e+02
185             	5.70212957e+02
186             	5.70495907e+02
187             	5.70773398e+02
188             	5.71015249e+02
189             	5.71303314e+02
190             	5.71588116e+02
191             	5.71872888e+02
192             	5.72163585e+02
193             	5.72470386e+02
194             	5.72795748e+02
195             	5.73133120e+02
196             	5.73414837e+02
197             	5.73680269e+02
198             	5.73927316e+02
199             	5.74161022e+02
200             	5.74369375e+02
201             	5.74582512e+02
202             	5.74794710e+02
203             	5.75065682e+02
204             	5.75337603e+02
205             	5.75599444e+02
206             	5.75830581e+02
207             	5.76056711e+02
208             	5.76298161e+02
209             	5.76542264e+02
210             	5.76784175e+02
211             	5.76976490e+02
212             	5.77126019e+02
213             	5.77288258e+02
214             	5.77460120e+02
215             	5.77648016e+02
216             	5.77850232e+02
217             	5.78099562e+02
218             	5.78347078e+02
219             	5.78544035e+02
220             	5.78719218e+02
221             	5.78886340e+02
222             	5.79059846e+02
223             	5.79213778e+02
224             	5.79361793e+02
225             	5.79499487e+02
226             	5.79649411e+02
227             	5.79805239e+02
228             	5.79965230e+02
229             	5.80119464e+02
230             	5.80275797e+02
231             	5.80421937e+02
232             	5.80567861e+02
233             	5.80721214e+02
234             	5.80869703e+02
235             	5.81009304e+02
236             	5.81149738e+02
237             	5.81291986e+02
238             	5.81439493e+02
239             	5.81574814e+02
240             	5.81716645e+02
241             	5.81855309e+02
242             	5.81992780e+02
243             	5.82120445e+02
244             	5.82240601e+02
245             	5.82346407e+02
246             	5.82440752e+02
247             	5.82517535e+02
248             	5.82584379e+02
249             	5.82657248e+02
250             	5.82731282e+02
251             	5.82801852e+02
252             	5.82869065e+02
253             	5.82931890e+02
254             	5.83005002e+02
255             	5.83082915e+02
256             	5.83157355e+02
257             	5.83211908e+02
258             	5.83267617e+02
259             	5.83313068e+02
260             	5.83353039e+02
261             	5.83390079e+02
262             	5.83427145e+02
263             	5.83460505e+02
264             	5.83496858e+02
265             	5.83529123e+02
266             	5.83578872e+02
267             	5.83619695e+02
268             	5.83656958e+02
269             	5.83685816e+02
270             	5.83715848e+02
271             	5.83730289e+02
272             	5.83729629e+02
273             	5.83729332e+02
274             	5.83732475e+02
275             	5.83735979e+02
276             	5.83741995e+02
277             	5.83745072e+02
278             	5.83759712e+02
279             	5.83785210e+02
280             	5.83818217e+02
281             	5.83845273e+02
282             	5.83868390e+02
283             	5.83889920e+02
284             	5.83911918e+02
285             	5.83916652e+02
286             	5.83914998e+02
287             	5.83901261e+02
288             	5.83896482e+02
289             	5.83894903e+02
290             	5.83901349e+02
291             	5.83922512e+02
292             	5.83956241e+02
293             	5.83981849e+02
294             	5.83999428e+02
295             	5.84008052e+02
296             	5.84012816e+02
297             	5.84008784e+02
298             	5.83994242e+02
299             	5.83982122e+02
300             	5.83989382e+02
301             	5.84007726e+02
302             	5.84030350e+02
303             	5.84046473e+02
304             	5.84059658e+02
305             	5.84066047e+02
306             	5.84066225e+02
307             	5.84054870e+02
308             	5.84044585e+02
309             	5.84033760e+02
310             	5.84027570e+02
311             	5.84025728e+02
312             	5.84034447e+02
313             	5.84049566e+02
314             	5.84067084e+02
315             	5.84077006e+02
316             	5.84083030e+02
317             	5.84079976e+02
318             	5.84080216e+02
319             	5.84083441e+02
320             	5.84082296e+02
321             	5.84074892e+02
322             	5.84073704e+02
323             	5.84071858e+02
324             	5.84074156e+02
325             	5.84071861e+02
326             	5.84071745e+02
327             	5.84068340e+02
328             	5.84066507e+02
329             	5.84060363e+02
330             	5.84053305e+02
331             	5.84045263e+02
332             	5.84037449e+02
333             	5.84028503e+02
334             	5.84023591e+02
335             	5.84017465e+02
336             	5.84013680e+02
337             	5.84010776e+02
338             	5.84010130e+02
339             	5.84008465e+02
340             	5.84010503e+02
341             	5.84008770e+02
342             	5.84009244e+02
343             	5.84006449e+02
344             	5.84004822e+02
345             	5.84000567e+02
346             	5.83999101e+02
347             	5.83995230e+02
348             	5.83993405e+02
349             	5.83989082e+02
350             	5.83987833e+02
351             	5.83983957e+02
352             	5.83982444e+02
353             	5.83977555e+02
354             	5.83975839e+02
355             	5.83972210e+02
356             	5.83971488e+02
357             	5.83969891e+02
358             	5.83968910e+02
359             	5.83964535e+02
360             	5.83962114e+02
361             	5.83957685e+02
362             	5.83956409e+02
363             	5.83952747e+02
364             	5.83951483e+02
365             	5.83949182e+02
366             	5.83948405e+02
367             	5.83944173e+02
368             	5.83941622e+02
369             	5.83937098e+02
370             	5.83936285e+02
371             	5.83934014e+02
372             	5.83935490e+02
373             	5.83938096e+02
374             	5.83942900e+02
375             	5.83945870e+02
376             	5.83951315e+02
377             	5.83945317e+02
378             	5.83952667e+02
379             	5.83953321e+02
380             	5.83955341e+02
381             	5.83954198e+02
382             	5.83946867e+02
383             	5.83948067e+02
384             	5.83950952e+02
385             	5.83944234e+02
386             	5.83950973e+02
387             	5.83952693e+02
388             	5.83946292e+02
389             	5.83948027e+02
390             	5.83942367e+02
391             	5.83935935e+02
392             	5.83932656e+02
393             	5.83930319e+02
394             	5.83929914e+02
395             	5.83935928e+02
396             	5.83932094e+02
397             	5.83927626e+02
398             	5.83925957e+02
399             	5.83922052e+02
400             	5.83919626e+02
401             	5.83914932e+02
402             	5.83912298e+02
403             	5.83916263e+02
404             	5.83911135e+02
405             	5.83905569e+02
406             	5.83902738e+02
407             	5.83899226e+02
408             	5.83898127e+02
409             	5.83895291e+02
410             	5.83894547e+02
411             	5.83892290e+02
412             	5.83892043e+02
413             	5.83889940e+02
414             	5.83890202e+02
415             	5.83886946e+02
416             	5.83885015e+02
417             	5.83882042e+02
418             	5.83880546e+02
419             	5.83877409e+02
420             	5.83876978e+02
421             	5.83875986e+02
422             	5.83877360e+02
423             	5.83876632e+02
424             	5.83876533e+02
425             	5.83874585e+02
426             	5.83874346e+02
427             	5.83873753e+02
428             	5.83874627e+02
429             	5.83872901e+02
430             	5.83873531e+02
431             	5.83873073e+02
432             	5.83873904e+02
433             	5.83872963e+02
434             	5.83873811e+02
435             	5.83872464e+02
436             	5.83871958e+02
437             	5.83869516e+02
438             	5.83868500e+02
439             	5.83865464e+02
440             	5.83863996e+02
441             	5.83861211e+02
442             	5.83861289e+02
443             	5.83859707e+02
444             	5.83859442e+02
445             	5.83857698e+02
446             	5.83858146e+02
447             	5.83857212e+02
448             	5.83857343e+02
449             	5.83855384e+02
450             	5.83855596e+02
451             	5.83854175e+02
452             	5.83854206e+02
453             	5.83852656e+02
454             	5.83852630e+02
455             	5.83850932e+02
456             	5.83851300e+02
457             	5.83850325e+02
458             	5.83851289e+02
459             	5.83850274e+02
460             	5.83850416e+02
461             	5.83849431e+02
462             	5.83850379e+02
463             	5.83849365e+02
464             	5.83849340e+02
465             	5.83847673e+02
466             	5.83847895e+02
467             	5.83846378e+02
468             	5.83847099e+02
469             	5.83846087e+02
470             	5.83846231e+02
471             	5.83844972e+02
472             	5.83844815e+02
473             	5.83843110e+02
474             	5.83842815e+02
475             	5.83841086e+02
476             	5.83841340e+02
477             	5.83839910e+02
478             	5.83839724e+02
479             	5.83838169e+02
480             	5.83838816e+02
481             	5.83837892e+02
482             	5.83838764e+02
483             	5.83837959e+02
484             	5.83838428e+02
485             	5.83837576e+02
486             	5.83838968e+02
487             	5.83838467e+02
488             	5.83839154e+02
489             	5.83838208e+02
490             	5.83838167e+02
491             	5.83836580e+02
492             	5.83836813e+02
493             	5.83835755e+02
494             	5.83836811e+02
495             	5.83836161e+02
496             	5.83836724e+02
497             	5.83835638e+02
498             	5.83835851e+02
499             	5.83834623e+02
500             	5.83834655e+02
501             	5.83833320e+02
502             	5.83833398e+02
503             	5.83832114e+02
504             	5.83831936e+02
505             	5.83830361e+02
506             	5.83830251e+02
507             	5.83828932e+02
508             	5.83829059e+02
509             	5.83827928e+02
510             	5.83829353e+02
511             	5.83829143e+02
512             	5.83830118e+02
513             	5.83829736e+02
514             	5.83830429e+02
515             	5.83829586e+02
516             	5.83830044e+02
517             	5.83829107e+02
518             	5.83828935e+02
519             	5.83827451e+02
520             	5.83827528e+02
521             	5.83826454e+02
522             	5.83827663e+02
523             	5.83827335e+02
524             	5.83828242e+02
525             	5.83827760e+02
526             	5.83828653e+02
527             	5.83828097e+02
528             	5.83828682e+02
529             	5.83827911e+02
530             	5.83828476e+02
531             	5.83827681e+02
532             	5.83827978e+02
533             	5.83826883e+02
534             	5.83827236e+02
535             	5.83826188e+02
536             	5.83826579e+02
537             	5.83825782e+02
538             	5.83826445e+02
539             	5.83825731e+02
540             	5.83826393e+02
541             	5.83825735e+02
542             	5.83826302e+02
543             	5.83825496e+02
544             	5.83826139e+02
545             	5.83825459e+02
546             	5.83825824e+02
547             	5.83824736e+02
548             	5.83824940e+02
549             	5.83823889e+02
550             	5.83824182e+02
551             	5.83823271e+02
552             	5.83823826e+02
553             	5.83823092e+02
554             	5.83823775e+02
555             	5.83823193e+02
556             	5.83823911e+02
557             	5.83823318e+02
558             	5.83824126e+02
559             	5.83823584e+02
560             	5.83824114e+02
561             	5.83823256e+02
562             	5.83823828e+02
563             	5.83823123e+02
564             	5.83823785e+02
565             	5.83823119e+02
566             	5.83823807e+02
567             	5.83823120e+02
568             	5.83823794e+02
569             	5.83823135e+02
570             	5.83823770e+02
571             	5.83823035e+02
572             	5.83823689e+02
573             	5.83823022e+02
574             	5.83823413e+02
575             	5.83822430e+02
576             	5.83822893e+02
577             	5.83822098e+02
578             	5.83822671e+02
579             	5.83821943e+02
580             	5.83822581e+02
581             	5.83821839e+02
582             	5.83822471e+02
583             	5.83821944e+02
584             	5.83822655e+02
585             	5.83821952e+02
586             	5.83822557e+02
587             	5.83821772e+02
588             	5.83822095e+02
589             	5.83821055e+02
590             	5.83821487e+02
591             	5.83820755e+02
592             	5.83821478e+02
593             	5.83820986e+02
594             	5.83821908e+02
595             	5.83821435e+02
596             	5.83822263e+02
597             	5.83821725e+02
598             	5.83822434e+02
599             	5.83821696e+02
600             	5.83822301e+02
601             	5.83821527e+02
602             	5.83821935e+02
603             	5.83820981e+02
604             	5.83821466e+02
605             	5.83820688e+02
606             	5.83822146e+02
607             	5.83821902e+02
608             	5.83822894e+02
609             	5.83822453e+02
610             	5.83823351e+02
611             	5.83822895e+02
612             	5.83823708e+02
613             	5.83823167e+02
614             	5.83823983e+02
615             	5.83823485e+02
616             	5.83824055e+02
617             	5.83823158e+02
618             	5.83823566e+02
619             	5.83822705e+02
620             	5.83823234e+02
621             	5.83822489e+02
