# Region        : cellZone component_0
# Cells         : 56
# Volume        : 9.16449088e-02
# Time          	volAverage(T)
1               	3.03596903e+02
2               	3.07075743e+02
3               	3.09725045e+02
4               	3.11932076e+02
5               	3.14161568e+02
6               	3.16482022e+02
7               	3.18772930e+02
8               	3.20988068e+02
9               	3.23166493e+02
10              	3.25248464e+02
11              	3.27163738e+02
12              	3.28911640e+02
13              	3.30527785e+02
14              	3.32105523e+02
15              	3.33729573e+02
16              	3.35362919e+02
17              	3.36950532e+02
18              	3.38441501e+02
19              	3.39865287e+02
20              	3.41239602e+02
21              	3.42559278e+02
22              	3.43806889e+02
23              	3.44993062e+02
24              	3.46109122e+02
25              	3.47157987e+02
26              	3.48141826e+02
27              	3.49018315e+02
28              	3.49751390e+02
29              	3.50431882e+02
30              	3.51111315e+02
31              	3.51872994e+02
32              	3.52711153e+02
33              	3.53559096e+02
34              	3.54291377e+02
35              	3.54986456e+02
36              	3.55665044e+02
37              	3.56367404e+02
38              	3.57004513e+02
39              	3.57570531e+02
40              	3.58070205e+02
41              	3.58510385e+02
42              	3.58915274e+02
43              	3.59315698e+02
44              	3.59735519e+02
45              	3.60158434e+02
46              	3.60620342e+02
47              	3.61042785e+02
48              	3.61521966e+02
49              	3.62028606e+02
50              	3.62540724e+02
51              	3.63083542e+02
52              	3.63655133e+02
53              	3.64221223e+02
54              	3.64764248e+02
55              	3.65297965e+02
56              	3.65722884e+02
57              	3.66103495e+02
58              	3.66505311e+02
59              	3.66887562e+02
60              	3.67207437e+02
61              	3.67520595e+02
62              	3.67832958e+02
63              	3.68102134e+02
64              	3.68399225e+02
65              	3.68668674e+02
66              	3.68956835e+02
67              	3.69252960e+02
68              	3.69503078e+02
69              	3.69715981e+02
70              	3.69937180e+02
71              	3.70114329e+02
72              	3.70219847e+02
73              	3.70320200e+02
74              	3.70439059e+02
75              	3.70559725e+02
76              	3.70662235e+02
77              	3.70720752e+02
78              	3.70772479e+02
79              	3.70774010e+02
80              	3.70840008e+02
81              	3.70953154e+02
82              	3.71069351e+02
83              	3.71204662e+02
84              	3.71362252e+02
85              	3.71487292e+02
86              	3.71700427e+02
87              	3.71874091e+02
88              	3.71961570e+02
89              	3.72088390e+02
90              	3.72179940e+02
91              	3.72262244e+02
92              	3.72337485e+02
93              	3.72389511e+02
94              	3.72440638e+02
95              	3.72479324e+02
96              	3.72502509e+02
97              	3.72554211e+02
98              	3.72556821e+02
99              	3.72621599e+02
100             	3.72697782e+02
101             	3.72715324e+02
102             	3.72756796e+02
103             	3.72812627e+02
104             	3.72852961e+02
105             	3.72863456e+02
106             	3.72871418e+02
107             	3.72869300e+02
108             	3.72873475e+02
109             	3.72881319e+02
110             	3.72887655e+02
111             	3.72849681e+02
112             	3.72860058e+02
113             	3.72905547e+02
114             	3.72884036e+02
115             	3.72887292e+02
116             	3.72900937e+02
117             	3.72873725e+02
118             	3.72855303e+02
119             	3.72832108e+02
120             	3.72810408e+02
121             	3.72777661e+02
122             	3.72731411e+02
123             	3.72679523e+02
124             	3.72633422e+02
125             	3.72609115e+02
126             	3.72530521e+02
127             	3.72485570e+02
128             	3.72463524e+02
129             	3.72449819e+02
130             	3.72432035e+02
131             	3.72407636e+02
132             	3.72389121e+02
133             	3.72376451e+02
134             	3.72360770e+02
135             	3.72332223e+02
136             	3.72290225e+02
137             	3.72241011e+02
138             	3.72186844e+02
139             	3.72133490e+02
140             	3.72086075e+02
141             	3.72040018e+02
142             	3.71993406e+02
143             	3.71949262e+02
144             	3.71904579e+02
145             	3.71859046e+02
146             	3.71812724e+02
147             	3.71768942e+02
148             	3.71727433e+02
149             	3.71693434e+02
150             	3.71648134e+02
151             	3.71599620e+02
152             	3.71554982e+02
153             	3.71515130e+02
154             	3.71476413e+02
155             	3.71433394e+02
156             	3.71384822e+02
157             	3.71340075e+02
158             	3.71294944e+02
159             	3.71244322e+02
160             	3.71193640e+02
161             	3.71145960e+02
162             	3.71100180e+02
163             	3.71055239e+02
164             	3.71010442e+02
165             	3.70967854e+02
166             	3.70926946e+02
167             	3.70883471e+02
168             	3.70841011e+02
169             	3.70797095e+02
170             	3.70751975e+02
171             	3.70705232e+02
172             	3.70658056e+02
173             	3.70612400e+02
174             	3.70568570e+02
175             	3.70524287e+02
176             	3.70483947e+02
177             	3.70443200e+02
178             	3.70402392e+02
179             	3.70360841e+02
180             	3.70321183e+02
181             	3.70282866e+02
182             	3.70242490e+02
183             	3.70197678e+02
184             	3.70155707e+02
185             	3.70114860e+02
186             	3.70072856e+02
187             	3.70030637e+02
188             	3.69990745e+02
189             	3.69956595e+02
190             	3.69918816e+02
191             	3.69878798e+02
192             	3.69840112e+02
193             	3.69803199e+02
194             	3.69767118e+02
195             	3.69729808e+02
196             	3.69691492e+02
197             	3.69654377e+02
198             	3.69618051e+02
199             	3.69581561e+02
200             	3.69544993e+02
201             	3.69508854e+02
202             	3.69474860e+02
203             	3.69440065e+02
204             	3.69406507e+02
205             	3.69373852e+02
206             	3.69341643e+02
207             	3.69310820e+02
208             	3.69280719e+02
209             	3.69250444e+02
210             	3.69219755e+02
211             	3.69188767e+02
212             	3.69157507e+02
213             	3.69125275e+02
214             	3.69093884e+02
215             	3.69063128e+02
216             	3.69032167e+02
217             	3.69001077e+02
218             	3.68970279e+02
219             	3.68939936e+02
220             	3.68911212e+02
221             	3.68882469e+02
222             	3.68854220e+02
223             	3.68826961e+02
224             	3.68801073e+02
225             	3.68775402e+02
226             	3.68749893e+02
227             	3.68725130e+02
228             	3.68700506e+02
229             	3.68675743e+02
230             	3.68650794e+02
231             	3.68625963e+02
232             	3.68601523e+02
233             	3.68577377e+02
234             	3.68553410e+02
235             	3.68529036e+02
236             	3.68504432e+02
237             	3.68480386e+02
238             	3.68456390e+02
239             	3.68432434e+02
240             	3.68408859e+02
241             	3.68385398e+02
242             	3.68361959e+02
243             	3.68338769e+02
244             	3.68316022e+02
245             	3.68293823e+02
246             	3.68272201e+02
247             	3.68251116e+02
248             	3.68230513e+02
249             	3.68210890e+02
250             	3.68191379e+02
251             	3.68172289e+02
252             	3.68153773e+02
253             	3.68135764e+02
254             	3.68118109e+02
255             	3.68100649e+02
256             	3.68083343e+02
257             	3.68066070e+02
258             	3.68048793e+02
259             	3.68031558e+02
260             	3.68014363e+02
261             	3.67997116e+02
262             	3.67979827e+02
263             	3.67962739e+02
264             	3.67945538e+02
265             	3.67928391e+02
266             	3.67911340e+02
267             	3.67894701e+02
268             	3.67878441e+02
269             	3.67862373e+02
270             	3.67846471e+02
271             	3.67830790e+02
272             	3.67815367e+02
273             	3.67800207e+02
274             	3.67785290e+02
275             	3.67770621e+02
276             	3.67756193e+02
277             	3.67742008e+02
278             	3.67728070e+02
279             	3.67714356e+02
280             	3.67700861e+02
281             	3.67687603e+02
282             	3.67674565e+02
283             	3.67661763e+02
284             	3.67649181e+02
285             	3.67636820e+02
286             	3.67624676e+02
287             	3.67612762e+02
288             	3.67601040e+02
289             	3.67589512e+02
290             	3.67578211e+02
291             	3.67567094e+02
292             	3.67556161e+02
293             	3.67545359e+02
294             	3.67534712e+02
295             	3.67524107e+02
296             	3.67513874e+02
297             	3.67503911e+02
298             	3.67494091e+02
299             	3.67484404e+02
300             	3.67474884e+02
301             	3.67465551e+02
302             	3.67456381e+02
303             	3.67447413e+02
304             	3.67438667e+02
305             	3.67430426e+02
306             	3.67422143e+02
307             	3.67413836e+02
308             	3.67405738e+02
309             	3.67397869e+02
310             	3.67389961e+02
311             	3.67382296e+02
312             	3.67374810e+02
313             	3.67367208e+02
314             	3.67359545e+02
315             	3.67351896e+02
316             	3.67344295e+02
317             	3.67336800e+02
318             	3.67329480e+02
319             	3.67322478e+02
320             	3.67315537e+02
321             	3.67308699e+02
322             	3.67302051e+02
323             	3.67295565e+02
324             	3.67289337e+02
325             	3.67283289e+02
326             	3.67277320e+02
327             	3.67271353e+02
328             	3.67265452e+02
329             	3.67259671e+02
330             	3.67253956e+02
331             	3.67248240e+02
332             	3.67242598e+02
333             	3.67236948e+02
334             	3.67231389e+02
335             	3.67225905e+02
336             	3.67220528e+02
337             	3.67215243e+02
338             	3.67210072e+02
339             	3.67205042e+02
340             	3.67200145e+02
341             	3.67195393e+02
342             	3.67190792e+02
343             	3.67186353e+02
344             	3.67182087e+02
345             	3.67177981e+02
346             	3.67174043e+02
347             	3.67170234e+02
348             	3.67166538e+02
349             	3.67162927e+02
350             	3.67159375e+02
351             	3.67155879e+02
352             	3.67152431e+02
353             	3.67149045e+02
354             	3.67145696e+02
355             	3.67142425e+02
356             	3.67139202e+02
357             	3.67136052e+02
358             	3.67133009e+02
359             	3.67130022e+02
360             	3.67127045e+02
361             	3.67124077e+02
362             	3.67121109e+02
363             	3.67118273e+02
364             	3.67115499e+02
365             	3.67112726e+02
366             	3.67110025e+02
367             	3.67107443e+02
368             	3.67104944e+02
369             	3.67102468e+02
370             	3.67100141e+02
371             	3.67097830e+02
372             	3.67095642e+02
373             	3.67093570e+02
374             	3.67091555e+02
375             	3.67089601e+02
376             	3.67087734e+02
377             	3.67085971e+02
378             	3.67084320e+02
379             	3.67082758e+02
380             	3.67081299e+02
381             	3.67079943e+02
382             	3.67078678e+02
383             	3.67077492e+02
384             	3.67076349e+02
385             	3.67075262e+02
386             	3.67074202e+02
387             	3.67073213e+02
388             	3.67072245e+02
389             	3.67071321e+02
390             	3.67070438e+02
391             	3.67069583e+02
392             	3.67068776e+02
393             	3.67068001e+02
394             	3.67067265e+02
395             	3.67066537e+02
396             	3.67065888e+02
397             	3.67065299e+02
398             	3.67064756e+02
399             	3.67064249e+02
400             	3.67063769e+02
401             	3.67063410e+02
402             	3.67063060e+02
403             	3.67062703e+02
404             	3.67062420e+02
405             	3.67062145e+02
406             	3.67061918e+02
407             	3.67061696e+02
408             	3.67061502e+02
409             	3.67061332e+02
410             	3.67061174e+02
411             	3.67061023e+02
412             	3.67060904e+02
413             	3.67060817e+02
414             	3.67060779e+02
415             	3.67060752e+02
416             	3.67060787e+02
417             	3.67060879e+02
418             	3.67061007e+02
419             	3.67061133e+02
420             	3.67061286e+02
421             	3.67061458e+02
422             	3.67061649e+02
423             	3.67061853e+02
424             	3.67062079e+02
425             	3.67062320e+02
426             	3.67062593e+02
427             	3.67062955e+02
428             	3.67063340e+02
429             	3.67063733e+02
430             	3.67064178e+02
431             	3.67064653e+02
432             	3.67065175e+02
433             	3.67065704e+02
434             	3.67066294e+02
435             	3.67066761e+02
436             	3.67067315e+02
437             	3.67067936e+02
438             	3.67068526e+02
439             	3.67069112e+02
440             	3.67069703e+02
441             	3.67070420e+02
442             	3.67071162e+02
443             	3.67071829e+02
444             	3.67072547e+02
445             	3.67073350e+02
446             	3.67074225e+02
447             	3.67075146e+02
448             	3.67076109e+02
449             	3.67077104e+02
450             	3.67078153e+02
451             	3.67079216e+02
452             	3.67080329e+02
453             	3.67081484e+02
454             	3.67082655e+02
455             	3.67083817e+02
456             	3.67084998e+02
457             	3.67086169e+02
458             	3.67087325e+02
459             	3.67088480e+02
460             	3.67089637e+02
461             	3.67090904e+02
462             	3.67092151e+02
463             	3.67093389e+02
464             	3.67094680e+02
465             	3.67096034e+02
466             	3.67097442e+02
467             	3.67098821e+02
468             	3.67100241e+02
469             	3.67101669e+02
470             	3.67103080e+02
471             	3.67104476e+02
472             	3.67105870e+02
473             	3.67107275e+02
474             	3.67108709e+02
475             	3.67110145e+02
476             	3.67111570e+02
477             	3.67112993e+02
478             	3.67114418e+02
479             	3.67115815e+02
480             	3.67117193e+02
481             	3.67118529e+02
482             	3.67119836e+02
483             	3.67121149e+02
484             	3.67122476e+02
485             	3.67123833e+02
486             	3.67125217e+02
487             	3.67126667e+02
488             	3.67128174e+02
489             	3.67129689e+02
490             	3.67131228e+02
491             	3.67132771e+02
492             	3.67134299e+02
493             	3.67135762e+02
494             	3.67137205e+02
495             	3.67138586e+02
496             	3.67139939e+02
497             	3.67141298e+02
498             	3.67142609e+02
499             	3.67143983e+02
500             	3.67145347e+02
501             	3.67146789e+02
502             	3.67148327e+02
503             	3.67149891e+02
504             	3.67151490e+02
505             	3.67153103e+02
506             	3.67154742e+02
507             	3.67156345e+02
508             	3.67157908e+02
509             	3.67159410e+02
510             	3.67160912e+02
511             	3.67162371e+02
512             	3.67163821e+02
513             	3.67165232e+02
514             	3.67166614e+02
515             	3.67168040e+02
516             	3.67169494e+02
517             	3.67170995e+02
518             	3.67172515e+02
519             	3.67174090e+02
520             	3.67175689e+02
521             	3.67177314e+02
522             	3.67178964e+02
523             	3.67180607e+02
524             	3.67182241e+02
525             	3.67183857e+02
526             	3.67185468e+02
527             	3.67187013e+02
528             	3.67188523e+02
529             	3.67189987e+02
530             	3.67191423e+02
531             	3.67192835e+02
532             	3.67194221e+02
533             	3.67195627e+02
534             	3.67197027e+02
535             	3.67198478e+02
536             	3.67199923e+02
537             	3.67201398e+02
538             	3.67202930e+02
539             	3.67204505e+02
540             	3.67206114e+02
541             	3.67207750e+02
542             	3.67209424e+02
543             	3.67211115e+02
544             	3.67212800e+02
545             	3.67214482e+02
546             	3.67216165e+02
547             	3.67217807e+02
548             	3.67219414e+02
549             	3.67220958e+02
550             	3.67222451e+02
551             	3.67223912e+02
552             	3.67225334e+02
553             	3.67226769e+02
554             	3.67228167e+02
555             	3.67229588e+02
556             	3.67231019e+02
557             	3.67232487e+02
558             	3.67234006e+02
559             	3.67235583e+02
560             	3.67237203e+02
561             	3.67238809e+02
562             	3.67240459e+02
563             	3.67242107e+02
564             	3.67243743e+02
565             	3.67245371e+02
566             	3.67247001e+02
567             	3.67248670e+02
568             	3.67250341e+02
569             	3.67251999e+02
570             	3.67253627e+02
571             	3.67255257e+02
572             	3.67256877e+02
573             	3.67258367e+02
574             	3.67259956e+02
575             	3.67261630e+02
576             	3.67263283e+02
577             	3.67264952e+02
578             	3.67266588e+02
579             	3.67268290e+02
580             	3.67270004e+02
581             	3.67271779e+02
582             	3.67273599e+02
583             	3.67275454e+02
584             	3.67277343e+02
585             	3.67279220e+02
586             	3.67281096e+02
587             	3.67282877e+02
588             	3.67284631e+02
589             	3.67286294e+02
590             	3.67287912e+02
591             	3.67289504e+02
592             	3.67291018e+02
593             	3.67292507e+02
594             	3.67293974e+02
595             	3.67295466e+02
596             	3.67296955e+02
597             	3.67298481e+02
598             	3.67300057e+02
599             	3.67301699e+02
600             	3.67303338e+02
601             	3.67304998e+02
602             	3.67306634e+02
603             	3.67308243e+02
604             	3.67309887e+02
605             	3.67311511e+02
606             	3.67313117e+02
607             	3.67314713e+02
608             	3.67316293e+02
609             	3.67317844e+02
610             	3.67319348e+02
611             	3.67320832e+02
612             	3.67322298e+02
613             	3.67323729e+02
614             	3.67325138e+02
615             	3.67326528e+02
616             	3.67327912e+02
617             	3.67329294e+02
618             	3.67330681e+02
619             	3.67332078e+02
620             	3.67333488e+02
621             	3.67334922e+02
