# Region        : cellZone component_0
# Cells         : 56
# Volume        : 8.53819830e-02
# Time          	volAverage(T)
1               	3.02818068e+02
2               	3.05560963e+02
3               	3.08025145e+02
4               	3.10299690e+02
5               	3.12473163e+02
6               	3.14570610e+02
7               	3.16592932e+02
8               	3.18554941e+02
9               	3.20440554e+02
10              	3.22186101e+02
11              	3.23835197e+02
12              	3.25422204e+02
13              	3.26863763e+02
14              	3.28218998e+02
15              	3.29541683e+02
16              	3.30875314e+02
17              	3.32209561e+02
18              	3.33556864e+02
19              	3.34911560e+02
20              	3.36184309e+02
21              	3.37517584e+02
22              	3.38899769e+02
23              	3.40085971e+02
24              	3.41211991e+02
25              	3.42312711e+02
26              	3.43433791e+02
27              	3.44561873e+02
28              	3.45714643e+02
29              	3.46873204e+02
30              	3.48013220e+02
31              	3.49038755e+02
32              	3.49871665e+02
33              	3.50613056e+02
34              	3.51429450e+02
35              	3.52283243e+02
36              	3.53086586e+02
37              	3.53859483e+02
38              	3.54667956e+02
39              	3.55565395e+02
40              	3.56525465e+02
41              	3.57510098e+02
42              	3.58432831e+02
43              	3.59172370e+02
44              	3.59877434e+02
45              	3.60621015e+02
46              	3.61311431e+02
47              	3.61935764e+02
48              	3.62528495e+02
49              	3.63052968e+02
50              	3.63640031e+02
51              	3.64218117e+02
52              	3.64728975e+02
53              	3.65255737e+02
54              	3.65769360e+02
55              	3.66243084e+02
56              	3.66737413e+02
57              	3.67325341e+02
58              	3.67945578e+02
59              	3.68584902e+02
60              	3.69182248e+02
61              	3.69826583e+02
62              	3.70440362e+02
63              	3.70944374e+02
64              	3.71448983e+02
65              	3.71954661e+02
66              	3.72494508e+02
67              	3.73019455e+02
68              	3.73501789e+02
69              	3.74016595e+02
70              	3.74569570e+02
71              	3.75179984e+02
72              	3.75721014e+02
73              	3.76209127e+02
74              	3.76509557e+02
75              	3.76875205e+02
76              	3.77326502e+02
77              	3.77816751e+02
78              	3.78313171e+02
79              	3.78785786e+02
80              	3.79219109e+02
81              	3.79648564e+02
82              	3.80022979e+02
83              	3.80434000e+02
84              	3.80844318e+02
85              	3.81260983e+02
86              	3.81678371e+02
87              	3.81946118e+02
88              	3.82135199e+02
89              	3.82323968e+02
90              	3.82627156e+02
91              	3.83060484e+02
92              	3.83583691e+02
93              	3.84035963e+02
94              	3.84477337e+02
95              	3.84853565e+02
96              	3.85182570e+02
97              	3.85467199e+02
98              	3.85749699e+02
99              	3.86065279e+02
100             	3.86401504e+02
101             	3.86724932e+02
102             	3.86985390e+02
103             	3.87213220e+02
104             	3.87354393e+02
105             	3.87538511e+02
106             	3.87719864e+02
107             	3.87986694e+02
108             	3.88218376e+02
109             	3.88404300e+02
110             	3.88567949e+02
111             	3.88756494e+02
112             	3.89020339e+02
113             	3.89406579e+02
114             	3.89781499e+02
115             	3.90083769e+02
116             	3.90263785e+02
117             	3.90403384e+02
118             	3.90517463e+02
119             	3.90753005e+02
120             	3.90888973e+02
121             	3.90958057e+02
122             	3.90976120e+02
123             	3.90982689e+02
124             	3.90964105e+02
125             	3.90953075e+02
126             	3.91018730e+02
127             	3.91028452e+02
128             	3.91064796e+02
129             	3.91094560e+02
130             	3.91061875e+02
131             	3.90952811e+02
132             	3.90755027e+02
133             	3.90643614e+02
134             	3.90638060e+02
135             	3.90664930e+02
136             	3.90672261e+02
137             	3.90716317e+02
138             	3.90799171e+02
139             	3.90872649e+02
140             	3.90928316e+02
141             	3.91003578e+02
142             	3.91086719e+02
143             	3.91172874e+02
144             	3.91257004e+02
145             	3.91349167e+02
146             	3.91448629e+02
147             	3.91596245e+02
148             	3.91768518e+02
149             	3.92001104e+02
150             	3.92084727e+02
151             	3.91649790e+02
152             	3.91176905e+02
153             	3.90808045e+02
154             	3.90297895e+02
155             	3.90124412e+02
156             	3.90136420e+02
157             	3.90144046e+02
158             	3.90141782e+02
159             	3.90134685e+02
160             	3.90187975e+02
161             	3.90268551e+02
162             	3.90334764e+02
163             	3.90399571e+02
164             	3.90513341e+02
165             	3.90660124e+02
166             	3.90841535e+02
167             	3.91077553e+02
168             	3.91273173e+02
169             	3.91433910e+02
170             	3.91573955e+02
171             	3.91774721e+02
172             	3.92010111e+02
173             	3.92297986e+02
174             	3.92660310e+02
175             	3.93034956e+02
176             	3.93434174e+02
177             	3.93831677e+02
178             	3.94120097e+02
179             	3.94421980e+02
180             	3.94712112e+02
181             	3.94972315e+02
182             	3.95178912e+02
183             	3.95345376e+02
184             	3.95528653e+02
185             	3.95740665e+02
186             	3.95951824e+02
187             	3.96160067e+02
188             	3.96354396e+02
189             	3.96558726e+02
190             	3.96742284e+02
191             	3.96965842e+02
192             	3.97202918e+02
193             	3.97374002e+02
194             	3.97539813e+02
195             	3.97700478e+02
196             	3.97884124e+02
197             	3.98176894e+02
198             	3.98544307e+02
199             	3.98895933e+02
200             	3.99217288e+02
201             	3.99558079e+02
202             	3.99810099e+02
203             	4.00091330e+02
204             	4.00304474e+02
205             	4.00488913e+02
206             	4.00588444e+02
207             	4.00635508e+02
208             	4.00667541e+02
209             	4.00714742e+02
210             	4.00819442e+02
211             	4.01037025e+02
212             	4.01194808e+02
213             	4.01294643e+02
214             	4.01479728e+02
215             	4.01672199e+02
216             	4.01871369e+02
217             	4.02088187e+02
218             	4.02377379e+02
219             	4.02663726e+02
220             	4.02998174e+02
221             	4.03226941e+02
222             	4.03419789e+02
223             	4.03576105e+02
224             	4.03654435e+02
225             	4.03695720e+02
226             	4.03739699e+02
227             	4.03797416e+02
228             	4.03851050e+02
229             	4.03935962e+02
230             	4.04059932e+02
231             	4.04222500e+02
232             	4.04356192e+02
233             	4.04388544e+02
234             	4.04386721e+02
235             	4.04461443e+02
236             	4.04478600e+02
237             	4.04437577e+02
238             	4.04359016e+02
239             	4.04212955e+02
240             	4.04057750e+02
241             	4.03916338e+02
242             	4.03756615e+02
243             	4.03606877e+02
244             	4.03467151e+02
245             	4.03359717e+02
246             	4.03392426e+02
247             	4.03389001e+02
248             	4.03329063e+02
249             	4.03308697e+02
250             	4.03415000e+02
251             	4.03521398e+02
252             	4.03567224e+02
253             	4.03586237e+02
254             	4.03584043e+02
255             	4.03625607e+02
256             	4.03680016e+02
257             	4.03814936e+02
258             	4.03981135e+02
259             	4.04106772e+02
260             	4.04257578e+02
261             	4.04436726e+02
262             	4.04504750e+02
263             	4.04595270e+02
264             	4.04678442e+02
265             	4.04733859e+02
266             	4.04771680e+02
267             	4.04808401e+02
268             	4.04860112e+02
269             	4.04923290e+02
270             	4.04934334e+02
271             	4.04983224e+02
272             	4.05043513e+02
273             	4.05129909e+02
274             	4.05260731e+02
275             	4.05402718e+02
276             	4.05562673e+02
277             	4.05743413e+02
278             	4.05922993e+02
279             	4.06118779e+02
280             	4.06336985e+02
281             	4.06593553e+02
282             	4.06798022e+02
283             	4.06920106e+02
284             	4.06980416e+02
285             	4.07037129e+02
286             	4.07053050e+02
287             	4.07032263e+02
288             	4.07012358e+02
289             	4.06995084e+02
290             	4.07037375e+02
291             	4.07094307e+02
292             	4.07193160e+02
293             	4.07313478e+02
294             	4.07442309e+02
295             	4.07603329e+02
296             	4.07789512e+02
297             	4.07980289e+02
298             	4.08177790e+02
299             	4.08358175e+02
300             	4.08535016e+02
301             	4.08703499e+02
302             	4.08873240e+02
303             	4.09027143e+02
304             	4.09150497e+02
305             	4.09276939e+02
306             	4.09389291e+02
307             	4.09499397e+02
308             	4.09611106e+02
309             	4.09720153e+02
310             	4.09775418e+02
311             	4.09829466e+02
312             	4.09936312e+02
313             	4.10021913e+02
314             	4.10113410e+02
315             	4.10195557e+02
316             	4.10325600e+02
317             	4.10468863e+02
318             	4.10626637e+02
319             	4.10787144e+02
320             	4.10960744e+02
321             	4.11138509e+02
322             	4.11309684e+02
323             	4.11475132e+02
324             	4.11571318e+02
325             	4.11659021e+02
326             	4.11741683e+02
327             	4.11804769e+02
328             	4.11853653e+02
329             	4.11900513e+02
330             	4.11955717e+02
331             	4.12025509e+02
332             	4.12106382e+02
333             	4.12190703e+02
334             	4.12293221e+02
335             	4.12391806e+02
336             	4.12495748e+02
337             	4.12602694e+02
338             	4.12727639e+02
339             	4.12845294e+02
340             	4.12996339e+02
341             	4.13154812e+02
342             	4.13297643e+02
343             	4.13438994e+02
344             	4.13583731e+02
345             	4.13757234e+02
346             	4.13886370e+02
347             	4.14029818e+02
348             	4.14136584e+02
349             	4.14216904e+02
350             	4.14304461e+02
351             	4.14350570e+02
352             	4.14385342e+02
353             	4.14427189e+02
354             	4.14450091e+02
355             	4.14474804e+02
356             	4.14526850e+02
357             	4.14571938e+02
358             	4.14619511e+02
359             	4.14674296e+02
360             	4.14738560e+02
361             	4.14795718e+02
362             	4.14843566e+02
363             	4.14860232e+02
364             	4.14881666e+02
365             	4.14895010e+02
366             	4.14928109e+02
367             	4.14970381e+02
368             	4.15028689e+02
369             	4.15059098e+02
370             	4.15118783e+02
371             	4.15216544e+02
372             	4.15278838e+02
373             	4.15353731e+02
374             	4.15436772e+02
375             	4.15522353e+02
376             	4.15586660e+02
377             	4.15620745e+02
378             	4.15668384e+02
379             	4.15679403e+02
380             	4.15699279e+02
381             	4.15724332e+02
382             	4.15754273e+02
383             	4.15738577e+02
384             	4.15747223e+02
385             	4.15773586e+02
386             	4.15771019e+02
387             	4.15770077e+02
388             	4.15781527e+02
389             	4.15782652e+02
390             	4.15804369e+02
391             	4.15843624e+02
392             	4.15842973e+02
393             	4.15864701e+02
394             	4.15878464e+02
395             	4.15918100e+02
396             	4.15970982e+02
397             	4.15992546e+02
398             	4.16037532e+02
399             	4.16077089e+02
400             	4.16128589e+02
401             	4.16169013e+02
402             	4.16183109e+02
403             	4.16195325e+02
404             	4.16206862e+02
405             	4.16170101e+02
406             	4.16144505e+02
407             	4.16131027e+02
408             	4.16090669e+02
409             	4.16080508e+02
410             	4.16084129e+02
411             	4.16089593e+02
412             	4.16114494e+02
413             	4.16142842e+02
414             	4.16151996e+02
415             	4.16180517e+02
416             	4.16230220e+02
417             	4.16241914e+02
418             	4.16290997e+02
419             	4.16310240e+02
420             	4.16340528e+02
421             	4.16402691e+02
422             	4.16439376e+02
423             	4.16506457e+02
424             	4.16551888e+02
425             	4.16597193e+02
426             	4.16642616e+02
427             	4.16663615e+02
428             	4.16706925e+02
429             	4.16714560e+02
430             	4.16739591e+02
431             	4.16737103e+02
432             	4.16747399e+02
433             	4.16772596e+02
434             	4.16756057e+02
435             	4.16747273e+02
436             	4.16753539e+02
437             	4.16734181e+02
438             	4.16739276e+02
439             	4.16756754e+02
440             	4.16777269e+02
441             	4.16757462e+02
442             	4.16761944e+02
443             	4.16784149e+02
444             	4.16772619e+02
445             	4.16780775e+02
446             	4.16809843e+02
447             	4.16800380e+02
448             	4.16816776e+02
449             	4.16811880e+02
450             	4.16832652e+02
451             	4.16830911e+02
452             	4.16851401e+02
453             	4.16877922e+02
454             	4.16877739e+02
455             	4.16887832e+02
456             	4.16893567e+02
457             	4.16915154e+02
458             	4.16950544e+02
459             	4.16998753e+02
460             	4.17015068e+02
461             	4.17057843e+02
462             	4.17078035e+02
463             	4.17108238e+02
464             	4.17139069e+02
465             	4.17144453e+02
466             	4.17153763e+02
467             	4.17146513e+02
468             	4.17158620e+02
469             	4.17138894e+02
470             	4.17138016e+02
471             	4.17111806e+02
472             	4.17106467e+02
473             	4.17082445e+02
474             	4.17077567e+02
475             	4.17085846e+02
476             	4.17065150e+02
477             	4.17075754e+02
478             	4.17078751e+02
479             	4.17100055e+02
480             	4.17123045e+02
481             	4.17151862e+02
482             	4.17195684e+02
483             	4.17197968e+02
484             	4.17228680e+02
485             	4.17229347e+02
486             	4.17255210e+02
487             	4.17250592e+02
488             	4.17270649e+02
489             	4.17263049e+02
490             	4.17275048e+02
491             	4.17298193e+02
492             	4.17306471e+02
493             	4.17296693e+02
494             	4.17307771e+02
495             	4.17272374e+02
496             	4.17256066e+02
497             	4.17224413e+02
498             	4.17222081e+02
499             	4.17202958e+02
500             	4.17219364e+02
501             	4.17246149e+02
502             	4.17233264e+02
503             	4.17253468e+02
504             	4.17256258e+02
505             	4.17290241e+02
506             	4.17297194e+02
507             	4.17333327e+02
508             	4.17341156e+02
509             	4.17379228e+02
510             	4.17383130e+02
511             	4.17419348e+02
512             	4.17437802e+02
513             	4.17460117e+02
514             	4.17464083e+02
515             	4.17468264e+02
516             	4.17479797e+02
517             	4.17445475e+02
518             	4.17427876e+02
519             	4.17395828e+02
520             	4.17395746e+02
521             	4.17351923e+02
522             	4.17337371e+02
523             	4.17307759e+02
524             	4.17323647e+02
525             	4.17311967e+02
526             	4.17327214e+02
527             	4.17368147e+02
528             	4.17388341e+02
529             	4.17431150e+02
530             	4.17474973e+02
531             	4.17528933e+02
532             	4.17544170e+02
533             	4.17574854e+02
534             	4.17618975e+02
535             	4.17617766e+02
536             	4.17628720e+02
537             	4.17639988e+02
538             	4.17617631e+02
539             	4.17578843e+02
540             	4.17520104e+02
541             	4.17481275e+02
542             	4.17424968e+02
543             	4.17398364e+02
544             	4.17363768e+02
545             	4.17336595e+02
546             	4.17324477e+02
547             	4.17320810e+02
548             	4.17321186e+02
549             	4.17323629e+02
550             	4.17319543e+02
551             	4.17333883e+02
552             	4.17351242e+02
553             	4.17325102e+02
554             	4.17295962e+02
555             	4.17262209e+02
556             	4.17228660e+02
557             	4.17198367e+02
558             	4.17179033e+02
559             	4.17181708e+02
560             	4.17185054e+02
561             	4.17210584e+02
562             	4.17251390e+02
563             	4.17301070e+02
564             	4.17347893e+02
565             	4.17406358e+02
566             	4.17428860e+02
567             	4.17459259e+02
568             	4.17477742e+02
569             	4.17485451e+02
570             	4.17513466e+02
571             	4.17500825e+02
572             	4.17515425e+02
573             	4.17497394e+02
574             	4.17504358e+02
575             	4.17485468e+02
576             	4.17499682e+02
577             	4.17512733e+02
578             	4.17509231e+02
579             	4.17516526e+02
580             	4.17526763e+02
581             	4.17553101e+02
582             	4.17594083e+02
583             	4.17593270e+02
584             	4.17591311e+02
585             	4.17616980e+02
586             	4.17615811e+02
587             	4.17616906e+02
588             	4.17608906e+02
589             	4.17590284e+02
590             	4.17600414e+02
591             	4.17573969e+02
592             	4.17572746e+02
593             	4.17540350e+02
594             	4.17533712e+02
595             	4.17498471e+02
596             	4.17470237e+02
597             	4.17459397e+02
598             	4.17455554e+02
599             	4.17462968e+02
600             	4.17469314e+02
601             	4.17475788e+02
602             	4.17483582e+02
603             	4.17452700e+02
604             	4.17444803e+02
605             	4.17455992e+02
606             	4.17432808e+02
607             	4.17434548e+02
608             	4.17420111e+02
609             	4.17429919e+02
610             	4.17427394e+02
611             	4.17410462e+02
612             	4.17424586e+02
613             	4.17406923e+02
614             	4.17419648e+02
615             	4.17402227e+02
616             	4.17406094e+02
617             	4.17396254e+02
618             	4.17404353e+02
619             	4.17424652e+02
620             	4.17415949e+02
621             	4.17433525e+02
