# Region        : cellZone component_2
# Cells         : 311
# Volume        : 6.14177542e-01
# Time          	volAverage(T)
1               	3.01012409e+02
2               	3.02012756e+02
3               	3.02930810e+02
4               	3.03792215e+02
5               	3.04626457e+02
6               	3.05442190e+02
7               	3.06241775e+02
8               	3.07027444e+02
9               	3.07803905e+02
10              	3.08567912e+02
11              	3.09322298e+02
12              	3.10066280e+02
13              	3.10799159e+02
14              	3.11523080e+02
15              	3.12239223e+02
16              	3.12947045e+02
17              	3.13647454e+02
18              	3.14332224e+02
19              	3.15000251e+02
20              	3.15655076e+02
21              	3.16305535e+02
22              	3.16945421e+02
23              	3.17560585e+02
24              	3.18166501e+02
25              	3.18752755e+02
26              	3.19326717e+02
27              	3.19893256e+02
28              	3.20444753e+02
29              	3.20982027e+02
30              	3.21508964e+02
31              	3.22025894e+02
32              	3.22537327e+02
33              	3.23033058e+02
34              	3.23526180e+02
35              	3.24000102e+02
36              	3.24468751e+02
37              	3.24924899e+02
38              	3.25368650e+02
39              	3.25803669e+02
40              	3.26221060e+02
41              	3.26593108e+02
42              	3.26931793e+02
43              	3.27272940e+02
44              	3.27636639e+02
45              	3.28014078e+02
46              	3.28394768e+02
47              	3.28760649e+02
48              	3.29137125e+02
49              	3.29509946e+02
50              	3.29879695e+02
51              	3.30233071e+02
52              	3.30569605e+02
53              	3.30884764e+02
54              	3.31179481e+02
55              	3.31468276e+02
56              	3.31758726e+02
57              	3.32046629e+02
58              	3.32331165e+02
59              	3.32620020e+02
60              	3.32906440e+02
61              	3.33192885e+02
62              	3.33477686e+02
63              	3.33764880e+02
64              	3.34055744e+02
65              	3.34347208e+02
66              	3.34640631e+02
67              	3.34941784e+02
68              	3.35250181e+02
69              	3.35550076e+02
70              	3.35847273e+02
71              	3.36129271e+02
72              	3.36425006e+02
73              	3.36708289e+02
74              	3.36992565e+02
75              	3.37267413e+02
76              	3.37530438e+02
77              	3.37775141e+02
78              	3.37998798e+02
79              	3.38228886e+02
80              	3.38455569e+02
81              	3.38681765e+02
82              	3.38903031e+02
83              	3.39122357e+02
84              	3.39340159e+02
85              	3.39558327e+02
86              	3.39776932e+02
87              	3.39993613e+02
88              	3.40212063e+02
89              	3.40427839e+02
90              	3.40643369e+02
91              	3.40861032e+02
92              	3.41075421e+02
93              	3.41293154e+02
94              	3.41500610e+02
95              	3.41709802e+02
96              	3.41917183e+02
97              	3.42120352e+02
98              	3.42312447e+02
99              	3.42497342e+02
100             	3.42659743e+02
101             	3.42802578e+02
102             	3.42951108e+02
103             	3.43098366e+02
104             	3.43245748e+02
105             	3.43396902e+02
106             	3.43554390e+02
107             	3.43719188e+02
108             	3.43886795e+02
109             	3.44051589e+02
110             	3.44221921e+02
111             	3.44387286e+02
112             	3.44542925e+02
113             	3.44678423e+02
114             	3.44816375e+02
115             	3.44952559e+02
116             	3.45084475e+02
117             	3.45213694e+02
118             	3.45334802e+02
119             	3.45457593e+02
120             	3.45580914e+02
121             	3.45706135e+02
122             	3.45830857e+02
123             	3.45954706e+02
124             	3.46080089e+02
125             	3.46209071e+02
126             	3.46341570e+02
127             	3.46481072e+02
128             	3.46627987e+02
129             	3.46763849e+02
130             	3.46910953e+02
131             	3.47049015e+02
132             	3.47188179e+02
133             	3.47321236e+02
134             	3.47455919e+02
135             	3.47585456e+02
136             	3.47706966e+02
137             	3.47813716e+02
138             	3.47914536e+02
139             	3.48004270e+02
140             	3.48091988e+02
141             	3.48167671e+02
142             	3.48249431e+02
143             	3.48338287e+02
144             	3.48427985e+02
145             	3.48517992e+02
146             	3.48607507e+02
147             	3.48698092e+02
148             	3.48789253e+02
149             	3.48882319e+02
150             	3.48977263e+02
151             	3.49072968e+02
152             	3.49169516e+02
153             	3.49264060e+02
154             	3.49357147e+02
155             	3.49450678e+02
156             	3.49541869e+02
157             	3.49633103e+02
158             	3.49722200e+02
159             	3.49810879e+02
160             	3.49898564e+02
161             	3.49986604e+02
162             	3.50073427e+02
163             	3.50158338e+02
164             	3.50241746e+02
165             	3.50321053e+02
166             	3.50399891e+02
167             	3.50473961e+02
168             	3.50540511e+02
169             	3.50604195e+02
170             	3.50662963e+02
171             	3.50724119e+02
172             	3.50787597e+02
173             	3.50853510e+02
174             	3.50920893e+02
175             	3.50990641e+02
176             	3.51067916e+02
177             	3.51149070e+02
178             	3.51230172e+02
179             	3.51313210e+02
180             	3.51397116e+02
181             	3.51475900e+02
182             	3.51555950e+02
183             	3.51631449e+02
184             	3.51697603e+02
185             	3.51760534e+02
186             	3.51818534e+02
187             	3.51876228e+02
188             	3.51932845e+02
189             	3.51989643e+02
190             	3.52046999e+02
191             	3.52105873e+02
192             	3.52167268e+02
193             	3.52230185e+02
194             	3.52295337e+02
195             	3.52358884e+02
196             	3.52420830e+02
197             	3.52481658e+02
198             	3.52541895e+02
199             	3.52599314e+02
200             	3.52656555e+02
201             	3.52714852e+02
202             	3.52772972e+02
203             	3.52832154e+02
204             	3.52893783e+02
205             	3.52956871e+02
206             	3.53021386e+02
207             	3.53085510e+02
208             	3.53151250e+02
209             	3.53217342e+02
210             	3.53283454e+02
211             	3.53348125e+02
212             	3.53410607e+02
213             	3.53472428e+02
214             	3.53528789e+02
215             	3.53581700e+02
216             	3.53628668e+02
217             	3.53673837e+02
218             	3.53716109e+02
219             	3.53755097e+02
220             	3.53793611e+02
221             	3.53828711e+02
222             	3.53864925e+02
223             	3.53902171e+02
224             	3.53940719e+02
225             	3.53980949e+02
226             	3.54023205e+02
227             	3.54067928e+02
228             	3.54114591e+02
229             	3.54162891e+02
230             	3.54212025e+02
231             	3.54263379e+02
232             	3.54312946e+02
233             	3.54362259e+02
234             	3.54411685e+02
235             	3.54459091e+02
236             	3.54504699e+02
237             	3.54545809e+02
238             	3.54583235e+02
239             	3.54617768e+02
240             	3.54649983e+02
241             	3.54683555e+02
242             	3.54718079e+02
243             	3.54753317e+02
244             	3.54789103e+02
245             	3.54827288e+02
246             	3.54866658e+02
247             	3.54906471e+02
248             	3.54947818e+02
249             	3.54989399e+02
250             	3.55031385e+02
251             	3.55073647e+02
252             	3.55114076e+02
253             	3.55152600e+02
254             	3.55189425e+02
255             	3.55224857e+02
256             	3.55258651e+02
257             	3.55291526e+02
258             	3.55323023e+02
259             	3.55353625e+02
260             	3.55383587e+02
261             	3.55413929e+02
262             	3.55445737e+02
263             	3.55477584e+02
264             	3.55509380e+02
265             	3.55540801e+02
266             	3.55571577e+02
267             	3.55604734e+02
268             	3.55639849e+02
269             	3.55675929e+02
270             	3.55708905e+02
271             	3.55742008e+02
272             	3.55773723e+02
273             	3.55804735e+02
274             	3.55834603e+02
275             	3.55862020e+02
276             	3.55889556e+02
277             	3.55916610e+02
278             	3.55943276e+02
279             	3.55968955e+02
280             	3.55993626e+02
281             	3.56018316e+02
282             	3.56043176e+02
283             	3.56068363e+02
284             	3.56093559e+02
285             	3.56118900e+02
286             	3.56143576e+02
287             	3.56168072e+02
288             	3.56192429e+02
289             	3.56216144e+02
290             	3.56239759e+02
291             	3.56262450e+02
292             	3.56284449e+02
293             	3.56305763e+02
294             	3.56326840e+02
295             	3.56347045e+02
296             	3.56365530e+02
297             	3.56382244e+02
298             	3.56399181e+02
299             	3.56417447e+02
300             	3.56435780e+02
301             	3.56454221e+02
302             	3.56472420e+02
303             	3.56492425e+02
304             	3.56513875e+02
305             	3.56535983e+02
306             	3.56558564e+02
307             	3.56581538e+02
308             	3.56605480e+02
309             	3.56629321e+02
310             	3.56652881e+02
311             	3.56676484e+02
312             	3.56699593e+02
313             	3.56722416e+02
314             	3.56744551e+02
315             	3.56766153e+02
316             	3.56787173e+02
317             	3.56807633e+02
318             	3.56827823e+02
319             	3.56847250e+02
320             	3.56865942e+02
321             	3.56883606e+02
322             	3.56900885e+02
323             	3.56917971e+02
324             	3.56934646e+02
325             	3.56951170e+02
326             	3.56966998e+02
327             	3.56982833e+02
328             	3.56998405e+02
329             	3.57013739e+02
330             	3.57028549e+02
331             	3.57042961e+02
332             	3.57057101e+02
333             	3.57070709e+02
334             	3.57083962e+02
335             	3.57096579e+02
336             	3.57108629e+02
337             	3.57120052e+02
338             	3.57131084e+02
339             	3.57141751e+02
340             	3.57152041e+02
341             	3.57162426e+02
342             	3.57172946e+02
343             	3.57183431e+02
344             	3.57194144e+02
345             	3.57205106e+02
346             	3.57216476e+02
347             	3.57227951e+02
348             	3.57239649e+02
349             	3.57251965e+02
350             	3.57264839e+02
351             	3.57278179e+02
352             	3.57291761e+02
353             	3.57305699e+02
354             	3.57319776e+02
355             	3.57334083e+02
356             	3.57348547e+02
357             	3.57362894e+02
358             	3.57377204e+02
359             	3.57391193e+02
360             	3.57405295e+02
361             	3.57418607e+02
362             	3.57431656e+02
363             	3.57444538e+02
364             	3.57457049e+02
365             	3.57469165e+02
366             	3.57480575e+02
367             	3.57491578e+02
368             	3.57502085e+02
369             	3.57512348e+02
370             	3.57522317e+02
371             	3.57531925e+02
372             	3.57541568e+02
373             	3.57550329e+02
374             	3.57558976e+02
375             	3.57567034e+02
376             	3.57574746e+02
377             	3.57582358e+02
378             	3.57589872e+02
379             	3.57596977e+02
380             	3.57604754e+02
381             	3.57612971e+02
382             	3.57621190e+02
383             	3.57629898e+02
384             	3.57638918e+02
385             	3.57647833e+02
386             	3.57656459e+02
387             	3.57664326e+02
388             	3.57671949e+02
389             	3.57679234e+02
390             	3.57686366e+02
391             	3.57692851e+02
392             	3.57697539e+02
393             	3.57704265e+02
394             	3.57712052e+02
395             	3.57720046e+02
396             	3.57728267e+02
397             	3.57737146e+02
398             	3.57746447e+02
399             	3.57756150e+02
400             	3.57766322e+02
401             	3.57776401e+02
402             	3.57784829e+02
403             	3.57792359e+02
404             	3.57799028e+02
405             	3.57803632e+02
406             	3.57807768e+02
407             	3.57812395e+02
408             	3.57816134e+02
409             	3.57821735e+02
410             	3.57828644e+02
411             	3.57836539e+02
412             	3.57844498e+02
413             	3.57853211e+02
414             	3.57863153e+02
415             	3.57873507e+02
416             	3.57883860e+02
417             	3.57894303e+02
418             	3.57902300e+02
419             	3.57909028e+02
420             	3.57913380e+02
421             	3.57916717e+02
422             	3.57921053e+02
423             	3.57925633e+02
424             	3.57929983e+02
425             	3.57934445e+02
426             	3.57939527e+02
427             	3.57945401e+02
428             	3.57951162e+02
429             	3.57955530e+02
430             	3.57959149e+02
431             	3.57962378e+02
432             	3.57965200e+02
433             	3.57967066e+02
434             	3.57968421e+02
435             	3.57970951e+02
436             	3.57973778e+02
437             	3.57977294e+02
438             	3.57981898e+02
439             	3.57987849e+02
440             	3.57995151e+02
441             	3.58003742e+02
442             	3.58012903e+02
443             	3.58023176e+02
444             	3.58034222e+02
445             	3.58044404e+02
446             	3.58054319e+02
447             	3.58064048e+02
448             	3.58073004e+02
449             	3.58082020e+02
450             	3.58090716e+02
451             	3.58099356e+02
452             	3.58106753e+02
453             	3.58113520e+02
454             	3.58120397e+02
455             	3.58126711e+02
456             	3.58132234e+02
457             	3.58137212e+02
458             	3.58141723e+02
459             	3.58145633e+02
460             	3.58148905e+02
461             	3.58151682e+02
462             	3.58153931e+02
463             	3.58155770e+02
464             	3.58157182e+02
465             	3.58158303e+02
466             	3.58159296e+02
467             	3.58160269e+02
468             	3.58161268e+02
469             	3.58162475e+02
470             	3.58164569e+02
471             	3.58166562e+02
472             	3.58168788e+02
473             	3.58171357e+02
474             	3.58174263e+02
475             	3.58177399e+02
476             	3.58180180e+02
477             	3.58183259e+02
478             	3.58186310e+02
479             	3.58189163e+02
480             	3.58191900e+02
481             	3.58194542e+02
482             	3.58197085e+02
483             	3.58199365e+02
484             	3.58201629e+02
485             	3.58203720e+02
486             	3.58205776e+02
487             	3.58207659e+02
488             	3.58209457e+02
489             	3.58210977e+02
490             	3.58212658e+02
491             	3.58214387e+02
492             	3.58216010e+02
493             	3.58217607e+02
494             	3.58219295e+02
495             	3.58221113e+02
496             	3.58222997e+02
497             	3.58224639e+02
498             	3.58227257e+02
499             	3.58230457e+02
500             	3.58233942e+02
501             	3.58237827e+02
502             	3.58242193e+02
503             	3.58246703e+02
504             	3.58250638e+02
505             	3.58254574e+02
506             	3.58258150e+02
507             	3.58261270e+02
508             	3.58263893e+02
509             	3.58265812e+02
510             	3.58267102e+02
511             	3.58267825e+02
512             	3.58268117e+02
513             	3.58268051e+02
514             	3.58267895e+02
515             	3.58266800e+02
516             	3.58265199e+02
517             	3.58263379e+02
518             	3.58261551e+02
519             	3.58259958e+02
520             	3.58258184e+02
521             	3.58257260e+02
522             	3.58257759e+02
523             	3.58259142e+02
524             	3.58261391e+02
525             	3.58264140e+02
526             	3.58267602e+02
527             	3.58271691e+02
528             	3.58276496e+02
529             	3.58281633e+02
530             	3.58286407e+02
531             	3.58291077e+02
532             	3.58295344e+02
533             	3.58299016e+02
534             	3.58301582e+02
535             	3.58303680e+02
536             	3.58305859e+02
537             	3.58307817e+02
538             	3.58309550e+02
539             	3.58311298e+02
540             	3.58313509e+02
541             	3.58316170e+02
542             	3.58319226e+02
543             	3.58322724e+02
544             	3.58326746e+02
545             	3.58331246e+02
546             	3.58335884e+02
547             	3.58340654e+02
548             	3.58345477e+02
549             	3.58350042e+02
550             	3.58354637e+02
551             	3.58358562e+02
552             	3.58362042e+02
553             	3.58365165e+02
554             	3.58367939e+02
555             	3.58370049e+02
556             	3.58371806e+02
557             	3.58372969e+02
558             	3.58373525e+02
559             	3.58373620e+02
560             	3.58373374e+02
561             	3.58372674e+02
562             	3.58372006e+02
563             	3.58371378e+02
564             	3.58370822e+02
565             	3.58370474e+02
566             	3.58370392e+02
567             	3.58370510e+02
568             	3.58370869e+02
569             	3.58371532e+02
570             	3.58372306e+02
571             	3.58373162e+02
572             	3.58374445e+02
573             	3.58375742e+02
574             	3.58376988e+02
575             	3.58378259e+02
576             	3.58379194e+02
577             	3.58380657e+02
578             	3.58382529e+02
579             	3.58384619e+02
580             	3.58387080e+02
581             	3.58390078e+02
582             	3.58393542e+02
583             	3.58397395e+02
584             	3.58401327e+02
585             	3.58405334e+02
586             	3.58409739e+02
587             	3.58414351e+02
588             	3.58418877e+02
589             	3.58423381e+02
590             	3.58427701e+02
591             	3.58431202e+02
592             	3.58434490e+02
593             	3.58436949e+02
594             	3.58438808e+02
595             	3.58440128e+02
596             	3.58440895e+02
597             	3.58440951e+02
598             	3.58440589e+02
599             	3.58440282e+02
600             	3.58439848e+02
601             	3.58439317e+02
602             	3.58438832e+02
603             	3.58438526e+02
604             	3.58438500e+02
605             	3.58438790e+02
606             	3.58439233e+02
607             	3.58439800e+02
608             	3.58440502e+02
609             	3.58441341e+02
610             	3.58442018e+02
611             	3.58442617e+02
612             	3.58443059e+02
613             	3.58443404e+02
614             	3.58443802e+02
615             	3.58444098e+02
616             	3.58444256e+02
617             	3.58443943e+02
618             	3.58444647e+02
619             	3.58446047e+02
620             	3.58447909e+02
621             	3.58450538e+02
