# Region        : cellZone component_2
# Cells         : 48
# Volume        : 7.57305523e-02
# Time          	volAverage(T)
1               	3.00778908e+02
2               	3.01547644e+02
3               	3.02259798e+02
4               	3.02939169e+02
5               	3.03603083e+02
6               	3.04256431e+02
7               	3.04902902e+02
8               	3.05545098e+02
9               	3.06176991e+02
10              	3.06794592e+02
11              	3.07402883e+02
12              	3.07991080e+02
13              	3.08556744e+02
14              	3.09098303e+02
15              	3.09629398e+02
16              	3.10178440e+02
17              	3.10742220e+02
18              	3.11307823e+02
19              	3.11873050e+02
20              	3.12433402e+02
21              	3.12980156e+02
22              	3.13530612e+02
23              	3.14050986e+02
24              	3.14560154e+02
25              	3.15063971e+02
26              	3.15558662e+02
27              	3.16026059e+02
28              	3.16493667e+02
29              	3.16944289e+02
30              	3.17394002e+02
31              	3.17834371e+02
32              	3.18266226e+02
33              	3.18686957e+02
34              	3.19095060e+02
35              	3.19495916e+02
36              	3.19883728e+02
37              	3.20258155e+02
38              	3.20621772e+02
39              	3.20974777e+02
40              	3.21315846e+02
41              	3.21640990e+02
42              	3.21961827e+02
43              	3.22278962e+02
44              	3.22579741e+02
45              	3.22867813e+02
46              	3.23152321e+02
47              	3.23436298e+02
48              	3.23715937e+02
49              	3.23989518e+02
50              	3.24256304e+02
51              	3.24518550e+02
52              	3.24775288e+02
53              	3.25028188e+02
54              	3.25274344e+02
55              	3.25494583e+02
56              	3.25716015e+02
57              	3.25932020e+02
58              	3.26135648e+02
59              	3.26333873e+02
60              	3.26522529e+02
61              	3.26708736e+02
62              	3.26890281e+02
63              	3.27072751e+02
64              	3.27256348e+02
65              	3.27437427e+02
66              	3.27614012e+02
67              	3.27789915e+02
68              	3.27967130e+02
69              	3.28147504e+02
70              	3.28328440e+02
71              	3.28512492e+02
72              	3.28688202e+02
73              	3.28854047e+02
74              	3.29021257e+02
75              	3.29188818e+02
76              	3.29348764e+02
77              	3.29501228e+02
78              	3.29646085e+02
79              	3.29787076e+02
80              	3.29919830e+02
81              	3.30045982e+02
82              	3.30151132e+02
83              	3.30260129e+02
84              	3.30346989e+02
85              	3.30442446e+02
86              	3.30541732e+02
87              	3.30643547e+02
88              	3.30742789e+02
89              	3.30834755e+02
90              	3.30921261e+02
91              	3.30989501e+02
92              	3.31069196e+02
93              	3.31154076e+02
94              	3.31235917e+02
95              	3.31306115e+02
96              	3.31381533e+02
97              	3.31433568e+02
98              	3.31492619e+02
99              	3.31556720e+02
100             	3.31620749e+02
101             	3.31683991e+02
102             	3.31751501e+02
103             	3.31822749e+02
104             	3.31891371e+02
105             	3.31943505e+02
106             	3.32002442e+02
107             	3.32057096e+02
108             	3.32112118e+02
109             	3.32159995e+02
110             	3.32206724e+02
111             	3.32263136e+02
112             	3.32313749e+02
113             	3.32361323e+02
114             	3.32407878e+02
115             	3.32454083e+02
116             	3.32500797e+02
117             	3.32551132e+02
118             	3.32606261e+02
119             	3.32667569e+02
120             	3.32727925e+02
121             	3.32787908e+02
122             	3.32849350e+02
123             	3.32911997e+02
124             	3.32970875e+02
125             	3.33030719e+02
126             	3.33090535e+02
127             	3.33147292e+02
128             	3.33203839e+02
129             	3.33260452e+02
130             	3.33316842e+02
131             	3.33374926e+02
132             	3.33435061e+02
133             	3.33496542e+02
134             	3.33558158e+02
135             	3.33616482e+02
136             	3.33675463e+02
137             	3.33732002e+02
138             	3.33783579e+02
139             	3.33834699e+02
140             	3.33888060e+02
141             	3.33944627e+02
142             	3.33998056e+02
143             	3.34047970e+02
144             	3.34099996e+02
145             	3.34149808e+02
146             	3.34197867e+02
147             	3.34242071e+02
148             	3.34282589e+02
149             	3.34330809e+02
150             	3.34373256e+02
151             	3.34411805e+02
152             	3.34452920e+02
153             	3.34494995e+02
154             	3.34539726e+02
155             	3.34585332e+02
156             	3.34629102e+02
157             	3.34660426e+02
158             	3.34702382e+02
159             	3.34745543e+02
160             	3.34789000e+02
161             	3.34831355e+02
162             	3.34865754e+02
163             	3.34903632e+02
164             	3.34940305e+02
165             	3.34974462e+02
166             	3.35005867e+02
167             	3.35037467e+02
168             	3.35068876e+02
169             	3.35100360e+02
170             	3.35130718e+02
171             	3.35159058e+02
172             	3.35182817e+02
173             	3.35208897e+02
174             	3.35234457e+02
175             	3.35261074e+02
176             	3.35285973e+02
177             	3.35310737e+02
178             	3.35337325e+02
179             	3.35362384e+02
180             	3.35391024e+02
181             	3.35415468e+02
182             	3.35441059e+02
183             	3.35464955e+02
184             	3.35487907e+02
185             	3.35511050e+02
186             	3.35534205e+02
187             	3.35556177e+02
188             	3.35574996e+02
189             	3.35593841e+02
190             	3.35613942e+02
191             	3.35634291e+02
192             	3.35653077e+02
193             	3.35671290e+02
194             	3.35692822e+02
195             	3.35715410e+02
196             	3.35737559e+02
197             	3.35759683e+02
198             	3.35786523e+02
199             	3.35815804e+02
200             	3.35831468e+02
201             	3.35847335e+02
202             	3.35862284e+02
203             	3.35880644e+02
204             	3.35894041e+02
205             	3.35909469e+02
206             	3.35917756e+02
207             	3.35929563e+02
208             	3.35945161e+02
209             	3.35959587e+02
210             	3.35974906e+02
211             	3.35988629e+02
212             	3.36003015e+02
213             	3.36020422e+02
214             	3.36036439e+02
215             	3.36051438e+02
216             	3.36068149e+02
217             	3.36081821e+02
218             	3.36094673e+02
219             	3.36106264e+02
220             	3.36119023e+02
221             	3.36132567e+02
222             	3.36144956e+02
223             	3.36158524e+02
224             	3.36172630e+02
225             	3.36185265e+02
226             	3.36197136e+02
227             	3.36207772e+02
228             	3.36220050e+02
229             	3.36232948e+02
230             	3.36245119e+02
231             	3.36256890e+02
232             	3.36268732e+02
233             	3.36280260e+02
234             	3.36289696e+02
235             	3.36298170e+02
236             	3.36307086e+02
237             	3.36316912e+02
238             	3.36326932e+02
239             	3.36337046e+02
240             	3.36347764e+02
241             	3.36357746e+02
242             	3.36367578e+02
243             	3.36376975e+02
244             	3.36383438e+02
245             	3.36392278e+02
246             	3.36402192e+02
247             	3.36411994e+02
248             	3.36420328e+02
249             	3.36428284e+02
250             	3.36436632e+02
251             	3.36444985e+02
252             	3.36451744e+02
253             	3.36457593e+02
254             	3.36464009e+02
255             	3.36470858e+02
256             	3.36477175e+02
257             	3.36482926e+02
258             	3.36488070e+02
259             	3.36493096e+02
260             	3.36498362e+02
261             	3.36502671e+02
262             	3.36507800e+02
263             	3.36513225e+02
264             	3.36518606e+02
265             	3.36523639e+02
266             	3.36528474e+02
267             	3.36533851e+02
268             	3.36539296e+02
269             	3.36544638e+02
270             	3.36549889e+02
271             	3.36554484e+02
272             	3.36559330e+02
273             	3.36563769e+02
274             	3.36568089e+02
275             	3.36572346e+02
276             	3.36576628e+02
277             	3.36580960e+02
278             	3.36585309e+02
279             	3.36589852e+02
280             	3.36594177e+02
281             	3.36598660e+02
282             	3.36603145e+02
283             	3.36607589e+02
284             	3.36611984e+02
285             	3.36616176e+02
286             	3.36619662e+02
287             	3.36623078e+02
288             	3.36626785e+02
289             	3.36630415e+02
290             	3.36633846e+02
291             	3.36637035e+02
292             	3.36640022e+02
293             	3.36643014e+02
294             	3.36646072e+02
295             	3.36648734e+02
296             	3.36651392e+02
297             	3.36653759e+02
298             	3.36655999e+02
299             	3.36658227e+02
300             	3.36660452e+02
301             	3.36662431e+02
302             	3.36664710e+02
303             	3.36667367e+02
304             	3.36669864e+02
305             	3.36672252e+02
306             	3.36674804e+02
307             	3.36677575e+02
308             	3.36680253e+02
309             	3.36682935e+02
310             	3.36685620e+02
311             	3.36687984e+02
312             	3.36690233e+02
313             	3.36691913e+02
314             	3.36693808e+02
315             	3.36695847e+02
316             	3.36697818e+02
317             	3.36699313e+02
318             	3.36701188e+02
319             	3.36703168e+02
320             	3.36705185e+02
321             	3.36707232e+02
322             	3.36709203e+02
323             	3.36711559e+02
324             	3.36713479e+02
325             	3.36715598e+02
326             	3.36717286e+02
327             	3.36718852e+02
328             	3.36720408e+02
329             	3.36721894e+02
330             	3.36723137e+02
331             	3.36724300e+02
332             	3.36725333e+02
333             	3.36726490e+02
334             	3.36727463e+02
335             	3.36728845e+02
336             	3.36730367e+02
337             	3.36732229e+02
338             	3.36734053e+02
339             	3.36735701e+02
340             	3.36737420e+02
341             	3.36738953e+02
342             	3.36740201e+02
343             	3.36741476e+02
344             	3.36742755e+02
345             	3.36743958e+02
346             	3.36745109e+02
347             	3.36746317e+02
348             	3.36747188e+02
349             	3.36747886e+02
350             	3.36748899e+02
351             	3.36750010e+02
352             	3.36751122e+02
353             	3.36752266e+02
354             	3.36753531e+02
355             	3.36754730e+02
356             	3.36755946e+02
357             	3.36757017e+02
358             	3.36757889e+02
359             	3.36758680e+02
360             	3.36759474e+02
361             	3.36760160e+02
362             	3.36760848e+02
363             	3.36761522e+02
364             	3.36762197e+02
365             	3.36762922e+02
366             	3.36763689e+02
367             	3.36764452e+02
368             	3.36765245e+02
369             	3.36766056e+02
370             	3.36766795e+02
371             	3.36767480e+02
372             	3.36768096e+02
373             	3.36768706e+02
374             	3.36769263e+02
375             	3.36769768e+02
376             	3.36770246e+02
377             	3.36770787e+02
378             	3.36771328e+02
379             	3.36771882e+02
380             	3.36772499e+02
381             	3.36773130e+02
382             	3.36773909e+02
383             	3.36774770e+02
384             	3.36775444e+02
385             	3.36776220e+02
386             	3.36776863e+02
387             	3.36777452e+02
388             	3.36778023e+02
389             	3.36778365e+02
390             	3.36778852e+02
391             	3.36779206e+02
392             	3.36779661e+02
393             	3.36780157e+02
394             	3.36780648e+02
395             	3.36781120e+02
396             	3.36781644e+02
397             	3.36782250e+02
398             	3.36782881e+02
399             	3.36783655e+02
400             	3.36784321e+02
401             	3.36784883e+02
402             	3.36785399e+02
403             	3.36785913e+02
404             	3.36786359e+02
405             	3.36786731e+02
406             	3.36787053e+02
407             	3.36787162e+02
408             	3.36787321e+02
409             	3.36787667e+02
410             	3.36788034e+02
411             	3.36788419e+02
412             	3.36788795e+02
413             	3.36789394e+02
414             	3.36789952e+02
415             	3.36790299e+02
416             	3.36790615e+02
417             	3.36790931e+02
418             	3.36791234e+02
419             	3.36791343e+02
420             	3.36791510e+02
421             	3.36791706e+02
422             	3.36791882e+02
423             	3.36792053e+02
424             	3.36792265e+02
425             	3.36792572e+02
426             	3.36792862e+02
427             	3.36793169e+02
428             	3.36793496e+02
429             	3.36793812e+02
430             	3.36794082e+02
431             	3.36794368e+02
432             	3.36794654e+02
433             	3.36794959e+02
434             	3.36795298e+02
435             	3.36795554e+02
436             	3.36795781e+02
437             	3.36796023e+02
438             	3.36796271e+02
439             	3.36796504e+02
440             	3.36796664e+02
441             	3.36796804e+02
442             	3.36796997e+02
443             	3.36797194e+02
444             	3.36797353e+02
445             	3.36797509e+02
446             	3.36797702e+02
447             	3.36797963e+02
448             	3.36798164e+02
449             	3.36798396e+02
450             	3.36798584e+02
451             	3.36798754e+02
452             	3.36798930e+02
453             	3.36799099e+02
454             	3.36799215e+02
455             	3.36799275e+02
456             	3.36799372e+02
457             	3.36799484e+02
458             	3.36799576e+02
459             	3.36799661e+02
460             	3.36799794e+02
461             	3.36799931e+02
462             	3.36800059e+02
463             	3.36800196e+02
464             	3.36800428e+02
465             	3.36800609e+02
466             	3.36800744e+02
467             	3.36800868e+02
468             	3.36801032e+02
469             	3.36801173e+02
470             	3.36801279e+02
471             	3.36801382e+02
472             	3.36801480e+02
473             	3.36801576e+02
474             	3.36801643e+02
475             	3.36801727e+02
476             	3.36801795e+02
477             	3.36801874e+02
478             	3.36801952e+02
479             	3.36802064e+02
480             	3.36802152e+02
481             	3.36802269e+02
482             	3.36802406e+02
483             	3.36802569e+02
484             	3.36802699e+02
485             	3.36802803e+02
486             	3.36802901e+02
487             	3.36802991e+02
488             	3.36803078e+02
489             	3.36803127e+02
490             	3.36803170e+02
491             	3.36803198e+02
492             	3.36803212e+02
493             	3.36803242e+02
494             	3.36803273e+02
495             	3.36803309e+02
496             	3.36803344e+02
497             	3.36803381e+02
498             	3.36803433e+02
499             	3.36803497e+02
500             	3.36803562e+02
501             	3.36803635e+02
502             	3.36803712e+02
503             	3.36803793e+02
504             	3.36803870e+02
505             	3.36803938e+02
506             	3.36803966e+02
507             	3.36803949e+02
508             	3.36803987e+02
509             	3.36804043e+02
510             	3.36804108e+02
511             	3.36804150e+02
512             	3.36804205e+02
513             	3.36804303e+02
514             	3.36804383e+02
515             	3.36804467e+02
516             	3.36804550e+02
517             	3.36804635e+02
518             	3.36804714e+02
519             	3.36804762e+02
520             	3.36804794e+02
521             	3.36804791e+02
522             	3.36804808e+02
523             	3.36804815e+02
524             	3.36804832e+02
525             	3.36804858e+02
526             	3.36804869e+02
527             	3.36804904e+02
528             	3.36804950e+02
529             	3.36805032e+02
530             	3.36805101e+02
531             	3.36805170e+02
532             	3.36805244e+02
533             	3.36805296e+02
534             	3.36805351e+02
535             	3.36805382e+02
536             	3.36805400e+02
537             	3.36805402e+02
538             	3.36805376e+02
539             	3.36805376e+02
540             	3.36805385e+02
541             	3.36805398e+02
542             	3.36805411e+02
543             	3.36805422e+02
544             	3.36805441e+02
545             	3.36805473e+02
546             	3.36805536e+02
547             	3.36805577e+02
548             	3.36805630e+02
549             	3.36805685e+02
550             	3.36805720e+02
551             	3.36805744e+02
552             	3.36805756e+02
553             	3.36805760e+02
554             	3.36805784e+02
555             	3.36805818e+02
556             	3.36805853e+02
557             	3.36805891e+02
558             	3.36805940e+02
559             	3.36806015e+02
560             	3.36806088e+02
561             	3.36806149e+02
562             	3.36806206e+02
563             	3.36806261e+02
564             	3.36806307e+02
565             	3.36806293e+02
566             	3.36806263e+02
567             	3.36806204e+02
568             	3.36806163e+02
569             	3.36806162e+02
570             	3.36806191e+02
571             	3.36806263e+02
572             	3.36806324e+02
573             	3.36806366e+02
574             	3.36806419e+02
575             	3.36806492e+02
576             	3.36806571e+02
577             	3.36806592e+02
578             	3.36806562e+02
579             	3.36806547e+02
580             	3.36806550e+02
581             	3.36806544e+02
582             	3.36806523e+02
583             	3.36806530e+02
584             	3.36806586e+02
585             	3.36806634e+02
586             	3.36806673e+02
587             	3.36806723e+02
588             	3.36806779e+02
589             	3.36806803e+02
590             	3.36806776e+02
591             	3.36806734e+02
592             	3.36806694e+02
593             	3.36806648e+02
594             	3.36806589e+02
595             	3.36806568e+02
596             	3.36806578e+02
597             	3.36806665e+02
598             	3.36806727e+02
599             	3.36806779e+02
600             	3.36806842e+02
601             	3.36806905e+02
602             	3.36806960e+02
603             	3.36806930e+02
604             	3.36806877e+02
605             	3.36806863e+02
606             	3.36806850e+02
607             	3.36806822e+02
608             	3.36806777e+02
609             	3.36806762e+02
610             	3.36806824e+02
611             	3.36806886e+02
612             	3.36806927e+02
613             	3.36806992e+02
614             	3.36807080e+02
615             	3.36807120e+02
616             	3.36807100e+02
617             	3.36807035e+02
618             	3.36807011e+02
619             	3.36806976e+02
620             	3.36806929e+02
621             	3.36806889e+02
