# Region        : cellZone component_1
# Cells         : 223
# Volume        : 4.70646957e-01
# Time          	volAverage(T)
1               	3.00274845e+02
2               	3.00545924e+02
3               	3.00795958e+02
4               	3.01030075e+02
5               	3.01254156e+02
6               	3.01470410e+02
7               	3.01680396e+02
8               	3.01884537e+02
9               	3.02083361e+02
10              	3.02277653e+02
11              	3.02468633e+02
12              	3.02657233e+02
13              	3.02841825e+02
14              	3.03023419e+02
15              	3.03203145e+02
16              	3.03381647e+02
17              	3.03550674e+02
18              	3.03720306e+02
19              	3.03889591e+02
20              	3.04049522e+02
21              	3.04205952e+02
22              	3.04361503e+02
23              	3.04512367e+02
24              	3.04656855e+02
25              	3.04792705e+02
26              	3.04921964e+02
27              	3.05043820e+02
28              	3.05160184e+02
29              	3.05274806e+02
30              	3.05388706e+02
31              	3.05504953e+02
32              	3.05621749e+02
33              	3.05735512e+02
34              	3.05842393e+02
35              	3.05941656e+02
36              	3.06041176e+02
37              	3.06151419e+02
38              	3.06252871e+02
39              	3.06351265e+02
40              	3.06446864e+02
41              	3.06537680e+02
42              	3.06624157e+02
43              	3.06706590e+02
44              	3.06784522e+02
45              	3.06855752e+02
46              	3.06920140e+02
47              	3.06982162e+02
48              	3.07041347e+02
49              	3.07098214e+02
50              	3.07154214e+02
51              	3.07211416e+02
52              	3.07272506e+02
53              	3.07337132e+02
54              	3.07405814e+02
55              	3.07471736e+02
56              	3.07534645e+02
57              	3.07594753e+02
58              	3.07649117e+02
59              	3.07695810e+02
60              	3.07735939e+02
61              	3.07770269e+02
62              	3.07806929e+02
63              	3.07846368e+02
64              	3.07887971e+02
65              	3.07935140e+02
66              	3.07990485e+02
67              	3.08049356e+02
68              	3.08112783e+02
69              	3.08172716e+02
70              	3.08226236e+02
71              	3.08273205e+02
72              	3.08315879e+02
73              	3.08353013e+02
74              	3.08385759e+02
75              	3.08412496e+02
76              	3.08432463e+02
77              	3.08449213e+02
78              	3.08463858e+02
79              	3.08478170e+02
80              	3.08496998e+02
81              	3.08518840e+02
82              	3.08545390e+02
83              	3.08574881e+02
84              	3.08604838e+02
85              	3.08633335e+02
86              	3.08661553e+02
87              	3.08687722e+02
88              	3.08712507e+02
89              	3.08734238e+02
90              	3.08751688e+02
91              	3.08762779e+02
92              	3.08769212e+02
93              	3.08772667e+02
94              	3.08774197e+02
95              	3.08776428e+02
96              	3.08779782e+02
97              	3.08784538e+02
98              	3.08791500e+02
99              	3.08801122e+02
100             	3.08811710e+02
101             	3.08825400e+02
102             	3.08841006e+02
103             	3.08857677e+02
104             	3.08875165e+02
105             	3.08892641e+02
106             	3.08910744e+02
107             	3.08929132e+02
108             	3.08947697e+02
109             	3.08967257e+02
110             	3.08987038e+02
111             	3.09006831e+02
112             	3.09025593e+02
113             	3.09042085e+02
114             	3.09056511e+02
115             	3.09069233e+02
116             	3.09079602e+02
117             	3.09087898e+02
118             	3.09094640e+02
119             	3.09100570e+02
120             	3.09107292e+02
121             	3.09115482e+02
122             	3.09125911e+02
123             	3.09138248e+02
124             	3.09151113e+02
125             	3.09165313e+02
126             	3.09179955e+02
127             	3.09195679e+02
128             	3.09212194e+02
129             	3.09228957e+02
130             	3.09244902e+02
131             	3.09259656e+02
132             	3.09273030e+02
133             	3.09285069e+02
134             	3.09296005e+02
135             	3.09305957e+02
136             	3.09315398e+02
137             	3.09324967e+02
138             	3.09334716e+02
139             	3.09344709e+02
140             	3.09354658e+02
141             	3.09364981e+02
142             	3.09375460e+02
143             	3.09386255e+02
144             	3.09397250e+02
145             	3.09408406e+02
146             	3.09419913e+02
147             	3.09431415e+02
148             	3.09442861e+02
149             	3.09454273e+02
150             	3.09465504e+02
151             	3.09476470e+02
152             	3.09487088e+02
153             	3.09497434e+02
154             	3.09507430e+02
155             	3.09517268e+02
156             	3.09526933e+02
157             	3.09536939e+02
158             	3.09546615e+02
159             	3.09555940e+02
160             	3.09565188e+02
161             	3.09574249e+02
162             	3.09583009e+02
163             	3.09591538e+02
164             	3.09599945e+02
165             	3.09608434e+02
166             	3.09617042e+02
167             	3.09625500e+02
168             	3.09633976e+02
169             	3.09642640e+02
170             	3.09651472e+02
171             	3.09660442e+02
172             	3.09669441e+02
173             	3.09678319e+02
174             	3.09687102e+02
175             	3.09695835e+02
176             	3.09704204e+02
177             	3.09712227e+02
178             	3.09720052e+02
179             	3.09727775e+02
180             	3.09735432e+02
181             	3.09743171e+02
182             	3.09751008e+02
183             	3.09758937e+02
184             	3.09766772e+02
185             	3.09774473e+02
186             	3.09781882e+02
187             	3.09788908e+02
188             	3.09795610e+02
189             	3.09801980e+02
190             	3.09808130e+02
191             	3.09814091e+02
192             	3.09819864e+02
193             	3.09825478e+02
194             	3.09830936e+02
195             	3.09836214e+02
196             	3.09841223e+02
197             	3.09845996e+02
198             	3.09850672e+02
199             	3.09855283e+02
200             	3.09859458e+02
201             	3.09863368e+02
202             	3.09867051e+02
203             	3.09870457e+02
204             	3.09873942e+02
205             	3.09877596e+02
206             	3.09881434e+02
207             	3.09885560e+02
208             	3.09890043e+02
209             	3.09894869e+02
210             	3.09899956e+02
211             	3.09905057e+02
212             	3.09910134e+02
213             	3.09915259e+02
214             	3.09920457e+02
215             	3.09925741e+02
216             	3.09931127e+02
217             	3.09936608e+02
218             	3.09942134e+02
219             	3.09947683e+02
220             	3.09953196e+02
221             	3.09958738e+02
222             	3.09964346e+02
223             	3.09970077e+02
224             	3.09975891e+02
225             	3.09981625e+02
226             	3.09987203e+02
227             	3.09992546e+02
228             	3.09997333e+02
229             	3.10001854e+02
230             	3.10006151e+02
231             	3.10010233e+02
232             	3.10014045e+02
233             	3.10017468e+02
234             	3.10020362e+02
235             	3.10022728e+02
236             	3.10024702e+02
237             	3.10026547e+02
238             	3.10028269e+02
239             	3.10030290e+02
240             	3.10032499e+02
241             	3.10035123e+02
242             	3.10037870e+02
243             	3.10041020e+02
244             	3.10044587e+02
245             	3.10048485e+02
246             	3.10052567e+02
247             	3.10056778e+02
248             	3.10061033e+02
249             	3.10065272e+02
250             	3.10069374e+02
251             	3.10073252e+02
252             	3.10076869e+02
253             	3.10080177e+02
254             	3.10083389e+02
255             	3.10086500e+02
256             	3.10089349e+02
257             	3.10092067e+02
258             	3.10094592e+02
259             	3.10096880e+02
260             	3.10098897e+02
261             	3.10100645e+02
262             	3.10102139e+02
263             	3.10103491e+02
264             	3.10105197e+02
265             	3.10107019e+02
266             	3.10109177e+02
267             	3.10111771e+02
268             	3.10114758e+02
269             	3.10118076e+02
270             	3.10121452e+02
271             	3.10124778e+02
272             	3.10127744e+02
273             	3.10130466e+02
274             	3.10132831e+02
275             	3.10134787e+02
276             	3.10136339e+02
277             	3.10137624e+02
278             	3.10138729e+02
279             	3.10139697e+02
280             	3.10140588e+02
281             	3.10141492e+02
282             	3.10142387e+02
283             	3.10143216e+02
284             	3.10143970e+02
285             	3.10145020e+02
286             	3.10146186e+02
287             	3.10147565e+02
288             	3.10149370e+02
289             	3.10151578e+02
290             	3.10154199e+02
291             	3.10157135e+02
292             	3.10159778e+02
293             	3.10162315e+02
294             	3.10164706e+02
295             	3.10166758e+02
296             	3.10168419e+02
297             	3.10169725e+02
298             	3.10170729e+02
299             	3.10171447e+02
300             	3.10171935e+02
301             	3.10172272e+02
302             	3.10172523e+02
303             	3.10172649e+02
304             	3.10172814e+02
305             	3.10173286e+02
306             	3.10173890e+02
307             	3.10174692e+02
308             	3.10175705e+02
309             	3.10176713e+02
310             	3.10177818e+02
311             	3.10178989e+02
312             	3.10180120e+02
313             	3.10181131e+02
314             	3.10182027e+02
315             	3.10182742e+02
316             	3.10183290e+02
317             	3.10183698e+02
318             	3.10183998e+02
319             	3.10184216e+02
320             	3.10184412e+02
321             	3.10184592e+02
322             	3.10184776e+02
323             	3.10184980e+02
324             	3.10185236e+02
325             	3.10185734e+02
326             	3.10186328e+02
327             	3.10187067e+02
328             	3.10188006e+02
329             	3.10189102e+02
330             	3.10190318e+02
331             	3.10191644e+02
332             	3.10192914e+02
333             	3.10194158e+02
334             	3.10195371e+02
335             	3.10196486e+02
336             	3.10197487e+02
337             	3.10198327e+02
338             	3.10199049e+02
339             	3.10199643e+02
340             	3.10200087e+02
341             	3.10200393e+02
342             	3.10200613e+02
343             	3.10200780e+02
344             	3.10200923e+02
345             	3.10201066e+02
346             	3.10201225e+02
347             	3.10201400e+02
348             	3.10201595e+02
349             	3.10201807e+02
350             	3.10202057e+02
351             	3.10202309e+02
352             	3.10202627e+02
353             	3.10202938e+02
354             	3.10203256e+02
355             	3.10203575e+02
356             	3.10203896e+02
357             	3.10204216e+02
358             	3.10204508e+02
359             	3.10204782e+02
360             	3.10205028e+02
361             	3.10205257e+02
362             	3.10205459e+02
363             	3.10205642e+02
364             	3.10205806e+02
365             	3.10205952e+02
366             	3.10206099e+02
367             	3.10206258e+02
368             	3.10206443e+02
369             	3.10206655e+02
370             	3.10206918e+02
371             	3.10207240e+02
372             	3.10207581e+02
373             	3.10208000e+02
374             	3.10208467e+02
375             	3.10208978e+02
376             	3.10209530e+02
377             	3.10210120e+02
378             	3.10210741e+02
379             	3.10211376e+02
380             	3.10212022e+02
381             	3.10212686e+02
382             	3.10213372e+02
383             	3.10214060e+02
384             	3.10214745e+02
385             	3.10215406e+02
386             	3.10216055e+02
387             	3.10216674e+02
388             	3.10217274e+02
389             	3.10217831e+02
390             	3.10218352e+02
391             	3.10218812e+02
392             	3.10219242e+02
393             	3.10219624e+02
394             	3.10219931e+02
395             	3.10220195e+02
396             	3.10220420e+02
397             	3.10220635e+02
398             	3.10220843e+02
399             	3.10221054e+02
400             	3.10221260e+02
401             	3.10221470e+02
402             	3.10221667e+02
403             	3.10221843e+02
404             	3.10221987e+02
405             	3.10222098e+02
406             	3.10222181e+02
407             	3.10222251e+02
408             	3.10222303e+02
409             	3.10222356e+02
410             	3.10222399e+02
411             	3.10222477e+02
412             	3.10222543e+02
413             	3.10222610e+02
414             	3.10222700e+02
415             	3.10222816e+02
416             	3.10222949e+02
417             	3.10223067e+02
418             	3.10223175e+02
419             	3.10223284e+02
420             	3.10223382e+02
421             	3.10223474e+02
422             	3.10223611e+02
423             	3.10223773e+02
424             	3.10223959e+02
425             	3.10224162e+02
426             	3.10224388e+02
427             	3.10224642e+02
428             	3.10224900e+02
429             	3.10225186e+02
430             	3.10225415e+02
431             	3.10225615e+02
432             	3.10225769e+02
433             	3.10225865e+02
434             	3.10225902e+02
435             	3.10225881e+02
436             	3.10225844e+02
437             	3.10225830e+02
438             	3.10225785e+02
439             	3.10225721e+02
440             	3.10225684e+02
441             	3.10225661e+02
442             	3.10225646e+02
443             	3.10225639e+02
444             	3.10225633e+02
445             	3.10225631e+02
446             	3.10225628e+02
447             	3.10225627e+02
448             	3.10225633e+02
449             	3.10225645e+02
450             	3.10225678e+02
451             	3.10225735e+02
452             	3.10225777e+02
453             	3.10225856e+02
454             	3.10225958e+02
455             	3.10226100e+02
456             	3.10226281e+02
457             	3.10226507e+02
458             	3.10226740e+02
459             	3.10226980e+02
460             	3.10227229e+02
461             	3.10227474e+02
462             	3.10227756e+02
463             	3.10228043e+02
464             	3.10228362e+02
465             	3.10228727e+02
466             	3.10229121e+02
467             	3.10229559e+02
468             	3.10230026e+02
469             	3.10230502e+02
470             	3.10230981e+02
471             	3.10231462e+02
472             	3.10231928e+02
473             	3.10232327e+02
474             	3.10232645e+02
475             	3.10232883e+02
476             	3.10233034e+02
477             	3.10233084e+02
478             	3.10233073e+02
479             	3.10232991e+02
480             	3.10232850e+02
481             	3.10232701e+02
482             	3.10232541e+02
483             	3.10232371e+02
484             	3.10232219e+02
485             	3.10232085e+02
486             	3.10231972e+02
487             	3.10231870e+02
488             	3.10231785e+02
489             	3.10231722e+02
490             	3.10231678e+02
491             	3.10231650e+02
492             	3.10231585e+02
493             	3.10231513e+02
494             	3.10231408e+02
495             	3.10231273e+02
496             	3.10231133e+02
497             	3.10231005e+02
498             	3.10230874e+02
499             	3.10230728e+02
500             	3.10230651e+02
501             	3.10230594e+02
502             	3.10230556e+02
503             	3.10230542e+02
504             	3.10230547e+02
505             	3.10230565e+02
506             	3.10230648e+02
507             	3.10230743e+02
508             	3.10230853e+02
509             	3.10230987e+02
510             	3.10231143e+02
511             	3.10231311e+02
512             	3.10231520e+02
513             	3.10231818e+02
514             	3.10232131e+02
515             	3.10232412e+02
516             	3.10232645e+02
517             	3.10232822e+02
518             	3.10232935e+02
519             	3.10233004e+02
520             	3.10233009e+02
521             	3.10232995e+02
522             	3.10232935e+02
523             	3.10232852e+02
524             	3.10232750e+02
525             	3.10232626e+02
526             	3.10232465e+02
527             	3.10232331e+02
528             	3.10232223e+02
529             	3.10232145e+02
530             	3.10232105e+02
531             	3.10232110e+02
532             	3.10232099e+02
533             	3.10232082e+02
534             	3.10232018e+02
535             	3.10232011e+02
536             	3.10232061e+02
537             	3.10232244e+02
538             	3.10232541e+02
539             	3.10232938e+02
540             	3.10233375e+02
541             	3.10233815e+02
542             	3.10234217e+02
543             	3.10234568e+02
544             	3.10234875e+02
545             	3.10235112e+02
546             	3.10235279e+02
547             	3.10235444e+02
548             	3.10235549e+02
549             	3.10235680e+02
550             	3.10235810e+02
551             	3.10235915e+02
552             	3.10235991e+02
553             	3.10236024e+02
554             	3.10235957e+02
555             	3.10235774e+02
556             	3.10235636e+02
557             	3.10235425e+02
558             	3.10235198e+02
559             	3.10235105e+02
560             	3.10235037e+02
561             	3.10235025e+02
562             	3.10235080e+02
563             	3.10235203e+02
564             	3.10235391e+02
565             	3.10235626e+02
566             	3.10235838e+02
567             	3.10236097e+02
568             	3.10236315e+02
569             	3.10236541e+02
570             	3.10236618e+02
571             	3.10236574e+02
572             	3.10236416e+02
573             	3.10236158e+02
574             	3.10235817e+02
575             	3.10235466e+02
576             	3.10235152e+02
577             	3.10234873e+02
578             	3.10234613e+02
579             	3.10234333e+02
580             	3.10234065e+02
581             	3.10233832e+02
582             	3.10233655e+02
583             	3.10233472e+02
584             	3.10233558e+02
585             	3.10233744e+02
586             	3.10234050e+02
587             	3.10234518e+02
588             	3.10235108e+02
589             	3.10235714e+02
590             	3.10236340e+02
591             	3.10236943e+02
592             	3.10237411e+02
593             	3.10237719e+02
594             	3.10237823e+02
595             	3.10237681e+02
596             	3.10237212e+02
597             	3.10236426e+02
598             	3.10235454e+02
599             	3.10234482e+02
600             	3.10233534e+02
601             	3.10232896e+02
602             	3.10232309e+02
603             	3.10232039e+02
604             	3.10232047e+02
605             	3.10232244e+02
606             	3.10232572e+02
607             	3.10233010e+02
608             	3.10233538e+02
609             	3.10234117e+02
610             	3.10234732e+02
611             	3.10235294e+02
612             	3.10235793e+02
613             	3.10236231e+02
614             	3.10236580e+02
615             	3.10236771e+02
616             	3.10236878e+02
617             	3.10236905e+02
618             	3.10236853e+02
619             	3.10236710e+02
620             	3.10236450e+02
621             	3.10236095e+02
