# Region        : cellZone component_1
# Cells         : 128
# Volume        : 2.13942079e-01
# Time          	volAverage(T)
1               	3.01132966e+02
2               	3.02242732e+02
3               	3.03174494e+02
4               	3.03995602e+02
5               	3.04779205e+02
6               	3.05541912e+02
7               	3.06279311e+02
8               	3.06996701e+02
9               	3.07698886e+02
10              	3.08382996e+02
11              	3.09046481e+02
12              	3.09703636e+02
13              	3.10361612e+02
14              	3.11015384e+02
15              	3.11660536e+02
16              	3.12284719e+02
17              	3.12892136e+02
18              	3.13474806e+02
19              	3.14037038e+02
20              	3.14603750e+02
21              	3.15163026e+02
22              	3.15690103e+02
23              	3.16226280e+02
24              	3.16728038e+02
25              	3.17214719e+02
26              	3.17675208e+02
27              	3.18101907e+02
28              	3.18500131e+02
29              	3.18854954e+02
30              	3.19192192e+02
31              	3.19504547e+02
32              	3.19826311e+02
33              	3.20149091e+02
34              	3.20472888e+02
35              	3.20788863e+02
36              	3.21081204e+02
37              	3.21337119e+02
38              	3.21578114e+02
39              	3.21840949e+02
40              	3.22109275e+02
41              	3.22376620e+02
42              	3.22641983e+02
43              	3.22906989e+02
44              	3.23155274e+02
45              	3.23393221e+02
46              	3.23623602e+02
47              	3.23835029e+02
48              	3.24035705e+02
49              	3.24223938e+02
50              	3.24392878e+02
51              	3.24541956e+02
52              	3.24679755e+02
53              	3.24812246e+02
54              	3.24949594e+02
55              	3.25143537e+02
56              	3.25229211e+02
57              	3.25207838e+02
58              	3.25123023e+02
59              	3.24973884e+02
60              	3.24808169e+02
61              	3.24685504e+02
62              	3.24606393e+02
63              	3.24551874e+02
64              	3.24499112e+02
65              	3.24441163e+02
66              	3.24395465e+02
67              	3.24362253e+02
68              	3.24383593e+02
69              	3.24463016e+02
70              	3.24575491e+02
71              	3.24647497e+02
72              	3.24664914e+02
73              	3.24665969e+02
74              	3.24655938e+02
75              	3.24672767e+02
76              	3.24695700e+02
77              	3.24679870e+02
78              	3.24629504e+02
79              	3.24569194e+02
80              	3.24506577e+02
81              	3.24484844e+02
82              	3.24517077e+02
83              	3.24619709e+02
84              	3.24687424e+02
85              	3.24695031e+02
86              	3.24656335e+02
87              	3.24593697e+02
88              	3.24528670e+02
89              	3.24481199e+02
90              	3.24388488e+02
91              	3.24256945e+02
92              	3.24135392e+02
93              	3.24043272e+02
94              	3.23981786e+02
95              	3.23962061e+02
96              	3.23983146e+02
97              	3.24022954e+02
98              	3.24056978e+02
99              	3.24082288e+02
100             	3.24090976e+02
101             	3.24094234e+02
102             	3.24093495e+02
103             	3.24090802e+02
104             	3.24090759e+02
105             	3.24090755e+02
106             	3.24086323e+02
107             	3.24075942e+02
108             	3.24054032e+02
109             	3.24024331e+02
110             	3.23985186e+02
111             	3.23938121e+02
112             	3.23886783e+02
113             	3.23828454e+02
114             	3.23780121e+02
115             	3.23750882e+02
116             	3.23745659e+02
117             	3.23764939e+02
118             	3.23796695e+02
119             	3.23812356e+02
120             	3.23831478e+02
121             	3.23839318e+02
122             	3.23823724e+02
123             	3.23788657e+02
124             	3.23736585e+02
125             	3.23677998e+02
126             	3.23621780e+02
127             	3.23570807e+02
128             	3.23529350e+02
129             	3.23497858e+02
130             	3.23478415e+02
131             	3.23468667e+02
132             	3.23464793e+02
133             	3.23462789e+02
134             	3.23460814e+02
135             	3.23457690e+02
136             	3.23452090e+02
137             	3.23443562e+02
138             	3.23431852e+02
139             	3.23417488e+02
140             	3.23401215e+02
141             	3.23384266e+02
142             	3.23366235e+02
143             	3.23347788e+02
144             	3.23329110e+02
145             	3.23310144e+02
146             	3.23290200e+02
147             	3.23269273e+02
148             	3.23248657e+02
149             	3.23228343e+02
150             	3.23208646e+02
151             	3.23190832e+02
152             	3.23175566e+02
153             	3.23163415e+02
154             	3.23154870e+02
155             	3.23149513e+02
156             	3.23145619e+02
157             	3.23141489e+02
158             	3.23135946e+02
159             	3.23127064e+02
160             	3.23115137e+02
161             	3.23099416e+02
162             	3.23080087e+02
163             	3.23058413e+02
164             	3.23036403e+02
165             	3.23016089e+02
166             	3.22998884e+02
167             	3.22984673e+02
168             	3.22975125e+02
169             	3.22968994e+02
170             	3.22964499e+02
171             	3.22959551e+02
172             	3.22953558e+02
173             	3.22945657e+02
174             	3.22935126e+02
175             	3.22921574e+02
176             	3.22905843e+02
177             	3.22889205e+02
178             	3.22872764e+02
179             	3.22856675e+02
180             	3.22841361e+02
181             	3.22826589e+02
182             	3.22812794e+02
183             	3.22800211e+02
184             	3.22789075e+02
185             	3.22779565e+02
186             	3.22771660e+02
187             	3.22764685e+02
188             	3.22757590e+02
189             	3.22749692e+02
190             	3.22741321e+02
191             	3.22732434e+02
192             	3.22722895e+02
193             	3.22712761e+02
194             	3.22701947e+02
195             	3.22690772e+02
196             	3.22679709e+02
197             	3.22668544e+02
198             	3.22657552e+02
199             	3.22647066e+02
200             	3.22637343e+02
201             	3.22628593e+02
202             	3.22620911e+02
203             	3.22614336e+02
204             	3.22609171e+02
205             	3.22605287e+02
206             	3.22602137e+02
207             	3.22599479e+02
208             	3.22597046e+02
209             	3.22594404e+02
210             	3.22591523e+02
211             	3.22588093e+02
212             	3.22583697e+02
213             	3.22578293e+02
214             	3.22571861e+02
215             	3.22564623e+02
216             	3.22556779e+02
217             	3.22549113e+02
218             	3.22542119e+02
219             	3.22536352e+02
220             	3.22532492e+02
221             	3.22530362e+02
222             	3.22529850e+02
223             	3.22530463e+02
224             	3.22531595e+02
225             	3.22532299e+02
226             	3.22532104e+02
227             	3.22530551e+02
228             	3.22527265e+02
229             	3.22522180e+02
230             	3.22516124e+02
231             	3.22510023e+02
232             	3.22503800e+02
233             	3.22497501e+02
234             	3.22491344e+02
235             	3.22485446e+02
236             	3.22480190e+02
237             	3.22476201e+02
238             	3.22474217e+02
239             	3.22473851e+02
240             	3.22475389e+02
241             	3.22478246e+02
242             	3.22481408e+02
243             	3.22483713e+02
244             	3.22484404e+02
245             	3.22482907e+02
246             	3.22479374e+02
247             	3.22473421e+02
248             	3.22465703e+02
249             	3.22457329e+02
250             	3.22449787e+02
251             	3.22443920e+02
252             	3.22440193e+02
253             	3.22438318e+02
254             	3.22437406e+02
255             	3.22436702e+02
256             	3.22435485e+02
257             	3.22433559e+02
258             	3.22431472e+02
259             	3.22429681e+02
260             	3.22428811e+02
261             	3.22429207e+02
262             	3.22430344e+02
263             	3.22431557e+02
264             	3.22432382e+02
265             	3.22432627e+02
266             	3.22432292e+02
267             	3.22431223e+02
268             	3.22429557e+02
269             	3.22427167e+02
270             	3.22424205e+02
271             	3.22420739e+02
272             	3.22417040e+02
273             	3.22413353e+02
274             	3.22409975e+02
275             	3.22407042e+02
276             	3.22405095e+02
277             	3.22404472e+02
278             	3.22405333e+02
279             	3.22407409e+02
280             	3.22410082e+02
281             	3.22412709e+02
282             	3.22414595e+02
283             	3.22415740e+02
284             	3.22415671e+02
285             	3.22414132e+02
286             	3.22411129e+02
287             	3.22407653e+02
288             	3.22404348e+02
289             	3.22401704e+02
290             	3.22399991e+02
291             	3.22399273e+02
292             	3.22399429e+02
293             	3.22400193e+02
294             	3.22401227e+02
295             	3.22402252e+02
296             	3.22403174e+02
297             	3.22403899e+02
298             	3.22404541e+02
299             	3.22405189e+02
300             	3.22405873e+02
301             	3.22406585e+02
302             	3.22407292e+02
303             	3.22407771e+02
304             	3.22407689e+02
305             	3.22407087e+02
306             	3.22406148e+02
307             	3.22404974e+02
308             	3.22403527e+02
309             	3.22401925e+02
310             	3.22400228e+02
311             	3.22398796e+02
312             	3.22397821e+02
313             	3.22397309e+02
314             	3.22397519e+02
315             	3.22398453e+02
316             	3.22399879e+02
317             	3.22401533e+02
318             	3.22403050e+02
319             	3.22404178e+02
320             	3.22404724e+02
321             	3.22404703e+02
322             	3.22404341e+02
323             	3.22403861e+02
324             	3.22403635e+02
325             	3.22403829e+02
326             	3.22404268e+02
327             	3.22404791e+02
328             	3.22405176e+02
329             	3.22405272e+02
330             	3.22404952e+02
331             	3.22404385e+02
332             	3.22403683e+02
333             	3.22402928e+02
334             	3.22402248e+02
335             	3.22401674e+02
336             	3.22401255e+02
337             	3.22400962e+02
338             	3.22400743e+02
339             	3.22400574e+02
340             	3.22400511e+02
341             	3.22400631e+02
342             	3.22400900e+02
343             	3.22401385e+02
344             	3.22402090e+02
345             	3.22402895e+02
346             	3.22403561e+02
347             	3.22403991e+02
348             	3.22404112e+02
349             	3.22404013e+02
350             	3.22403775e+02
351             	3.22403608e+02
352             	3.22403588e+02
353             	3.22403783e+02
354             	3.22404036e+02
355             	3.22404168e+02
356             	3.22404123e+02
357             	3.22403785e+02
358             	3.22403085e+02
359             	3.22402158e+02
360             	3.22401245e+02
361             	3.22400520e+02
362             	3.22400071e+02
363             	3.22400000e+02
364             	3.22400442e+02
365             	3.22401273e+02
366             	3.22402343e+02
367             	3.22403476e+02
368             	3.22404535e+02
369             	3.22405442e+02
370             	3.22406105e+02
371             	3.22406453e+02
372             	3.22406455e+02
373             	3.22406222e+02
374             	3.22405836e+02
375             	3.22405356e+02
376             	3.22404864e+02
377             	3.22404411e+02
378             	3.22404048e+02
379             	3.22403788e+02
380             	3.22403611e+02
381             	3.22403532e+02
382             	3.22403538e+02
383             	3.22403610e+02
384             	3.22403762e+02
385             	3.22403983e+02
386             	3.22404249e+02
387             	3.22404594e+02
388             	3.22404952e+02
389             	3.22405333e+02
390             	3.22405760e+02
391             	3.22406203e+02
392             	3.22406619e+02
393             	3.22406971e+02
394             	3.22407249e+02
395             	3.22407375e+02
396             	3.22407395e+02
397             	3.22407282e+02
398             	3.22407011e+02
399             	3.22406644e+02
400             	3.22406269e+02
401             	3.22405915e+02
402             	3.22405628e+02
403             	3.22405431e+02
404             	3.22405319e+02
405             	3.22405290e+02
406             	3.22405334e+02
407             	3.22405449e+02
408             	3.22405615e+02
409             	3.22405811e+02
410             	3.22406026e+02
411             	3.22406242e+02
412             	3.22406466e+02
413             	3.22406719e+02
414             	3.22406997e+02
415             	3.22407273e+02
416             	3.22407539e+02
417             	3.22407786e+02
418             	3.22408014e+02
419             	3.22408226e+02
420             	3.22408384e+02
421             	3.22408514e+02
422             	3.22408577e+02
423             	3.22408565e+02
424             	3.22408501e+02
425             	3.22408403e+02
426             	3.22408305e+02
427             	3.22408240e+02
428             	3.22408232e+02
429             	3.22408273e+02
430             	3.22408357e+02
431             	3.22408469e+02
432             	3.22408583e+02
433             	3.22408703e+02
434             	3.22408842e+02
435             	3.22408998e+02
436             	3.22409169e+02
437             	3.22409359e+02
438             	3.22409556e+02
439             	3.22409758e+02
440             	3.22409934e+02
441             	3.22410087e+02
442             	3.22410206e+02
443             	3.22410285e+02
444             	3.22410312e+02
445             	3.22410284e+02
446             	3.22410211e+02
447             	3.22410118e+02
448             	3.22410025e+02
449             	3.22409957e+02
450             	3.22409916e+02
451             	3.22409919e+02
452             	3.22409985e+02
453             	3.22410102e+02
454             	3.22410256e+02
455             	3.22410422e+02
456             	3.22410587e+02
457             	3.22410737e+02
458             	3.22410864e+02
459             	3.22410964e+02
460             	3.22411024e+02
461             	3.22411061e+02
462             	3.22411073e+02
463             	3.22411049e+02
464             	3.22411003e+02
465             	3.22410950e+02
466             	3.22410901e+02
467             	3.22410858e+02
468             	3.22410823e+02
469             	3.22410795e+02
470             	3.22410775e+02
471             	3.22410766e+02
472             	3.22410761e+02
473             	3.22410773e+02
474             	3.22410815e+02
475             	3.22410891e+02
476             	3.22410983e+02
477             	3.22411089e+02
478             	3.22411189e+02
479             	3.22411274e+02
480             	3.22411340e+02
481             	3.22411381e+02
482             	3.22411402e+02
483             	3.22411404e+02
484             	3.22411404e+02
485             	3.22411408e+02
486             	3.22411416e+02
487             	3.22411423e+02
488             	3.22411435e+02
489             	3.22411446e+02
490             	3.22411450e+02
491             	3.22411449e+02
492             	3.22411446e+02
493             	3.22411447e+02
494             	3.22411453e+02
495             	3.22411467e+02
496             	3.22411490e+02
497             	3.22411521e+02
498             	3.22411568e+02
499             	3.22411635e+02
500             	3.22411716e+02
501             	3.22411803e+02
502             	3.22411899e+02
503             	3.22411992e+02
504             	3.22412077e+02
505             	3.22412151e+02
506             	3.22412211e+02
507             	3.22412261e+02
508             	3.22412291e+02
509             	3.22412297e+02
510             	3.22412289e+02
511             	3.22412279e+02
512             	3.22412274e+02
513             	3.22412279e+02
514             	3.22412293e+02
515             	3.22412322e+02
516             	3.22412363e+02
517             	3.22412416e+02
518             	3.22412484e+02
519             	3.22412569e+02
520             	3.22412666e+02
521             	3.22412765e+02
522             	3.22412863e+02
523             	3.22412955e+02
524             	3.22413038e+02
525             	3.22413110e+02
526             	3.22413167e+02
527             	3.22413220e+02
528             	3.22413269e+02
529             	3.22413319e+02
530             	3.22413371e+02
531             	3.22413427e+02
532             	3.22413484e+02
533             	3.22413534e+02
534             	3.22413572e+02
535             	3.22413599e+02
536             	3.22413613e+02
537             	3.22413617e+02
538             	3.22413615e+02
539             	3.22413613e+02
540             	3.22413618e+02
541             	3.22413635e+02
542             	3.22413666e+02
543             	3.22413713e+02
544             	3.22413779e+02
545             	3.22413850e+02
546             	3.22413920e+02
547             	3.22413984e+02
548             	3.22414036e+02
549             	3.22414076e+02
550             	3.22414109e+02
551             	3.22414139e+02
552             	3.22414171e+02
553             	3.22414206e+02
554             	3.22414240e+02
555             	3.22414269e+02
556             	3.22414292e+02
557             	3.22414313e+02
558             	3.22414326e+02
559             	3.22414333e+02
560             	3.22414334e+02
561             	3.22414337e+02
562             	3.22414342e+02
563             	3.22414351e+02
564             	3.22414371e+02
565             	3.22414401e+02
566             	3.22414442e+02
567             	3.22414493e+02
568             	3.22414548e+02
569             	3.22414603e+02
570             	3.22414650e+02
571             	3.22414684e+02
572             	3.22414708e+02
573             	3.22414720e+02
574             	3.22414723e+02
575             	3.22414720e+02
576             	3.22414715e+02
577             	3.22414712e+02
578             	3.22414712e+02
579             	3.22414717e+02
580             	3.22414730e+02
581             	3.22414748e+02
582             	3.22414772e+02
583             	3.22414800e+02
584             	3.22414827e+02
585             	3.22414851e+02
586             	3.22414872e+02
587             	3.22414890e+02
588             	3.22414906e+02
589             	3.22414920e+02
590             	3.22414932e+02
591             	3.22414946e+02
592             	3.22414961e+02
593             	3.22414980e+02
594             	3.22415004e+02
595             	3.22415033e+02
596             	3.22415062e+02
597             	3.22415089e+02
598             	3.22415115e+02
599             	3.22415135e+02
600             	3.22415150e+02
601             	3.22415160e+02
602             	3.22415169e+02
603             	3.22415180e+02
604             	3.22415192e+02
605             	3.22415210e+02
606             	3.22415233e+02
607             	3.22415259e+02
608             	3.22415286e+02
609             	3.22415313e+02
610             	3.22415333e+02
611             	3.22415346e+02
612             	3.22415351e+02
613             	3.22415353e+02
614             	3.22415353e+02
615             	3.22415354e+02
616             	3.22415357e+02
617             	3.22415362e+02
618             	3.22415370e+02
619             	3.22415382e+02
620             	3.22415396e+02
621             	3.22415412e+02
