# Region        : cellZone component_1
# Cells         : 224
# Volume        : 4.06151306e-01
# Time          	volAverage(T)
1               	3.00321368e+02
2               	3.00635837e+02
3               	3.00896459e+02
4               	3.01123896e+02
5               	3.01343070e+02
6               	3.01558620e+02
7               	3.01768273e+02
8               	3.01971820e+02
9               	3.02170359e+02
10              	3.02364805e+02
11              	3.02556497e+02
12              	3.02745783e+02
13              	3.02932521e+02
14              	3.03116352e+02
15              	3.03296133e+02
16              	3.03472257e+02
17              	3.03641923e+02
18              	3.03804429e+02
19              	3.03961359e+02
20              	3.04113515e+02
21              	3.04261374e+02
22              	3.04405209e+02
23              	3.04545526e+02
24              	3.04682277e+02
25              	3.04815076e+02
26              	3.04943458e+02
27              	3.05067175e+02
28              	3.05187143e+02
29              	3.05303095e+02
30              	3.05415832e+02
31              	3.05526671e+02
32              	3.05637162e+02
33              	3.05748248e+02
34              	3.05861480e+02
35              	3.05976976e+02
36              	3.06093288e+02
37              	3.06206707e+02
38              	3.06316866e+02
39              	3.06421472e+02
40              	3.06520396e+02
41              	3.06614895e+02
42              	3.06704278e+02
43              	3.06788582e+02
44              	3.06870276e+02
45              	3.06952051e+02
46              	3.07033560e+02
47              	3.07114997e+02
48              	3.07195921e+02
49              	3.07274865e+02
50              	3.07352308e+02
51              	3.07427144e+02
52              	3.07500409e+02
53              	3.07572212e+02
54              	3.07641692e+02
55              	3.07706821e+02
56              	3.07769969e+02
57              	3.07828742e+02
58              	3.07886466e+02
59              	3.07940489e+02
60              	3.07990753e+02
61              	3.08036291e+02
62              	3.08080625e+02
63              	3.08123942e+02
64              	3.08167447e+02
65              	3.08210595e+02
66              	3.08253685e+02
67              	3.08297071e+02
68              	3.08339391e+02
69              	3.08379302e+02
70              	3.08415560e+02
71              	3.08450338e+02
72              	3.08483696e+02
73              	3.08515107e+02
74              	3.08544267e+02
75              	3.08571644e+02
76              	3.08596552e+02
77              	3.08619971e+02
78              	3.08641776e+02
79              	3.08662531e+02
80              	3.08681705e+02
81              	3.08699335e+02
82              	3.08715454e+02
83              	3.08730264e+02
84              	3.08744611e+02
85              	3.08758775e+02
86              	3.08773100e+02
87              	3.08787745e+02
88              	3.08802498e+02
89              	3.08816854e+02
90              	3.08830055e+02
91              	3.08841780e+02
92              	3.08851314e+02
93              	3.08858921e+02
94              	3.08864420e+02
95              	3.08868105e+02
96              	3.08869723e+02
97              	3.08871090e+02
98              	3.08872756e+02
99              	3.08874701e+02
100             	3.08876884e+02
101             	3.08879267e+02
102             	3.08881925e+02
103             	3.08884652e+02
104             	3.08887223e+02
105             	3.08889294e+02
106             	3.08890839e+02
107             	3.08891972e+02
108             	3.08892632e+02
109             	3.08892831e+02
110             	3.08892346e+02
111             	3.08891243e+02
112             	3.08889512e+02
113             	3.08887053e+02
114             	3.08883736e+02
115             	3.08879512e+02
116             	3.08874500e+02
117             	3.08868733e+02
118             	3.08862306e+02
119             	3.08855592e+02
120             	3.08849061e+02
121             	3.08843008e+02
122             	3.08837504e+02
123             	3.08832617e+02
124             	3.08827920e+02
125             	3.08823485e+02
126             	3.08819205e+02
127             	3.08814942e+02
128             	3.08810481e+02
129             	3.08805703e+02
130             	3.08800355e+02
131             	3.08794374e+02
132             	3.08788172e+02
133             	3.08781226e+02
134             	3.08773846e+02
135             	3.08766123e+02
136             	3.08758416e+02
137             	3.08750430e+02
138             	3.08742861e+02
139             	3.08735479e+02
140             	3.08728488e+02
141             	3.08722225e+02
142             	3.08716000e+02
143             	3.08709838e+02
144             	3.08703624e+02
145             	3.08697083e+02
146             	3.08690260e+02
147             	3.08683382e+02
148             	3.08675882e+02
149             	3.08668132e+02
150             	3.08659994e+02
151             	3.08651994e+02
152             	3.08644185e+02
153             	3.08636503e+02
154             	3.08629146e+02
155             	3.08622183e+02
156             	3.08615685e+02
157             	3.08609769e+02
158             	3.08604380e+02
159             	3.08599234e+02
160             	3.08593906e+02
161             	3.08588320e+02
162             	3.08582412e+02
163             	3.08576157e+02
164             	3.08569230e+02
165             	3.08561875e+02
166             	3.08554510e+02
167             	3.08547630e+02
168             	3.08541031e+02
169             	3.08534956e+02
170             	3.08529374e+02
171             	3.08524517e+02
172             	3.08520105e+02
173             	3.08515728e+02
174             	3.08511459e+02
175             	3.08506805e+02
176             	3.08502018e+02
177             	3.08496833e+02
178             	3.08491312e+02
179             	3.08485438e+02
180             	3.08479521e+02
181             	3.08473297e+02
182             	3.08467413e+02
183             	3.08462148e+02
184             	3.08457327e+02
185             	3.08452979e+02
186             	3.08449137e+02
187             	3.08445772e+02
188             	3.08442581e+02
189             	3.08439414e+02
190             	3.08435885e+02
191             	3.08432048e+02
192             	3.08427918e+02
193             	3.08423538e+02
194             	3.08418737e+02
195             	3.08413837e+02
196             	3.08409244e+02
197             	3.08405073e+02
198             	3.08401577e+02
199             	3.08398668e+02
200             	3.08396274e+02
201             	3.08394288e+02
202             	3.08392502e+02
203             	3.08390643e+02
204             	3.08388200e+02
205             	3.08385266e+02
206             	3.08381904e+02
207             	3.08378016e+02
208             	3.08373573e+02
209             	3.08369189e+02
210             	3.08365179e+02
211             	3.08361661e+02
212             	3.08358980e+02
213             	3.08356995e+02
214             	3.08355730e+02
215             	3.08354898e+02
216             	3.08354213e+02
217             	3.08353391e+02
218             	3.08352060e+02
219             	3.08350159e+02
220             	3.08347719e+02
221             	3.08344503e+02
222             	3.08340957e+02
223             	3.08337681e+02
224             	3.08334905e+02
225             	3.08332805e+02
226             	3.08331429e+02
227             	3.08330875e+02
228             	3.08331046e+02
229             	3.08331464e+02
230             	3.08331790e+02
231             	3.08331785e+02
232             	3.08331225e+02
233             	3.08329884e+02
234             	3.08327767e+02
235             	3.08325236e+02
236             	3.08322472e+02
237             	3.08319728e+02
238             	3.08317266e+02
239             	3.08315258e+02
240             	3.08313699e+02
241             	3.08312794e+02
242             	3.08312436e+02
243             	3.08312525e+02
244             	3.08312923e+02
245             	3.08313412e+02
246             	3.08313799e+02
247             	3.08313989e+02
248             	3.08313962e+02
249             	3.08313670e+02
250             	3.08313069e+02
251             	3.08312128e+02
252             	3.08310790e+02
253             	3.08309108e+02
254             	3.08307325e+02
255             	3.08305970e+02
256             	3.08304846e+02
257             	3.08304268e+02
258             	3.08304411e+02
259             	3.08305289e+02
260             	3.08306578e+02
261             	3.08307769e+02
262             	3.08308417e+02
263             	3.08308347e+02
264             	3.08307539e+02
265             	3.08305948e+02
266             	3.08303690e+02
267             	3.08301221e+02
268             	3.08299116e+02
269             	3.08297800e+02
270             	3.08297437e+02
271             	3.08297985e+02
272             	3.08299340e+02
273             	3.08301372e+02
274             	3.08303595e+02
275             	3.08305542e+02
276             	3.08307178e+02
277             	3.08308302e+02
278             	3.08308761e+02
279             	3.08308656e+02
280             	3.08308063e+02
281             	3.08307035e+02
282             	3.08306081e+02
283             	3.08305139e+02
284             	3.08304314e+02
285             	3.08303863e+02
286             	3.08303844e+02
287             	3.08304333e+02
288             	3.08305203e+02
289             	3.08306417e+02
290             	3.08307735e+02
291             	3.08309183e+02
292             	3.08310572e+02
293             	3.08311744e+02
294             	3.08312511e+02
295             	3.08312710e+02
296             	3.08312200e+02
297             	3.08310961e+02
298             	3.08309378e+02
299             	3.08307811e+02
300             	3.08306317e+02
301             	3.08305200e+02
302             	3.08304750e+02
303             	3.08305039e+02
304             	3.08305899e+02
305             	3.08307128e+02
306             	3.08308446e+02
307             	3.08309523e+02
308             	3.08310285e+02
309             	3.08310681e+02
310             	3.08310759e+02
311             	3.08310504e+02
312             	3.08310070e+02
313             	3.08309582e+02
314             	3.08309161e+02
315             	3.08308939e+02
316             	3.08308977e+02
317             	3.08309284e+02
318             	3.08309843e+02
319             	3.08310662e+02
320             	3.08311569e+02
321             	3.08312573e+02
322             	3.08313614e+02
323             	3.08314657e+02
324             	3.08315634e+02
325             	3.08316474e+02
326             	3.08317069e+02
327             	3.08317425e+02
328             	3.08317543e+02
329             	3.08317429e+02
330             	3.08317131e+02
331             	3.08316652e+02
332             	3.08316075e+02
333             	3.08315444e+02
334             	3.08314852e+02
335             	3.08314451e+02
336             	3.08314345e+02
337             	3.08314530e+02
338             	3.08315030e+02
339             	3.08315822e+02
340             	3.08316826e+02
341             	3.08317850e+02
342             	3.08318730e+02
343             	3.08319400e+02
344             	3.08319763e+02
345             	3.08319827e+02
346             	3.08319586e+02
347             	3.08319121e+02
348             	3.08318652e+02
349             	3.08318251e+02
350             	3.08317966e+02
351             	3.08317846e+02
352             	3.08317990e+02
353             	3.08318424e+02
354             	3.08319094e+02
355             	3.08319791e+02
356             	3.08320444e+02
357             	3.08320955e+02
358             	3.08321245e+02
359             	3.08321270e+02
360             	3.08320996e+02
361             	3.08320497e+02
362             	3.08319976e+02
363             	3.08319560e+02
364             	3.08319309e+02
365             	3.08319296e+02
366             	3.08319603e+02
367             	3.08320136e+02
368             	3.08320830e+02
369             	3.08321517e+02
370             	3.08322147e+02
371             	3.08322643e+02
372             	3.08322956e+02
373             	3.08323045e+02
374             	3.08322861e+02
375             	3.08322434e+02
376             	3.08321903e+02
377             	3.08321338e+02
378             	3.08320946e+02
379             	3.08320766e+02
380             	3.08320778e+02
381             	3.08321054e+02
382             	3.08321644e+02
383             	3.08322466e+02
384             	3.08323452e+02
385             	3.08324305e+02
386             	3.08324930e+02
387             	3.08325253e+02
388             	3.08325277e+02
389             	3.08325017e+02
390             	3.08324534e+02
391             	3.08323981e+02
392             	3.08323381e+02
393             	3.08322882e+02
394             	3.08322539e+02
395             	3.08322339e+02
396             	3.08322330e+02
397             	3.08322524e+02
398             	3.08322931e+02
399             	3.08323537e+02
400             	3.08324215e+02
401             	3.08324894e+02
402             	3.08325568e+02
403             	3.08326213e+02
404             	3.08326795e+02
405             	3.08327292e+02
406             	3.08327690e+02
407             	3.08327953e+02
408             	3.08328036e+02
409             	3.08327926e+02
410             	3.08327618e+02
411             	3.08327164e+02
412             	3.08326639e+02
413             	3.08326184e+02
414             	3.08325837e+02
415             	3.08325632e+02
416             	3.08325588e+02
417             	3.08325704e+02
418             	3.08325980e+02
419             	3.08326370e+02
420             	3.08326812e+02
421             	3.08327219e+02
422             	3.08327530e+02
423             	3.08327760e+02
424             	3.08327874e+02
425             	3.08327878e+02
426             	3.08327776e+02
427             	3.08327568e+02
428             	3.08327328e+02
429             	3.08327126e+02
430             	3.08326961e+02
431             	3.08326864e+02
432             	3.08326886e+02
433             	3.08327018e+02
434             	3.08327262e+02
435             	3.08327572e+02
436             	3.08327883e+02
437             	3.08328132e+02
438             	3.08328293e+02
439             	3.08328350e+02
440             	3.08328299e+02
441             	3.08328131e+02
442             	3.08327904e+02
443             	3.08327665e+02
444             	3.08327419e+02
445             	3.08327220e+02
446             	3.08327096e+02
447             	3.08327071e+02
448             	3.08327156e+02
449             	3.08327352e+02
450             	3.08327646e+02
451             	3.08327990e+02
452             	3.08328322e+02
453             	3.08328613e+02
454             	3.08328810e+02
455             	3.08328902e+02
456             	3.08328883e+02
457             	3.08328743e+02
458             	3.08328524e+02
459             	3.08328278e+02
460             	3.08328041e+02
461             	3.08327879e+02
462             	3.08327816e+02
463             	3.08327861e+02
464             	3.08328015e+02
465             	3.08328263e+02
466             	3.08328573e+02
467             	3.08328849e+02
468             	3.08329057e+02
469             	3.08329158e+02
470             	3.08329147e+02
471             	3.08329025e+02
472             	3.08328789e+02
473             	3.08328473e+02
474             	3.08328165e+02
475             	3.08327922e+02
476             	3.08327749e+02
477             	3.08327686e+02
478             	3.08327752e+02
479             	3.08327952e+02
480             	3.08328260e+02
481             	3.08328636e+02
482             	3.08328981e+02
483             	3.08329271e+02
484             	3.08329468e+02
485             	3.08329539e+02
486             	3.08329464e+02
487             	3.08329224e+02
488             	3.08328856e+02
489             	3.08328449e+02
490             	3.08328089e+02
491             	3.08327811e+02
492             	3.08327685e+02
493             	3.08327704e+02
494             	3.08327905e+02
495             	3.08328249e+02
496             	3.08328703e+02
497             	3.08329129e+02
498             	3.08329491e+02
499             	3.08329730e+02
500             	3.08329819e+02
501             	3.08329758e+02
502             	3.08329538e+02
503             	3.08329171e+02
504             	3.08328781e+02
505             	3.08328445e+02
506             	3.08328207e+02
507             	3.08328068e+02
508             	3.08328066e+02
509             	3.08328260e+02
510             	3.08328613e+02
511             	3.08329010e+02
512             	3.08329328e+02
513             	3.08329558e+02
514             	3.08329668e+02
515             	3.08329640e+02
516             	3.08329467e+02
517             	3.08329157e+02
518             	3.08328743e+02
519             	3.08328320e+02
520             	3.08327973e+02
521             	3.08327734e+02
522             	3.08327653e+02
523             	3.08327751e+02
524             	3.08327996e+02
525             	3.08328328e+02
526             	3.08328764e+02
527             	3.08329255e+02
528             	3.08329680e+02
529             	3.08330049e+02
530             	3.08330326e+02
531             	3.08330462e+02
532             	3.08330441e+02
533             	3.08330240e+02
534             	3.08329863e+02
535             	3.08329367e+02
536             	3.08328836e+02
537             	3.08328394e+02
538             	3.08328069e+02
539             	3.08327922e+02
540             	3.08328005e+02
541             	3.08328341e+02
542             	3.08328847e+02
543             	3.08329394e+02
544             	3.08329857e+02
545             	3.08330196e+02
546             	3.08330394e+02
547             	3.08330423e+02
548             	3.08330245e+02
549             	3.08329877e+02
550             	3.08329400e+02
551             	3.08328853e+02
552             	3.08328357e+02
553             	3.08327997e+02
554             	3.08327768e+02
555             	3.08327690e+02
556             	3.08327780e+02
557             	3.08328055e+02
558             	3.08328432e+02
559             	3.08328802e+02
560             	3.08329121e+02
561             	3.08329357e+02
562             	3.08329473e+02
563             	3.08329425e+02
564             	3.08329215e+02
565             	3.08328886e+02
566             	3.08328530e+02
567             	3.08328270e+02
568             	3.08328109e+02
569             	3.08328069e+02
570             	3.08328134e+02
571             	3.08328277e+02
572             	3.08328495e+02
573             	3.08328758e+02
574             	3.08329069e+02
575             	3.08329391e+02
576             	3.08329770e+02
577             	3.08330157e+02
578             	3.08330517e+02
579             	3.08330796e+02
580             	3.08330979e+02
581             	3.08330999e+02
582             	3.08330836e+02
583             	3.08330513e+02
584             	3.08330112e+02
585             	3.08329641e+02
586             	3.08329153e+02
587             	3.08328713e+02
588             	3.08328371e+02
589             	3.08328145e+02
590             	3.08328061e+02
591             	3.08328110e+02
592             	3.08328262e+02
593             	3.08328467e+02
594             	3.08328703e+02
595             	3.08328926e+02
596             	3.08329117e+02
597             	3.08329286e+02
598             	3.08329433e+02
599             	3.08329537e+02
600             	3.08329603e+02
601             	3.08329616e+02
602             	3.08329592e+02
603             	3.08329533e+02
604             	3.08329441e+02
605             	3.08329303e+02
606             	3.08329128e+02
607             	3.08328950e+02
608             	3.08328773e+02
609             	3.08328583e+02
610             	3.08328410e+02
611             	3.08328295e+02
612             	3.08328258e+02
613             	3.08328329e+02
614             	3.08328511e+02
615             	3.08328782e+02
616             	3.08329074e+02
617             	3.08329320e+02
618             	3.08329538e+02
619             	3.08329681e+02
620             	3.08329735e+02
621             	3.08329696e+02
