# Region        : cellZone component_0
# Cells         : 422
# Volume        : 8.28475049e-01
# Time          	volAverage(T)
1               	3.00118497e+02
2               	3.00236282e+02
3               	3.00349909e+02
4               	3.00460722e+02
5               	3.00569944e+02
6               	3.00677918e+02
7               	3.00784738e+02
8               	3.00890812e+02
9               	3.00996208e+02
10              	3.01100967e+02
11              	3.01204912e+02
12              	3.01308121e+02
13              	3.01410562e+02
14              	3.01512031e+02
15              	3.01613055e+02
16              	3.01712999e+02
17              	3.01811413e+02
18              	3.01909666e+02
19              	3.02008036e+02
20              	3.02106166e+02
21              	3.02202841e+02
22              	3.02300000e+02
23              	3.02396735e+02
24              	3.02493920e+02
25              	3.02590282e+02
26              	3.02685106e+02
27              	3.02777124e+02
28              	3.02869672e+02
29              	3.02959467e+02
30              	3.03049464e+02
31              	3.03136814e+02
32              	3.03224467e+02
33              	3.03311175e+02
34              	3.03394917e+02
35              	3.03474021e+02
36              	3.03549365e+02
37              	3.03623366e+02
38              	3.03695258e+02
39              	3.03767468e+02
40              	3.03840263e+02
41              	3.03916169e+02
42              	3.03989730e+02
43              	3.04063520e+02
44              	3.04136796e+02
45              	3.04208777e+02
46              	3.04281830e+02
47              	3.04355767e+02
48              	3.04429889e+02
49              	3.04501411e+02
50              	3.04571192e+02
51              	3.04643093e+02
52              	3.04710940e+02
53              	3.04782382e+02
54              	3.04851551e+02
55              	3.04920566e+02
56              	3.04988890e+02
57              	3.05057134e+02
58              	3.05125435e+02
59              	3.05194262e+02
60              	3.05263390e+02
61              	3.05331405e+02
62              	3.05398719e+02
63              	3.05465079e+02
64              	3.05530867e+02
65              	3.05595425e+02
66              	3.05658602e+02
67              	3.05720784e+02
68              	3.05780744e+02
69              	3.05842233e+02
70              	3.05903794e+02
71              	3.05964213e+02
72              	3.06024196e+02
73              	3.06083358e+02
74              	3.06142144e+02
75              	3.06200316e+02
76              	3.06256444e+02
77              	3.06312010e+02
78              	3.06369160e+02
79              	3.06424654e+02
80              	3.06481407e+02
81              	3.06535495e+02
82              	3.06589623e+02
83              	3.06642896e+02
84              	3.06696451e+02
85              	3.06749434e+02
86              	3.06802845e+02
87              	3.06856736e+02
88              	3.06911619e+02
89              	3.06964633e+02
90              	3.07017642e+02
91              	3.07070415e+02
92              	3.07122105e+02
93              	3.07173374e+02
94              	3.07224684e+02
95              	3.07274928e+02
96              	3.07324358e+02
97              	3.07373322e+02
98              	3.07422544e+02
99              	3.07472549e+02
100             	3.07523099e+02
101             	3.07573313e+02
102             	3.07622461e+02
103             	3.07670776e+02
104             	3.07718398e+02
105             	3.07765757e+02
106             	3.07812825e+02
107             	3.07859989e+02
108             	3.07906815e+02
109             	3.07953565e+02
110             	3.08000107e+02
111             	3.08046463e+02
112             	3.08093006e+02
113             	3.08139420e+02
114             	3.08186530e+02
115             	3.08232746e+02
116             	3.08278672e+02
117             	3.08324360e+02
118             	3.08369347e+02
119             	3.08413340e+02
120             	3.08457529e+02
121             	3.08501306e+02
122             	3.08544961e+02
123             	3.08588329e+02
124             	3.08631157e+02
125             	3.08673513e+02
126             	3.08716383e+02
127             	3.08757882e+02
128             	3.08800405e+02
129             	3.08842761e+02
130             	3.08884782e+02
131             	3.08926639e+02
132             	3.08968557e+02
133             	3.09010133e+02
134             	3.09051232e+02
135             	3.09092141e+02
136             	3.09132889e+02
137             	3.09173258e+02
138             	3.09213108e+02
139             	3.09252114e+02
140             	3.09290516e+02
141             	3.09329210e+02
142             	3.09368048e+02
143             	3.09406766e+02
144             	3.09444469e+02
145             	3.09481817e+02
146             	3.09519091e+02
147             	3.09555443e+02
148             	3.09591141e+02
149             	3.09626729e+02
150             	3.09662244e+02
151             	3.09697308e+02
152             	3.09732244e+02
153             	3.09767164e+02
154             	3.09802257e+02
155             	3.09836734e+02
156             	3.09871109e+02
157             	3.09905303e+02
158             	3.09939367e+02
159             	3.09973202e+02
160             	3.10006679e+02
161             	3.10039290e+02
162             	3.10071900e+02
163             	3.10104723e+02
164             	3.10136953e+02
165             	3.10168862e+02
166             	3.10200387e+02
167             	3.10231755e+02
168             	3.10262836e+02
169             	3.10293345e+02
170             	3.10324194e+02
171             	3.10354791e+02
172             	3.10385255e+02
173             	3.10415314e+02
174             	3.10445291e+02
175             	3.10474956e+02
176             	3.10504386e+02
177             	3.10533326e+02
178             	3.10562738e+02
179             	3.10592353e+02
180             	3.10621781e+02
181             	3.10650894e+02
182             	3.10679734e+02
183             	3.10708483e+02
184             	3.10736816e+02
185             	3.10765190e+02
186             	3.10793303e+02
187             	3.10821116e+02
188             	3.10848642e+02
189             	3.10875817e+02
190             	3.10902508e+02
191             	3.10929318e+02
192             	3.10956214e+02
193             	3.10983114e+02
194             	3.11009617e+02
195             	3.11036263e+02
196             	3.11062597e+02
197             	3.11088891e+02
198             	3.11114268e+02
199             	3.11139561e+02
200             	3.11164740e+02
201             	3.11190088e+02
202             	3.11215324e+02
203             	3.11240550e+02
204             	3.11265776e+02
205             	3.11290866e+02
206             	3.11315722e+02
207             	3.11340327e+02
208             	3.11364314e+02
209             	3.11388124e+02
210             	3.11411489e+02
211             	3.11434637e+02
212             	3.11457646e+02
213             	3.11480656e+02
214             	3.11503512e+02
215             	3.11526275e+02
216             	3.11548956e+02
217             	3.11571523e+02
218             	3.11593947e+02
219             	3.11616000e+02
220             	3.11638271e+02
221             	3.11660287e+02
222             	3.11681815e+02
223             	3.11703398e+02
224             	3.11724714e+02
225             	3.11745878e+02
226             	3.11767116e+02
227             	3.11788369e+02
228             	3.11809525e+02
229             	3.11830544e+02
230             	3.11851393e+02
231             	3.11871722e+02
232             	3.11891966e+02
233             	3.11911768e+02
234             	3.11931262e+02
235             	3.11950834e+02
236             	3.11970248e+02
237             	3.11989617e+02
238             	3.12008697e+02
239             	3.12027826e+02
240             	3.12046889e+02
241             	3.12065996e+02
242             	3.12085085e+02
243             	3.12104036e+02
244             	3.12122682e+02
245             	3.12141215e+02
246             	3.12159568e+02
247             	3.12177656e+02
248             	3.12195777e+02
249             	3.12213634e+02
250             	3.12231404e+02
251             	3.12249085e+02
252             	3.12266702e+02
253             	3.12284207e+02
254             	3.12301715e+02
255             	3.12318889e+02
256             	3.12336045e+02
257             	3.12353065e+02
258             	3.12370100e+02
259             	3.12386689e+02
260             	3.12403333e+02
261             	3.12419633e+02
262             	3.12435977e+02
263             	3.12452298e+02
264             	3.12468505e+02
265             	3.12484564e+02
266             	3.12500394e+02
267             	3.12516311e+02
268             	3.12532153e+02
269             	3.12547915e+02
270             	3.12563546e+02
271             	3.12579077e+02
272             	3.12594523e+02
273             	3.12609818e+02
274             	3.12624968e+02
275             	3.12640037e+02
276             	3.12655025e+02
277             	3.12669898e+02
278             	3.12684624e+02
279             	3.12699208e+02
280             	3.12713562e+02
281             	3.12727792e+02
282             	3.12742126e+02
283             	3.12756473e+02
284             	3.12770802e+02
285             	3.12785038e+02
286             	3.12798953e+02
287             	3.12812749e+02
288             	3.12826543e+02
289             	3.12840260e+02
290             	3.12853695e+02
291             	3.12867029e+02
292             	3.12880314e+02
293             	3.12893552e+02
294             	3.12906649e+02
295             	3.12919603e+02
296             	3.12932489e+02
297             	3.12945316e+02
298             	3.12958076e+02
299             	3.12970814e+02
300             	3.12983479e+02
301             	3.12996046e+02
302             	3.13008517e+02
303             	3.13020892e+02
304             	3.13033159e+02
305             	3.13045382e+02
306             	3.13057542e+02
307             	3.13069567e+02
308             	3.13081545e+02
309             	3.13093451e+02
310             	3.13105292e+02
311             	3.13117061e+02
312             	3.13128751e+02
313             	3.13140335e+02
314             	3.13151836e+02
315             	3.13163237e+02
316             	3.13174482e+02
317             	3.13185714e+02
318             	3.13196854e+02
319             	3.13207948e+02
320             	3.13218972e+02
321             	3.13229911e+02
322             	3.13240771e+02
323             	3.13251515e+02
324             	3.13262199e+02
325             	3.13272812e+02
326             	3.13283327e+02
327             	3.13293758e+02
328             	3.13304100e+02
329             	3.13314370e+02
330             	3.13324568e+02
331             	3.13334689e+02
332             	3.13344720e+02
333             	3.13354686e+02
334             	3.13364612e+02
335             	3.13374473e+02
336             	3.13384260e+02
337             	3.13393975e+02
338             	3.13403630e+02
339             	3.13413207e+02
340             	3.13422726e+02
341             	3.13432183e+02
342             	3.13441580e+02
343             	3.13450906e+02
344             	3.13460168e+02
345             	3.13469370e+02
346             	3.13478510e+02
347             	3.13487588e+02
348             	3.13496602e+02
349             	3.13505542e+02
350             	3.13514422e+02
351             	3.13523239e+02
352             	3.13531992e+02
353             	3.13540682e+02
354             	3.13549312e+02
355             	3.13557877e+02
356             	3.13566385e+02
357             	3.13574831e+02
358             	3.13583214e+02
359             	3.13591526e+02
360             	3.13599771e+02
361             	3.13607937e+02
362             	3.13616016e+02
363             	3.13624054e+02
364             	3.13632036e+02
365             	3.13639962e+02
366             	3.13647817e+02
367             	3.13655596e+02
368             	3.13663302e+02
369             	3.13670980e+02
370             	3.13678612e+02
371             	3.13686190e+02
372             	3.13693711e+02
373             	3.13701175e+02
374             	3.13708607e+02
375             	3.13715970e+02
376             	3.13723281e+02
377             	3.13730540e+02
378             	3.13737754e+02
379             	3.13744925e+02
380             	3.13752042e+02
381             	3.13759091e+02
382             	3.13766102e+02
383             	3.13773068e+02
384             	3.13779985e+02
385             	3.13786849e+02
386             	3.13793656e+02
387             	3.13800409e+02
388             	3.13807113e+02
389             	3.13813771e+02
390             	3.13820377e+02
391             	3.13826935e+02
392             	3.13833442e+02
393             	3.13839901e+02
394             	3.13846306e+02
395             	3.13852681e+02
396             	3.13859013e+02
397             	3.13865298e+02
398             	3.13871536e+02
399             	3.13877729e+02
400             	3.13883875e+02
401             	3.13889986e+02
402             	3.13896055e+02
403             	3.13902078e+02
404             	3.13908067e+02
405             	3.13914014e+02
406             	3.13919910e+02
407             	3.13925773e+02
408             	3.13931598e+02
409             	3.13937390e+02
410             	3.13943147e+02
411             	3.13948862e+02
412             	3.13954527e+02
413             	3.13960157e+02
414             	3.13965742e+02
415             	3.13971290e+02
416             	3.13976782e+02
417             	3.13982244e+02
418             	3.13987667e+02
419             	3.13993053e+02
420             	3.13998394e+02
421             	3.14003694e+02
422             	3.14008951e+02
423             	3.14014169e+02
424             	3.14019342e+02
425             	3.14024476e+02
426             	3.14029579e+02
427             	3.14034659e+02
428             	3.14039707e+02
429             	3.14044714e+02
430             	3.14049680e+02
431             	3.14054608e+02
432             	3.14059497e+02
433             	3.14064348e+02
434             	3.14069169e+02
435             	3.14073955e+02
436             	3.14078707e+02
437             	3.14083434e+02
438             	3.14088126e+02
439             	3.14092787e+02
440             	3.14097414e+02
441             	3.14102002e+02
442             	3.14106558e+02
443             	3.14111086e+02
444             	3.14115576e+02
445             	3.14120030e+02
446             	3.14124452e+02
447             	3.14128841e+02
448             	3.14133196e+02
449             	3.14137525e+02
450             	3.14141820e+02
451             	3.14146086e+02
452             	3.14150325e+02
453             	3.14154535e+02
454             	3.14158712e+02
455             	3.14162861e+02
456             	3.14166980e+02
457             	3.14171070e+02
458             	3.14175133e+02
459             	3.14179162e+02
460             	3.14183154e+02
461             	3.14187126e+02
462             	3.14191069e+02
463             	3.14194987e+02
464             	3.14198887e+02
465             	3.14202760e+02
466             	3.14206607e+02
467             	3.14210425e+02
468             	3.14214211e+02
469             	3.14217968e+02
470             	3.14221699e+02
471             	3.14225402e+02
472             	3.14229074e+02
473             	3.14232724e+02
474             	3.14236344e+02
475             	3.14239938e+02
476             	3.14243509e+02
477             	3.14247054e+02
478             	3.14250574e+02
479             	3.14254070e+02
480             	3.14257540e+02
481             	3.14260984e+02
482             	3.14264405e+02
483             	3.14267800e+02
484             	3.14271168e+02
485             	3.14274518e+02
486             	3.14277841e+02
487             	3.14281139e+02
488             	3.14284418e+02
489             	3.14287667e+02
490             	3.14290891e+02
491             	3.14294100e+02
492             	3.14297287e+02
493             	3.14300452e+02
494             	3.14303597e+02
495             	3.14306717e+02
496             	3.14309813e+02
497             	3.14312893e+02
498             	3.14315945e+02
499             	3.14318973e+02
500             	3.14321983e+02
501             	3.14324970e+02
502             	3.14327933e+02
503             	3.14330881e+02
504             	3.14333802e+02
505             	3.14336701e+02
506             	3.14339582e+02
507             	3.14342441e+02
508             	3.14345277e+02
509             	3.14348095e+02
510             	3.14350891e+02
511             	3.14353668e+02
512             	3.14356428e+02
513             	3.14359166e+02
514             	3.14361881e+02
515             	3.14364582e+02
516             	3.14367260e+02
517             	3.14369918e+02
518             	3.14372560e+02
519             	3.14375182e+02
520             	3.14377784e+02
521             	3.14380373e+02
522             	3.14382940e+02
523             	3.14385487e+02
524             	3.14388018e+02
525             	3.14390530e+02
526             	3.14393023e+02
527             	3.14395502e+02
528             	3.14397960e+02
529             	3.14400398e+02
530             	3.14402827e+02
531             	3.14405234e+02
532             	3.14407623e+02
533             	3.14410001e+02
534             	3.14412356e+02
535             	3.14414695e+02
536             	3.14417024e+02
537             	3.14419333e+02
538             	3.14421622e+02
539             	3.14423897e+02
540             	3.14426152e+02
541             	3.14428390e+02
542             	3.14430618e+02
543             	3.14432827e+02
544             	3.14435019e+02
545             	3.14437201e+02
546             	3.14439364e+02
547             	3.14441510e+02
548             	3.14443646e+02
549             	3.14445764e+02
550             	3.14447863e+02
551             	3.14449955e+02
552             	3.14452028e+02
553             	3.14454084e+02
554             	3.14456128e+02
555             	3.14458156e+02
556             	3.14460167e+02
557             	3.14462170e+02
558             	3.14464154e+02
559             	3.14466122e+02
560             	3.14468082e+02
561             	3.14470025e+02
562             	3.14471951e+02
563             	3.14473873e+02
564             	3.14475774e+02
565             	3.14477660e+02
566             	3.14479538e+02
567             	3.14481400e+02
568             	3.14483243e+02
569             	3.14485082e+02
570             	3.14486903e+02
571             	3.14488710e+02
572             	3.14490508e+02
573             	3.14492290e+02
574             	3.14494056e+02
575             	3.14495818e+02
576             	3.14497561e+02
577             	3.14499289e+02
578             	3.14501011e+02
579             	3.14502718e+02
580             	3.14504409e+02
581             	3.14506096e+02
582             	3.14507766e+02
583             	3.14509422e+02
584             	3.14511072e+02
585             	3.14512706e+02
586             	3.14514326e+02
587             	3.14515942e+02
588             	3.14517541e+02
589             	3.14519126e+02
590             	3.14520707e+02
591             	3.14522273e+02
592             	3.14523823e+02
593             	3.14525372e+02
594             	3.14526904e+02
595             	3.14528422e+02
596             	3.14529937e+02
597             	3.14531437e+02
598             	3.14532922e+02
599             	3.14534405e+02
600             	3.14535872e+02
601             	3.14537327e+02
602             	3.14538778e+02
603             	3.14540215e+02
604             	3.14541637e+02
605             	3.14543059e+02
606             	3.14544463e+02
607             	3.14545854e+02
608             	3.14547243e+02
609             	3.14548618e+02
610             	3.14549979e+02
611             	3.14551341e+02
612             	3.14552687e+02
613             	3.14554021e+02
614             	3.14555353e+02
615             	3.14556670e+02
616             	3.14557973e+02
617             	3.14559275e+02
618             	3.14560563e+02
619             	3.14561838e+02
620             	3.14563111e+02
621             	3.14564371e+02
