# Region        : cellZone component_3
# Cells         : 16
# Volume        : 2.42711528e-02
# Time          	volAverage(T)
1               	3.04905790e+02
2               	3.09670620e+02
3               	3.12877508e+02
4               	3.15228342e+02
5               	3.17351511e+02
6               	3.19412631e+02
7               	3.21420973e+02
8               	3.23378309e+02
9               	3.25308796e+02
10              	3.27187350e+02
11              	3.28910984e+02
12              	3.30549648e+02
13              	3.31988726e+02
14              	3.33375219e+02
15              	3.34718789e+02
16              	3.35921787e+02
17              	3.37125156e+02
18              	3.38263583e+02
19              	3.39396312e+02
20              	3.40627636e+02
21              	3.41871851e+02
22              	3.43023080e+02
23              	3.44023090e+02
24              	3.44745548e+02
25              	3.45426169e+02
26              	3.45972023e+02
27              	3.46517755e+02
28              	3.47123342e+02
29              	3.47666041e+02
30              	3.48132048e+02
31              	3.48626861e+02
32              	3.49009802e+02
33              	3.49293778e+02
34              	3.49488222e+02
35              	3.49807734e+02
36              	3.50011241e+02
37              	3.50252969e+02
38              	3.50400158e+02
39              	3.50498572e+02
40              	3.50519582e+02
41              	3.50608363e+02
42              	3.50684629e+02
43              	3.50717441e+02
44              	3.50773974e+02
45              	3.50926832e+02
46              	3.51153134e+02
47              	3.51495296e+02
48              	3.51761089e+02
49              	3.52114850e+02
50              	3.52427099e+02
51              	3.52730677e+02
52              	3.52788071e+02
53              	3.52867537e+02
54              	3.52967942e+02
55              	3.52886940e+02
56              	3.52720980e+02
57              	3.52510776e+02
58              	3.52163209e+02
59              	3.51685929e+02
60              	3.51158425e+02
61              	3.50528374e+02
62              	3.49751742e+02
63              	3.48893150e+02
64              	3.48045759e+02
65              	3.47385204e+02
66              	3.46913187e+02
67              	3.46594229e+02
68              	3.46394089e+02
69              	3.46120764e+02
70              	3.45944423e+02
71              	3.45675139e+02
72              	3.45582147e+02
73              	3.45297723e+02
74              	3.44987396e+02
75              	3.44739311e+02
76              	3.44553718e+02
77              	3.44411496e+02
78              	3.44298935e+02
79              	3.44206969e+02
80              	3.44114715e+02
81              	3.44031562e+02
82              	3.43958535e+02
83              	3.43904085e+02
84              	3.43871613e+02
85              	3.43844898e+02
86              	3.43821128e+02
87              	3.43801849e+02
88              	3.43788801e+02
89              	3.43786841e+02
90              	3.43799856e+02
91              	3.43820322e+02
92              	3.43845715e+02
93              	3.43872876e+02
94              	3.44215989e+02
95              	3.44594767e+02
96              	3.45125862e+02
97              	3.45660810e+02
98              	3.46118467e+02
99              	3.46499486e+02
100             	3.46813448e+02
101             	3.47073830e+02
102             	3.47274564e+02
103             	3.47374351e+02
104             	3.47369323e+02
105             	3.47275338e+02
106             	3.47162854e+02
107             	3.47012686e+02
108             	3.46761713e+02
109             	3.46622175e+02
110             	3.46363085e+02
111             	3.46201241e+02
112             	3.46159712e+02
113             	3.46033612e+02
114             	3.45938116e+02
115             	3.45857844e+02
116             	3.45662983e+02
117             	3.45553971e+02
118             	3.45488247e+02
119             	3.45223361e+02
120             	3.44899307e+02
121             	3.44678388e+02
122             	3.44391435e+02
123             	3.44246983e+02
124             	3.44088749e+02
125             	3.44090610e+02
126             	3.44200407e+02
127             	3.44376934e+02
128             	3.44310130e+02
129             	3.44301439e+02
130             	3.44177264e+02
131             	3.44156127e+02
132             	3.43992351e+02
133             	3.43805775e+02
134             	3.43636288e+02
135             	3.43530507e+02
136             	3.43443604e+02
137             	3.43375980e+02
138             	3.43309689e+02
139             	3.43364805e+02
140             	3.43224715e+02
141             	3.43166392e+02
142             	3.42897350e+02
143             	3.42723331e+02
144             	3.42429887e+02
145             	3.42196754e+02
146             	3.41901678e+02
147             	3.41707769e+02
148             	3.41590906e+02
149             	3.41522065e+02
150             	3.41351756e+02
151             	3.41224776e+02
152             	3.40978664e+02
153             	3.40840481e+02
154             	3.40651878e+02
155             	3.40589970e+02
156             	3.40478406e+02
157             	3.40502644e+02
158             	3.40522742e+02
159             	3.40693032e+02
160             	3.40766810e+02
161             	3.40929257e+02
162             	3.40938008e+02
163             	3.40895001e+02
164             	3.40849942e+02
165             	3.40923286e+02
166             	3.40867810e+02
167             	3.40890513e+02
168             	3.40887994e+02
169             	3.40978200e+02
170             	3.41007036e+02
171             	3.41116190e+02
172             	3.41141465e+02
173             	3.41236710e+02
174             	3.41201785e+02
175             	3.41124404e+02
176             	3.41163929e+02
177             	3.41148774e+02
178             	3.41231362e+02
179             	3.41338449e+02
180             	3.41573557e+02
181             	3.41872545e+02
182             	3.42179213e+02
183             	3.42255448e+02
184             	3.42345525e+02
185             	3.42255703e+02
186             	3.42107916e+02
187             	3.42008016e+02
188             	3.41943372e+02
189             	3.42051983e+02
190             	3.42110953e+02
191             	3.42303190e+02
192             	3.42438622e+02
193             	3.42606341e+02
194             	3.42577591e+02
195             	3.42578188e+02
196             	3.42431477e+02
197             	3.42233136e+02
198             	3.42060395e+02
199             	3.42013711e+02
200             	3.41897226e+02
201             	3.41885384e+02
202             	3.41815880e+02
203             	3.41833172e+02
204             	3.41879470e+02
205             	3.41949405e+02
206             	3.41906136e+02
207             	3.41924150e+02
208             	3.41852725e+02
209             	3.41866248e+02
210             	3.41743496e+02
211             	3.41712039e+02
212             	3.41579865e+02
213             	3.41573874e+02
214             	3.41527125e+02
215             	3.41603275e+02
216             	3.41779750e+02
217             	3.41815509e+02
218             	3.41916070e+02
219             	3.41954162e+02
220             	3.42087648e+02
221             	3.42134908e+02
222             	3.42296350e+02
223             	3.42327260e+02
224             	3.42489511e+02
225             	3.42514900e+02
226             	3.42665234e+02
227             	3.42644762e+02
228             	3.42724716e+02
229             	3.42726113e+02
230             	3.42830176e+02
231             	3.42831627e+02
232             	3.42903462e+02
233             	3.42877545e+02
234             	3.42925000e+02
235             	3.42896742e+02
236             	3.42943816e+02
237             	3.42904191e+02
238             	3.42969879e+02
239             	3.42919676e+02
240             	3.42966229e+02
241             	3.42911736e+02
242             	3.42977005e+02
243             	3.42949271e+02
244             	3.43038483e+02
245             	3.43009663e+02
246             	3.43120553e+02
247             	3.43060582e+02
248             	3.43111087e+02
249             	3.43010719e+02
250             	3.43030295e+02
251             	3.42956336e+02
252             	3.42982017e+02
253             	3.42891063e+02
254             	3.42885843e+02
255             	3.42755930e+02
256             	3.42730017e+02
257             	3.42579794e+02
258             	3.42520284e+02
259             	3.42543060e+02
260             	3.42482479e+02
261             	3.42526018e+02
262             	3.42486901e+02
263             	3.42545551e+02
264             	3.42518101e+02
265             	3.42602341e+02
266             	3.42545021e+02
267             	3.42592546e+02
268             	3.42547664e+02
269             	3.42640160e+02
270             	3.42613280e+02
271             	3.42696565e+02
272             	3.42729204e+02
273             	3.42869970e+02
274             	3.42910657e+02
275             	3.43051030e+02
276             	3.43046084e+02
277             	3.42972015e+02
278             	3.43031755e+02
279             	3.42984555e+02
280             	3.43063282e+02
281             	3.43006868e+02
282             	3.43053330e+02
283             	3.43046642e+02
284             	3.43148986e+02
285             	3.43131747e+02
286             	3.43191078e+02
287             	3.43114077e+02
288             	3.43136455e+02
289             	3.43028160e+02
290             	3.43017005e+02
291             	3.42952924e+02
292             	3.43007481e+02
293             	3.42947822e+02
294             	3.42996815e+02
295             	3.42953361e+02
296             	3.43018593e+02
297             	3.42993402e+02
298             	3.43075122e+02
299             	3.43034593e+02
300             	3.43117733e+02
301             	3.43066916e+02
302             	3.43140104e+02
303             	3.43091106e+02
304             	3.43166262e+02
305             	3.43113446e+02
306             	3.43172285e+02
307             	3.43126373e+02
308             	3.43179070e+02
309             	3.43131157e+02
310             	3.43182537e+02
311             	3.43116646e+02
312             	3.43151765e+02
313             	3.43052805e+02
314             	3.43046057e+02
315             	3.42943386e+02
316             	3.42950741e+02
317             	3.42867617e+02
318             	3.42888169e+02
319             	3.42815634e+02
320             	3.42841899e+02
321             	3.42778749e+02
322             	3.42819244e+02
323             	3.42767074e+02
324             	3.42819208e+02
325             	3.42775280e+02
326             	3.42836581e+02
327             	3.42826602e+02
328             	3.42930612e+02
329             	3.42907745e+02
330             	3.42992549e+02
331             	3.42969894e+02
332             	3.43064544e+02
333             	3.43052176e+02
334             	3.43041212e+02
335             	3.43052002e+02
336             	3.43077853e+02
337             	3.43104967e+02
338             	3.43127871e+02
339             	3.43151903e+02
340             	3.43172979e+02
341             	3.43203667e+02
342             	3.43234484e+02
343             	3.43261738e+02
344             	3.43277124e+02
345             	3.43406895e+02
346             	3.43524415e+02
347             	3.43425582e+02
348             	3.43420578e+02
349             	3.43445744e+02
350             	3.43341463e+02
351             	3.43246900e+02
352             	3.43187133e+02
353             	3.43142055e+02
354             	3.43086767e+02
355             	3.43032161e+02
356             	3.42965518e+02
357             	3.43014146e+02
358             	3.43063200e+02
359             	3.42941318e+02
360             	3.42921968e+02
361             	3.42934806e+02
362             	3.42828532e+02
363             	3.42747288e+02
364             	3.42701771e+02
365             	3.42687055e+02
366             	3.42808316e+02
367             	3.42917810e+02
368             	3.42809209e+02
369             	3.42717037e+02
370             	3.42670656e+02
371             	3.42671965e+02
372             	3.42802205e+02
373             	3.42918479e+02
374             	3.42840337e+02
375             	3.42775354e+02
376             	3.42749919e+02
377             	3.42771422e+02
378             	3.42810560e+02
379             	3.42843061e+02
380             	3.42847406e+02
381             	3.42859838e+02
382             	3.42872845e+02
383             	3.42885429e+02
384             	3.42909860e+02
385             	3.42933270e+02
386             	3.42968994e+02
387             	3.43118964e+02
388             	3.43254542e+02
389             	3.43208456e+02
390             	3.43171746e+02
391             	3.43167039e+02
392             	3.43180274e+02
393             	3.43196782e+02
394             	3.43206240e+02
395             	3.43209390e+02
396             	3.43214792e+02
397             	3.43221906e+02
398             	3.43244483e+02
399             	3.43388596e+02
400             	3.43518184e+02
401             	3.43432613e+02
402             	3.43351896e+02
403             	3.43310561e+02
404             	3.43288915e+02
405             	3.43270086e+02
406             	3.43249142e+02
407             	3.43226658e+02
408             	3.43205776e+02
409             	3.43187430e+02
410             	3.43179302e+02
411             	3.43288731e+02
412             	3.43389921e+02
413             	3.43295189e+02
414             	3.43301751e+02
415             	3.43335340e+02
416             	3.43229965e+02
417             	3.43139529e+02
418             	3.43082529e+02
419             	3.43050383e+02
420             	3.43021123e+02
421             	3.42991838e+02
422             	3.42964935e+02
423             	3.42940617e+02
424             	3.42919850e+02
425             	3.42897788e+02
426             	3.42874746e+02
427             	3.42853885e+02
428             	3.42840228e+02
429             	3.42951412e+02
430             	3.43054454e+02
431             	3.42957873e+02
432             	3.42882649e+02
433             	3.42850144e+02
434             	3.42861792e+02
435             	3.42882786e+02
436             	3.42897484e+02
437             	3.42896090e+02
438             	3.42900892e+02
439             	3.42906922e+02
440             	3.42913586e+02
441             	3.43049303e+02
442             	3.43173048e+02
443             	3.43096400e+02
444             	3.43033478e+02
445             	3.43010959e+02
446             	3.43023419e+02
447             	3.43042196e+02
448             	3.43054996e+02
449             	3.43052922e+02
450             	3.43045056e+02
451             	3.43037795e+02
452             	3.43030378e+02
453             	3.43026102e+02
454             	3.43022834e+02
455             	3.43019995e+02
456             	3.43018127e+02
457             	3.43016583e+02
458             	3.43015228e+02
459             	3.43016090e+02
460             	3.43017138e+02
461             	3.43016239e+02
462             	3.43016550e+02
463             	3.43017113e+02
464             	3.43018913e+02
465             	3.43023769e+02
466             	3.43029162e+02
467             	3.43034450e+02
468             	3.43040178e+02
469             	3.43045950e+02
470             	3.43049607e+02
471             	3.43052380e+02
472             	3.43054287e+02
473             	3.43056189e+02
474             	3.43058610e+02
475             	3.43058458e+02
476             	3.43059240e+02
477             	3.43176535e+02
478             	3.43283258e+02
479             	3.43186766e+02
480             	3.43098779e+02
481             	3.43051968e+02
482             	3.43055395e+02
483             	3.43063138e+02
484             	3.43067262e+02
485             	3.43059489e+02
486             	3.43050970e+02
487             	3.43043615e+02
488             	3.43039479e+02
489             	3.43039897e+02
490             	3.43040412e+02
491             	3.43040462e+02
492             	3.43182990e+02
493             	3.43312432e+02
494             	3.43212279e+02
495             	3.43121425e+02
496             	3.43077972e+02
497             	3.43073337e+02
498             	3.43089971e+02
499             	3.43103006e+02
500             	3.43098236e+02
501             	3.43093025e+02
502             	3.43088466e+02
503             	3.43085678e+02
504             	3.43085667e+02
505             	3.43085911e+02
506             	3.43081450e+02
507             	3.43073266e+02
508             	3.43065647e+02
509             	3.43058065e+02
510             	3.43060164e+02
511             	3.43062560e+02
512             	3.43061626e+02
513             	3.43057858e+02
514             	3.43054211e+02
515             	3.43056036e+02
516             	3.43185212e+02
517             	3.43303207e+02
518             	3.43202665e+02
519             	3.43109384e+02
520             	3.43061043e+02
521             	3.43055184e+02
522             	3.43062469e+02
523             	3.43065854e+02
524             	3.43059319e+02
525             	3.43051581e+02
526             	3.43045068e+02
527             	3.43040692e+02
528             	3.43039815e+02
529             	3.43039499e+02
530             	3.43040196e+02
531             	3.43043041e+02
532             	3.43045901e+02
533             	3.43048349e+02
534             	3.43050626e+02
535             	3.43052539e+02
536             	3.43050104e+02
537             	3.43047293e+02
538             	3.43044680e+02
539             	3.43041730e+02
540             	3.43036216e+02
541             	3.43030843e+02
542             	3.43023217e+02
543             	3.43012983e+02
544             	3.43003069e+02
545             	3.42991613e+02
546             	3.42979946e+02
547             	3.42968836e+02
548             	3.42957838e+02
549             	3.42949180e+02
550             	3.42944345e+02
551             	3.42941444e+02
552             	3.42942509e+02
553             	3.42943683e+02
554             	3.42947555e+02
555             	3.42955251e+02
556             	3.42962859e+02
557             	3.42970921e+02
558             	3.42981386e+02
559             	3.42991327e+02
560             	3.43001960e+02
561             	3.43014651e+02
562             	3.43026449e+02
563             	3.43022361e+02
564             	3.43022169e+02
565             	3.43022690e+02
566             	3.43023652e+02
567             	3.43026523e+02
568             	3.43029322e+02
569             	3.43033302e+02
570             	3.43043631e+02
571             	3.43052891e+02
572             	3.43059069e+02
573             	3.43062370e+02
574             	3.43064969e+02
575             	3.43064024e+02
576             	3.43062298e+02
577             	3.43061240e+02
578             	3.43062187e+02
579             	3.43063202e+02
580             	3.43064117e+02
581             	3.43066280e+02
582             	3.43070843e+02
583             	3.43075538e+02
584             	3.43083846e+02
585             	3.43092829e+02
586             	3.43101525e+02
587             	3.43111484e+02
588             	3.43118239e+02
589             	3.43124669e+02
590             	3.43131542e+02
591             	3.43133318e+02
592             	3.43134798e+02
593             	3.43136107e+02
594             	3.43135949e+02
595             	3.43135498e+02
596             	3.43132898e+02
597             	3.43129352e+02
598             	3.43126141e+02
599             	3.43121145e+02
600             	3.43115046e+02
601             	3.43109547e+02
602             	3.43101751e+02
603             	3.43093436e+02
604             	3.43085730e+02
605             	3.43078476e+02
606             	3.43069993e+02
607             	3.43061653e+02
608             	3.43053166e+02
609             	3.43046516e+02
610             	3.43041435e+02
611             	3.43045816e+02
612             	3.43049781e+02
613             	3.43053378e+02
614             	3.43055712e+02
615             	3.43058105e+02
616             	3.43060163e+02
617             	3.43061616e+02
618             	3.43063243e+02
619             	3.43064831e+02
620             	3.43066893e+02
621             	3.43071364e+02
