# Region        : cellZone component_3
# Cells         : 84
# Volume        : 1.30945175e-01
# Time          	volAverage(T)
1               	3.02738273e+02
2               	3.05448959e+02
3               	3.07943413e+02
4               	3.10312859e+02
5               	3.12620654e+02
6               	3.14884677e+02
7               	3.17113115e+02
8               	3.19305987e+02
9               	3.21471788e+02
10              	3.23613869e+02
11              	3.25712478e+02
12              	3.27781740e+02
13              	3.29838274e+02
14              	3.31900048e+02
15              	3.33975092e+02
16              	3.36038451e+02
17              	3.38011939e+02
18              	3.39861924e+02
19              	3.41622829e+02
20              	3.43366331e+02
21              	3.45088268e+02
22              	3.46821518e+02
23              	3.48550805e+02
24              	3.50269821e+02
25              	3.51966782e+02
26              	3.53639386e+02
27              	3.55305252e+02
28              	3.56956547e+02
29              	3.58597069e+02
30              	3.60261568e+02
31              	3.61914478e+02
32              	3.63570862e+02
33              	3.65193891e+02
34              	3.66845700e+02
35              	3.68452398e+02
36              	3.70011112e+02
37              	3.71510658e+02
38              	3.72923418e+02
39              	3.74247733e+02
40              	3.75527917e+02
41              	3.76763505e+02
42              	3.78021682e+02
43              	3.79377143e+02
44              	3.80455438e+02
45              	3.81280554e+02
46              	3.82106114e+02
47              	3.83073686e+02
48              	3.84187334e+02
49              	3.85310060e+02
50              	3.86453272e+02
51              	3.87504973e+02
52              	3.88580304e+02
53              	3.89638727e+02
54              	3.90720741e+02
55              	3.91838432e+02
56              	3.92997209e+02
57              	3.94167031e+02
58              	3.95353130e+02
59              	3.96548458e+02
60              	3.97684339e+02
61              	3.98769069e+02
62              	3.99830172e+02
63              	4.00876938e+02
64              	4.01914808e+02
65              	4.02917531e+02
66              	4.03910680e+02
67              	4.04885309e+02
68              	4.05858524e+02
69              	4.06805800e+02
70              	4.07724140e+02
71              	4.08631978e+02
72              	4.09550187e+02
73              	4.10463337e+02
74              	4.11399776e+02
75              	4.12337032e+02
76              	4.13282719e+02
77              	4.14222459e+02
78              	4.15143338e+02
79              	4.16039027e+02
80              	4.16907692e+02
81              	4.17742704e+02
82              	4.18541621e+02
83              	4.19313261e+02
84              	4.20069688e+02
85              	4.20825605e+02
86              	4.21579303e+02
87              	4.22341153e+02
88              	4.23108282e+02
89              	4.23886996e+02
90              	4.24676319e+02
91              	4.25471419e+02
92              	4.26266177e+02
93              	4.27062448e+02
94              	4.27855683e+02
95              	4.28641974e+02
96              	4.29423920e+02
97              	4.30198897e+02
98              	4.30970614e+02
99              	4.31729050e+02
100             	4.32444363e+02
101             	4.33163408e+02
102             	4.33875908e+02
103             	4.34573661e+02
104             	4.35259398e+02
105             	4.35941972e+02
106             	4.36621178e+02
107             	4.37301034e+02
108             	4.37986632e+02
109             	4.38675408e+02
110             	4.39369509e+02
111             	4.40066395e+02
112             	4.40745391e+02
113             	4.41422255e+02
114             	4.42092395e+02
115             	4.42736022e+02
116             	4.43368351e+02
117             	4.43990280e+02
118             	4.44596025e+02
119             	4.45181419e+02
120             	4.45735161e+02
121             	4.46285184e+02
122             	4.46833773e+02
123             	4.47378971e+02
124             	4.47935153e+02
125             	4.48500170e+02
126             	4.49079759e+02
127             	4.49682657e+02
128             	4.50304303e+02
129             	4.50930106e+02
130             	4.51533902e+02
131             	4.52126082e+02
132             	4.52699045e+02
133             	4.53244411e+02
134             	4.53760844e+02
135             	4.54252876e+02
136             	4.54724899e+02
137             	4.55190828e+02
138             	4.55649690e+02
139             	4.56104232e+02
140             	4.56555941e+02
141             	4.57019318e+02
142             	4.57494243e+02
143             	4.57988203e+02
144             	4.58481327e+02
145             	4.58967213e+02
146             	4.59450342e+02
147             	4.59909720e+02
148             	4.60360785e+02
149             	4.60799566e+02
150             	4.61227389e+02
151             	4.61643991e+02
152             	4.62057884e+02
153             	4.62470709e+02
154             	4.62879752e+02
155             	4.63284807e+02
156             	4.63685069e+02
157             	4.64087765e+02
158             	4.64491714e+02
159             	4.64891946e+02
160             	4.65287544e+02
161             	4.65683491e+02
162             	4.66074661e+02
163             	4.66476401e+02
164             	4.66882763e+02
165             	4.67291025e+02
166             	4.67697197e+02
167             	4.68096574e+02
168             	4.68484245e+02
169             	4.68853168e+02
170             	4.69199419e+02
171             	4.69531764e+02
172             	4.69852461e+02
173             	4.70167864e+02
174             	4.70481724e+02
175             	4.70802170e+02
176             	4.71128411e+02
177             	4.71465388e+02
178             	4.71808232e+02
179             	4.72150391e+02
180             	4.72487096e+02
181             	4.72818647e+02
182             	4.73136863e+02
183             	4.73454226e+02
184             	4.73768559e+02
185             	4.74079744e+02
186             	4.74393508e+02
187             	4.74705973e+02
188             	4.75016852e+02
189             	4.75325405e+02
190             	4.75628627e+02
191             	4.75914543e+02
192             	4.76191143e+02
193             	4.76458222e+02
194             	4.76717755e+02
195             	4.76968171e+02
196             	4.77212188e+02
197             	4.77452478e+02
198             	4.77687235e+02
199             	4.77938486e+02
200             	4.78201021e+02
201             	4.78469505e+02
202             	4.78746383e+02
203             	4.79028892e+02
204             	4.79302506e+02
205             	4.79568967e+02
206             	4.79830822e+02
207             	4.80066820e+02
208             	4.80288730e+02
209             	4.80502644e+02
210             	4.80708742e+02
211             	4.80911980e+02
212             	4.81116402e+02
213             	4.81325506e+02
214             	4.81537685e+02
215             	4.81754236e+02
216             	4.81975576e+02
217             	4.82191529e+02
218             	4.82405770e+02
219             	4.82621699e+02
220             	4.82841541e+02
221             	4.83061056e+02
222             	4.83278175e+02
223             	4.83484402e+02
224             	4.83677045e+02
225             	4.83861626e+02
226             	4.84040299e+02
227             	4.84216172e+02
228             	4.84383123e+02
229             	4.84556137e+02
230             	4.84729952e+02
231             	4.84919169e+02
232             	4.85115955e+02
233             	4.85318779e+02
234             	4.85524447e+02
235             	4.85735246e+02
236             	4.85947362e+02
237             	4.86156426e+02
238             	4.86355843e+02
239             	4.86547711e+02
240             	4.86727431e+02
241             	4.86901508e+02
242             	4.87068501e+02
243             	4.87228993e+02
244             	4.87388053e+02
245             	4.87541839e+02
246             	4.87691366e+02
247             	4.87836513e+02
248             	4.87980455e+02
249             	4.88123646e+02
250             	4.88269399e+02
251             	4.88419234e+02
252             	4.88577296e+02
253             	4.88745944e+02
254             	4.88925140e+02
255             	4.89104829e+02
256             	4.89292654e+02
257             	4.89484126e+02
258             	4.89673040e+02
259             	4.89854034e+02
260             	4.90031642e+02
261             	4.90191623e+02
262             	4.90343132e+02
263             	4.90485715e+02
264             	4.90624300e+02
265             	4.90765638e+02
266             	4.90909122e+02
267             	4.91060607e+02
268             	4.91223985e+02
269             	4.91396604e+02
270             	4.91573420e+02
271             	4.91746968e+02
272             	4.91908057e+02
273             	4.92052773e+02
274             	4.92179289e+02
275             	4.92288046e+02
276             	4.92383804e+02
277             	4.92472922e+02
278             	4.92558568e+02
279             	4.92646679e+02
280             	4.92738282e+02
281             	4.92831489e+02
282             	4.92928237e+02
283             	4.93026573e+02
284             	4.93124934e+02
285             	4.93225930e+02
286             	4.93329092e+02
287             	4.93430305e+02
288             	4.93532672e+02
289             	4.93636850e+02
290             	4.93743833e+02
291             	4.93852533e+02
292             	4.93962192e+02
293             	4.94078974e+02
294             	4.94196967e+02
295             	4.94314866e+02
296             	4.94431509e+02
297             	4.94542701e+02
298             	4.94653549e+02
299             	4.94760003e+02
300             	4.94863653e+02
301             	4.94968496e+02
302             	4.95068678e+02
303             	4.95164670e+02
304             	4.95257526e+02
305             	4.95346080e+02
306             	4.95431359e+02
307             	4.95516427e+02
308             	4.95598998e+02
309             	4.95680947e+02
310             	4.95760760e+02
311             	4.95838744e+02
312             	4.95916379e+02
313             	4.95996697e+02
314             	4.96080814e+02
315             	4.96169469e+02
316             	4.96265012e+02
317             	4.96365014e+02
318             	4.96471102e+02
319             	4.96583330e+02
320             	4.96697313e+02
321             	4.96815237e+02
322             	4.96931797e+02
323             	4.97046973e+02
324             	4.97154940e+02
325             	4.97258269e+02
326             	4.97347460e+02
327             	4.97424496e+02
328             	4.97490753e+02
329             	4.97549014e+02
330             	4.97602454e+02
331             	4.97655366e+02
332             	4.97713252e+02
333             	4.97778806e+02
334             	4.97854757e+02
335             	4.97939184e+02
336             	4.98033157e+02
337             	4.98134101e+02
338             	4.98238378e+02
339             	4.98342052e+02
340             	4.98438959e+02
341             	4.98525603e+02
342             	4.98605471e+02
343             	4.98677707e+02
344             	4.98741337e+02
345             	4.98800254e+02
346             	4.98855201e+02
347             	4.98905745e+02
348             	4.98953096e+02
349             	4.98997906e+02
350             	4.99042933e+02
351             	4.99089451e+02
352             	4.99138051e+02
353             	4.99190609e+02
354             	4.99247495e+02
355             	4.99310330e+02
356             	4.99378050e+02
357             	4.99446746e+02
358             	4.99514314e+02
359             	4.99583994e+02
360             	4.99653684e+02
361             	4.99720822e+02
362             	4.99782057e+02
363             	4.99838381e+02
364             	4.99893405e+02
365             	4.99947828e+02
366             	4.99999632e+02
367             	5.00049793e+02
368             	5.00096293e+02
369             	5.00142750e+02
370             	5.00187970e+02
371             	5.00229777e+02
372             	5.00271433e+02
373             	5.00313971e+02
374             	5.00356842e+02
375             	5.00401225e+02
376             	5.00450216e+02
377             	5.00505906e+02
378             	5.00567454e+02
379             	5.00632862e+02
380             	5.00699320e+02
381             	5.00765443e+02
382             	5.00828016e+02
383             	5.00885522e+02
384             	5.00937692e+02
385             	5.00984115e+02
386             	5.01024487e+02
387             	5.01061208e+02
388             	5.01095207e+02
389             	5.01126911e+02
390             	5.01157102e+02
391             	5.01186945e+02
392             	5.01218689e+02
393             	5.01249355e+02
394             	5.01278503e+02
395             	5.01305757e+02
396             	5.01329742e+02
397             	5.01352770e+02
398             	5.01377202e+02
399             	5.01400721e+02
400             	5.01430024e+02
401             	5.01463386e+02
402             	5.01504222e+02
403             	5.01550855e+02
404             	5.01597203e+02
405             	5.01639453e+02
406             	5.01678179e+02
407             	5.01715395e+02
408             	5.01749389e+02
409             	5.01777451e+02
410             	5.01805859e+02
411             	5.01833852e+02
412             	5.01865101e+02
413             	5.01898397e+02
414             	5.01934412e+02
415             	5.01969064e+02
416             	5.01999336e+02
417             	5.02022518e+02
418             	5.02041265e+02
419             	5.02057106e+02
420             	5.02071223e+02
421             	5.02085413e+02
422             	5.02101744e+02
423             	5.02121353e+02
424             	5.02145027e+02
425             	5.02171820e+02
426             	5.02199154e+02
427             	5.02225565e+02
428             	5.02250466e+02
429             	5.02273638e+02
430             	5.02293898e+02
431             	5.02315985e+02
432             	5.02341210e+02
433             	5.02372961e+02
434             	5.02412234e+02
435             	5.02459193e+02
436             	5.02513385e+02
437             	5.02568726e+02
438             	5.02620985e+02
439             	5.02665898e+02
440             	5.02702128e+02
441             	5.02732624e+02
442             	5.02757924e+02
443             	5.02776907e+02
444             	5.02789885e+02
445             	5.02800303e+02
446             	5.02812598e+02
447             	5.02829180e+02
448             	5.02853400e+02
449             	5.02886539e+02
450             	5.02929010e+02
451             	5.02980498e+02
452             	5.03038457e+02
453             	5.03098167e+02
454             	5.03153866e+02
455             	5.03210788e+02
456             	5.03264255e+02
457             	5.03311271e+02
458             	5.03349815e+02
459             	5.03384114e+02
460             	5.03413566e+02
461             	5.03437640e+02
462             	5.03453842e+02
463             	5.03463224e+02
464             	5.03464962e+02
465             	5.03462042e+02
466             	5.03454172e+02
467             	5.03442169e+02
468             	5.03428334e+02
469             	5.03415090e+02
470             	5.03406207e+02
471             	5.03400463e+02
472             	5.03400991e+02
473             	5.03404695e+02
474             	5.03415286e+02
475             	5.03427275e+02
476             	5.03446303e+02
477             	5.03470232e+02
478             	5.03496267e+02
479             	5.03525110e+02
480             	5.03551118e+02
481             	5.03568773e+02
482             	5.03580450e+02
483             	5.03586609e+02
484             	5.03589701e+02
485             	5.03591815e+02
486             	5.03592769e+02
487             	5.03593979e+02
488             	5.03596015e+02
489             	5.03599186e+02
490             	5.03603555e+02
491             	5.03608468e+02
492             	5.03613235e+02
493             	5.03618853e+02
494             	5.03626023e+02
495             	5.03630470e+02
496             	5.03636122e+02
497             	5.03644393e+02
498             	5.03656589e+02
499             	5.03670246e+02
500             	5.03687667e+02
501             	5.03717202e+02
502             	5.03755792e+02
503             	5.03799966e+02
504             	5.03843765e+02
505             	5.03880794e+02
506             	5.03905283e+02
507             	5.03915480e+02
508             	5.03909095e+02
509             	5.03891517e+02
510             	5.03868993e+02
511             	5.03847259e+02
512             	5.03831298e+02
513             	5.03824729e+02
514             	5.03830188e+02
515             	5.03845973e+02
516             	5.03867098e+02
517             	5.03889677e+02
518             	5.03910021e+02
519             	5.03926040e+02
520             	5.03937486e+02
521             	5.03944339e+02
522             	5.03945844e+02
523             	5.03941869e+02
524             	5.03934299e+02
525             	5.03925278e+02
526             	5.03916245e+02
527             	5.03905651e+02
528             	5.03900941e+02
529             	5.03899383e+02
530             	5.03899415e+02
531             	5.03899960e+02
532             	5.03900428e+02
533             	5.03898638e+02
534             	5.03895930e+02
535             	5.03895928e+02
536             	5.03897836e+02
537             	5.03902986e+02
538             	5.03910512e+02
539             	5.03920788e+02
540             	5.03932374e+02
541             	5.03943038e+02
542             	5.03951187e+02
543             	5.03956816e+02
544             	5.03956940e+02
545             	5.03953965e+02
546             	5.03951099e+02
547             	5.03951586e+02
548             	5.03956822e+02
549             	5.03968117e+02
550             	5.03986116e+02
551             	5.04009462e+02
552             	5.04037056e+02
553             	5.04066333e+02
554             	5.04094717e+02
555             	5.04120266e+02
556             	5.04142049e+02
557             	5.04158892e+02
558             	5.04169974e+02
559             	5.04175135e+02
560             	5.04174038e+02
561             	5.04168201e+02
562             	5.04159663e+02
563             	5.04150164e+02
564             	5.04142030e+02
565             	5.04137777e+02
566             	5.04139351e+02
567             	5.04147722e+02
568             	5.04162534e+02
569             	5.04182838e+02
570             	5.04207503e+02
571             	5.04233778e+02
572             	5.04259784e+02
573             	5.04283778e+02
574             	5.04304365e+02
575             	5.04320598e+02
576             	5.04332105e+02
577             	5.04338875e+02
578             	5.04341219e+02
579             	5.04339787e+02
580             	5.04335575e+02
581             	5.04329976e+02
582             	5.04323860e+02
583             	5.04317715e+02
584             	5.04312138e+02
585             	5.04307594e+02
586             	5.04304571e+02
587             	5.04303234e+02
588             	5.04303415e+02
589             	5.04304912e+02
590             	5.04307638e+02
591             	5.04311407e+02
592             	5.04315956e+02
593             	5.04320869e+02
594             	5.04325671e+02
595             	5.04329869e+02
596             	5.04333298e+02
597             	5.04336113e+02
598             	5.04338110e+02
599             	5.04339047e+02
600             	5.04338960e+02
601             	5.04338011e+02
602             	5.04336543e+02
603             	5.04334956e+02
604             	5.04333687e+02
605             	5.04333064e+02
606             	5.04333504e+02
607             	5.04335438e+02
608             	5.04339252e+02
609             	5.04345170e+02
610             	5.04353227e+02
611             	5.04363401e+02
612             	5.04375732e+02
613             	5.04390132e+02
614             	5.04406253e+02
615             	5.04423405e+02
616             	5.04440656e+02
617             	5.04457129e+02
618             	5.04472161e+02
619             	5.04484988e+02
620             	5.04494900e+02
621             	5.04501576e+02
