# Region        : cellZone component_3
# Cells         : 52
# Volume        : 5.24386020e-02
# Time          	volAverage(T)
1               	3.07788432e+02
2               	3.15335123e+02
3               	3.21516148e+02
4               	3.26647229e+02
5               	3.31130613e+02
6               	3.35168187e+02
7               	3.38852196e+02
8               	3.42245669e+02
9               	3.45394410e+02
10              	3.48329181e+02
11              	3.51083804e+02
12              	3.53686466e+02
13              	3.56167156e+02
14              	3.58549503e+02
15              	3.60842768e+02
16              	3.63054145e+02
17              	3.65180311e+02
18              	3.67233915e+02
19              	3.69200356e+02
20              	3.71083772e+02
21              	3.72870472e+02
22              	3.74578699e+02
23              	3.76241965e+02
24              	3.77953100e+02
25              	3.79656570e+02
26              	3.81415528e+02
27              	3.83144564e+02
28              	3.84785034e+02
29              	3.86331082e+02
30              	3.87738916e+02
31              	3.88997636e+02
32              	3.90114812e+02
33              	3.91112964e+02
34              	3.92023965e+02
35              	3.92876410e+02
36              	3.93701988e+02
37              	3.94526128e+02
38              	3.95362142e+02
39              	3.96238494e+02
40              	3.97169065e+02
41              	3.98162259e+02
42              	3.99209795e+02
43              	4.00279793e+02
44              	4.01315452e+02
45              	4.02296462e+02
46              	4.03196946e+02
47              	4.04005770e+02
48              	4.04732575e+02
49              	4.05376054e+02
50              	4.05948255e+02
51              	4.06452948e+02
52              	4.06936890e+02
53              	4.07426430e+02
54              	4.07934805e+02
55              	4.08505846e+02
56              	4.09173008e+02
57              	4.09877926e+02
58              	4.10574306e+02
59              	4.11232670e+02
60              	4.11784997e+02
61              	4.12217411e+02
62              	4.12534194e+02
63              	4.12769960e+02
64              	4.12962097e+02
65              	4.13123995e+02
66              	4.13272313e+02
67              	4.13427546e+02
68              	4.13606712e+02
69              	4.13832362e+02
70              	4.14136621e+02
71              	4.14557910e+02
72              	4.15013674e+02
73              	4.15497734e+02
74              	4.15953858e+02
75              	4.16325970e+02
76              	4.16589992e+02
77              	4.16742102e+02
78              	4.16818060e+02
79              	4.16835836e+02
80              	4.16815228e+02
81              	4.16773292e+02
82              	4.16726798e+02
83              	4.16690781e+02
84              	4.16685215e+02
85              	4.16702630e+02
86              	4.16762530e+02
87              	4.16885104e+02
88              	4.17091907e+02
89              	4.17362032e+02
90              	4.17665820e+02
91              	4.17956018e+02
92              	4.18199689e+02
93              	4.18373473e+02
94              	4.18478318e+02
95              	4.18514014e+02
96              	4.18477824e+02
97              	4.18412804e+02
98              	4.18325677e+02
99              	4.18236450e+02
100             	4.18168929e+02
101             	4.18141556e+02
102             	4.18182720e+02
103             	4.18303771e+02
104             	4.18488800e+02
105             	4.18689884e+02
106             	4.18885475e+02
107             	4.19034559e+02
108             	4.19121049e+02
109             	4.19151314e+02
110             	4.19122294e+02
111             	4.19052325e+02
112             	4.18967146e+02
113             	4.18874443e+02
114             	4.18788785e+02
115             	4.18733507e+02
116             	4.18730923e+02
117             	4.18828164e+02
118             	4.19037976e+02
119             	4.19299464e+02
120             	4.19596180e+02
121             	4.19881047e+02
122             	4.20095834e+02
123             	4.20220099e+02
124             	4.20256139e+02
125             	4.20206787e+02
126             	4.20093573e+02
127             	4.19940965e+02
128             	4.19776203e+02
129             	4.19620217e+02
130             	4.19488679e+02
131             	4.19406708e+02
132             	4.19383499e+02
133             	4.19447108e+02
134             	4.19551653e+02
135             	4.19692378e+02
136             	4.19826637e+02
137             	4.19922785e+02
138             	4.19952863e+02
139             	4.19915149e+02
140             	4.19814816e+02
141             	4.19655195e+02
142             	4.19468998e+02
143             	4.19276108e+02
144             	4.19092358e+02
145             	4.18937582e+02
146             	4.18817539e+02
147             	4.18750128e+02
148             	4.18737201e+02
149             	4.18805841e+02
150             	4.18980444e+02
151             	4.19254789e+02
152             	4.19608656e+02
153             	4.19971015e+02
154             	4.20318821e+02
155             	4.20593795e+02
156             	4.20763000e+02
157             	4.20818963e+02
158             	4.20762034e+02
159             	4.20645240e+02
160             	4.20478383e+02
161             	4.20304419e+02
162             	4.20146324e+02
163             	4.20027502e+02
164             	4.19958356e+02
165             	4.19946769e+02
166             	4.19987679e+02
167             	4.20083787e+02
168             	4.20222202e+02
169             	4.20400174e+02
170             	4.20604516e+02
171             	4.20823969e+02
172             	4.21009228e+02
173             	4.21170790e+02
174             	4.21279306e+02
175             	4.21318917e+02
176             	4.21289503e+02
177             	4.21199208e+02
178             	4.21071803e+02
179             	4.20924503e+02
180             	4.20785655e+02
181             	4.20670060e+02
182             	4.20579877e+02
183             	4.20514414e+02
184             	4.20470703e+02
185             	4.20441516e+02
186             	4.20426225e+02
187             	4.20410182e+02
188             	4.20386467e+02
189             	4.20362067e+02
190             	4.20350489e+02
191             	4.20376917e+02
192             	4.20440670e+02
193             	4.20560371e+02
194             	4.20708880e+02
195             	4.20871767e+02
196             	4.21016538e+02
197             	4.21105307e+02
198             	4.21130531e+02
199             	4.21102915e+02
200             	4.21030182e+02
201             	4.20923770e+02
202             	4.20804702e+02
203             	4.20674007e+02
204             	4.20549530e+02
205             	4.20432264e+02
206             	4.20337433e+02
207             	4.20264902e+02
208             	4.20211519e+02
209             	4.20166758e+02
210             	4.20127372e+02
211             	4.20081104e+02
212             	4.20019849e+02
213             	4.19952101e+02
214             	4.19878260e+02
215             	4.19807796e+02
216             	4.19746753e+02
217             	4.19699134e+02
218             	4.19663874e+02
219             	4.19641977e+02
220             	4.19630537e+02
221             	4.19622494e+02
222             	4.19623723e+02
223             	4.19626523e+02
224             	4.19631485e+02
225             	4.19622082e+02
226             	4.19598172e+02
227             	4.19558688e+02
228             	4.19510843e+02
229             	4.19461396e+02
230             	4.19413379e+02
231             	4.19367793e+02
232             	4.19324405e+02
233             	4.19286274e+02
234             	4.19253517e+02
235             	4.19224661e+02
236             	4.19196657e+02
237             	4.19166487e+02
238             	4.19141941e+02
239             	4.19124760e+02
240             	4.19113905e+02
241             	4.19110527e+02
242             	4.19116115e+02
243             	4.19131333e+02
244             	4.19156641e+02
245             	4.19189981e+02
246             	4.19235150e+02
247             	4.19287662e+02
248             	4.19345247e+02
249             	4.19398539e+02
250             	4.19448018e+02
251             	4.19493080e+02
252             	4.19530955e+02
253             	4.19558200e+02
254             	4.19569708e+02
255             	4.19565076e+02
256             	4.19541806e+02
257             	4.19502913e+02
258             	4.19457740e+02
259             	4.19412457e+02
260             	4.19371335e+02
261             	4.19333539e+02
262             	4.19310724e+02
263             	4.19298302e+02
264             	4.19305410e+02
265             	4.19330312e+02
266             	4.19368870e+02
267             	4.19419130e+02
268             	4.19478897e+02
269             	4.19542833e+02
270             	4.19607518e+02
271             	4.19668570e+02
272             	4.19722274e+02
273             	4.19768686e+02
274             	4.19808730e+02
275             	4.19844496e+02
276             	4.19879496e+02
277             	4.19913177e+02
278             	4.19943401e+02
279             	4.19969786e+02
280             	4.19991640e+02
281             	4.20008492e+02
282             	4.20017282e+02
283             	4.20017413e+02
284             	4.20008286e+02
285             	4.19993763e+02
286             	4.19974212e+02
287             	4.19951456e+02
288             	4.19928647e+02
289             	4.19908765e+02
290             	4.19892458e+02
291             	4.19880211e+02
292             	4.19870652e+02
293             	4.19863382e+02
294             	4.19857705e+02
295             	4.19851931e+02
296             	4.19843569e+02
297             	4.19833379e+02
298             	4.19821852e+02
299             	4.19810350e+02
300             	4.19800351e+02
301             	4.19795229e+02
302             	4.19795591e+02
303             	4.19800294e+02
304             	4.19809181e+02
305             	4.19818081e+02
306             	4.19825134e+02
307             	4.19828191e+02
308             	4.19826976e+02
309             	4.19821278e+02
310             	4.19812661e+02
311             	4.19804598e+02
312             	4.19800740e+02
313             	4.19804144e+02
314             	4.19815722e+02
315             	4.19835408e+02
316             	4.19861245e+02
317             	4.19890626e+02
318             	4.19921323e+02
319             	4.19950279e+02
320             	4.19975555e+02
321             	4.19995347e+02
322             	4.20010621e+02
323             	4.20021134e+02
324             	4.20028021e+02
325             	4.20032869e+02
326             	4.20037175e+02
327             	4.20041857e+02
328             	4.20047594e+02
329             	4.20054279e+02
330             	4.20061268e+02
331             	4.20067619e+02
332             	4.20071459e+02
333             	4.20071535e+02
334             	4.20067471e+02
335             	4.20059902e+02
336             	4.20049851e+02
337             	4.20039516e+02
338             	4.20031091e+02
339             	4.20026492e+02
340             	4.20026946e+02
341             	4.20031778e+02
342             	4.20041179e+02
343             	4.20054567e+02
344             	4.20070512e+02
345             	4.20087353e+02
346             	4.20103410e+02
347             	4.20117471e+02
348             	4.20128714e+02
349             	4.20137009e+02
350             	4.20142842e+02
351             	4.20147042e+02
352             	4.20150532e+02
353             	4.20153937e+02
354             	4.20158460e+02
355             	4.20164739e+02
356             	4.20172757e+02
357             	4.20181925e+02
358             	4.20191164e+02
359             	4.20199553e+02
360             	4.20206828e+02
361             	4.20212180e+02
362             	4.20215581e+02
363             	4.20217302e+02
364             	4.20217916e+02
365             	4.20218420e+02
366             	4.20219987e+02
367             	4.20223717e+02
368             	4.20230190e+02
369             	4.20239573e+02
370             	4.20251242e+02
371             	4.20263325e+02
372             	4.20273787e+02
373             	4.20281356e+02
374             	4.20284980e+02
375             	4.20284131e+02
376             	4.20279201e+02
377             	4.20271823e+02
378             	4.20263866e+02
379             	4.20257383e+02
380             	4.20253364e+02
381             	4.20252797e+02
382             	4.20256168e+02
383             	4.20263431e+02
384             	4.20274383e+02
385             	4.20288492e+02
386             	4.20305099e+02
387             	4.20322591e+02
388             	4.20337894e+02
389             	4.20349894e+02
390             	4.20357564e+02
391             	4.20360231e+02
392             	4.20357708e+02
393             	4.20351364e+02
394             	4.20343872e+02
395             	4.20336326e+02
396             	4.20330413e+02
397             	4.20327042e+02
398             	4.20326467e+02
399             	4.20328767e+02
400             	4.20333693e+02
401             	4.20340883e+02
402             	4.20349337e+02
403             	4.20359132e+02
404             	4.20368343e+02
405             	4.20375061e+02
406             	4.20378999e+02
407             	4.20379678e+02
408             	4.20377179e+02
409             	4.20372215e+02
410             	4.20365041e+02
411             	4.20355513e+02
412             	4.20343312e+02
413             	4.20330807e+02
414             	4.20321017e+02
415             	4.20314346e+02
416             	4.20311378e+02
417             	4.20313046e+02
418             	4.20319753e+02
419             	4.20329917e+02
420             	4.20340804e+02
421             	4.20348562e+02
422             	4.20352686e+02
423             	4.20351874e+02
424             	4.20344464e+02
425             	4.20330573e+02
426             	4.20314036e+02
427             	4.20299718e+02
428             	4.20290023e+02
429             	4.20286638e+02
430             	4.20291191e+02
431             	4.20305842e+02
432             	4.20325752e+02
433             	4.20342020e+02
434             	4.20354114e+02
435             	4.20359241e+02
436             	4.20355267e+02
437             	4.20341209e+02
438             	4.20321006e+02
439             	4.20298829e+02
440             	4.20279133e+02
441             	4.20266712e+02
442             	4.20261517e+02
443             	4.20267877e+02
444             	4.20287138e+02
445             	4.20314158e+02
446             	4.20341660e+02
447             	4.20366979e+02
448             	4.20384937e+02
449             	4.20390684e+02
450             	4.20382836e+02
451             	4.20368140e+02
452             	4.20350909e+02
453             	4.20335933e+02
454             	4.20328503e+02
455             	4.20326516e+02
456             	4.20334614e+02
457             	4.20351384e+02
458             	4.20370579e+02
459             	4.20390630e+02
460             	4.20408977e+02
461             	4.20423613e+02
462             	4.20431170e+02
463             	4.20431805e+02
464             	4.20428543e+02
465             	4.20421782e+02
466             	4.20413022e+02
467             	4.20403250e+02
468             	4.20395271e+02
469             	4.20392687e+02
470             	4.20398914e+02
471             	4.20411378e+02
472             	4.20427065e+02
473             	4.20447071e+02
474             	4.20469029e+02
475             	4.20489865e+02
476             	4.20505857e+02
477             	4.20513202e+02
478             	4.20512211e+02
479             	4.20504407e+02
480             	4.20491492e+02
481             	4.20475894e+02
482             	4.20459473e+02
483             	4.20443660e+02
484             	4.20429501e+02
485             	4.20418231e+02
486             	4.20411362e+02
487             	4.20408695e+02
488             	4.20411272e+02
489             	4.20418604e+02
490             	4.20428121e+02
491             	4.20436583e+02
492             	4.20442051e+02
493             	4.20442114e+02
494             	4.20434643e+02
495             	4.20420186e+02
496             	4.20400727e+02
497             	4.20378657e+02
498             	4.20355172e+02
499             	4.20333664e+02
500             	4.20315391e+02
501             	4.20300849e+02
502             	4.20290160e+02
503             	4.20282999e+02
504             	4.20279378e+02
505             	4.20278121e+02
506             	4.20278582e+02
507             	4.20280168e+02
508             	4.20283487e+02
509             	4.20287878e+02
510             	4.20293412e+02
511             	4.20300826e+02
512             	4.20311369e+02
513             	4.20325128e+02
514             	4.20340473e+02
515             	4.20357962e+02
516             	4.20377549e+02
517             	4.20398784e+02
518             	4.20420608e+02
519             	4.20442146e+02
520             	4.20462236e+02
521             	4.20479130e+02
522             	4.20492204e+02
523             	4.20500626e+02
524             	4.20504841e+02
525             	4.20506185e+02
526             	4.20505371e+02
527             	4.20504108e+02
528             	4.20505365e+02
529             	4.20510363e+02
530             	4.20520143e+02
531             	4.20536476e+02
532             	4.20559399e+02
533             	4.20586017e+02
534             	4.20611919e+02
535             	4.20633114e+02
536             	4.20644907e+02
537             	4.20645034e+02
538             	4.20633873e+02
539             	4.20616392e+02
540             	4.20596329e+02
541             	4.20575692e+02
542             	4.20556561e+02
543             	4.20541774e+02
544             	4.20532266e+02
545             	4.20528507e+02
546             	4.20528445e+02
547             	4.20530484e+02
548             	4.20533374e+02
549             	4.20537703e+02
550             	4.20542245e+02
551             	4.20545217e+02
552             	4.20545518e+02
553             	4.20542098e+02
554             	4.20536070e+02
555             	4.20525105e+02
556             	4.20509728e+02
557             	4.20490054e+02
558             	4.20467710e+02
559             	4.20443588e+02
560             	4.20418312e+02
561             	4.20396339e+02
562             	4.20381110e+02
563             	4.20378500e+02
564             	4.20386726e+02
565             	4.20399765e+02
566             	4.20417118e+02
567             	4.20436306e+02
568             	4.20454768e+02
569             	4.20469171e+02
570             	4.20477751e+02
571             	4.20477140e+02
572             	4.20468087e+02
573             	4.20454929e+02
574             	4.20439704e+02
575             	4.20425738e+02
576             	4.20414627e+02
577             	4.20408693e+02
578             	4.20409904e+02
579             	4.20418655e+02
580             	4.20435413e+02
581             	4.20457173e+02
582             	4.20480790e+02
583             	4.20501395e+02
584             	4.20515955e+02
585             	4.20523154e+02
586             	4.20522117e+02
587             	4.20513708e+02
588             	4.20500136e+02
589             	4.20484617e+02
590             	4.20472089e+02
591             	4.20465046e+02
592             	4.20465525e+02
593             	4.20474306e+02
594             	4.20490594e+02
595             	4.20512657e+02
596             	4.20538729e+02
597             	4.20566636e+02
598             	4.20595056e+02
599             	4.20615598e+02
600             	4.20625219e+02
601             	4.20623510e+02
602             	4.20610214e+02
603             	4.20587809e+02
604             	4.20560348e+02
605             	4.20530625e+02
606             	4.20502956e+02
607             	4.20481756e+02
608             	4.20468226e+02
609             	4.20463807e+02
610             	4.20468474e+02
611             	4.20482404e+02
612             	4.20502776e+02
613             	4.20528337e+02
614             	4.20556959e+02
615             	4.20587536e+02
616             	4.20615759e+02
617             	4.20638985e+02
618             	4.20655466e+02
619             	4.20663650e+02
620             	4.20663329e+02
621             	4.20655873e+02
