# Region        : cellZone component_1
# Cells         : 183
# Volume        : 3.73993511e-01
# Time          	volAverage(T)
1               	3.00417268e+02
2               	3.00829665e+02
3               	3.01192256e+02
4               	3.01516257e+02
5               	3.01823472e+02
6               	3.02121597e+02
7               	3.02412605e+02
8               	3.02696893e+02
9               	3.02974904e+02
10              	3.03248708e+02
11              	3.03512431e+02
12              	3.03766301e+02
13              	3.04007363e+02
14              	3.04245573e+02
15              	3.04472926e+02
16              	3.04693734e+02
17              	3.04908301e+02
18              	3.05119200e+02
19              	3.05323575e+02
20              	3.05518668e+02
21              	3.05713465e+02
22              	3.05901447e+02
23              	3.06081497e+02
24              	3.06239003e+02
25              	3.06372702e+02
26              	3.06493491e+02
27              	3.06614039e+02
28              	3.06748351e+02
29              	3.06895398e+02
30              	3.07037040e+02
31              	3.07176568e+02
32              	3.07308005e+02
33              	3.07448487e+02
34              	3.07579021e+02
35              	3.07689768e+02
36              	3.07789965e+02
37              	3.07875397e+02
38              	3.07953777e+02
39              	3.08028305e+02
40              	3.08103183e+02
41              	3.08181525e+02
42              	3.08265990e+02
43              	3.08346647e+02
44              	3.08425952e+02
45              	3.08494016e+02
46              	3.08561684e+02
47              	3.08623732e+02
48              	3.08688288e+02
49              	3.08750061e+02
50              	3.08814425e+02
51              	3.08885469e+02
52              	3.08946004e+02
53              	3.09019224e+02
54              	3.09088321e+02
55              	3.09150319e+02
56              	3.09200071e+02
57              	3.09240036e+02
58              	3.09268481e+02
59              	3.09308402e+02
60              	3.09360244e+02
61              	3.09406091e+02
62              	3.09454149e+02
63              	3.09497705e+02
64              	3.09535861e+02
65              	3.09603703e+02
66              	3.09657490e+02
67              	3.09680672e+02
68              	3.09680489e+02
69              	3.09666506e+02
70              	3.09660737e+02
71              	3.09674953e+02
72              	3.09715636e+02
73              	3.09764563e+02
74              	3.09800324e+02
75              	3.09850810e+02
76              	3.09884284e+02
77              	3.09905730e+02
78              	3.09924340e+02
79              	3.09942317e+02
80              	3.09963072e+02
81              	3.09989656e+02
82              	3.10029999e+02
83              	3.10083631e+02
84              	3.10134513e+02
85              	3.10185145e+02
86              	3.10228953e+02
87              	3.10268080e+02
88              	3.10309139e+02
89              	3.10356718e+02
90              	3.10362694e+02
91              	3.10330099e+02
92              	3.10282089e+02
93              	3.10262766e+02
94              	3.10272938e+02
95              	3.10294244e+02
96              	3.10330528e+02
97              	3.10377971e+02
98              	3.10421883e+02
99              	3.10469542e+02
100             	3.10514619e+02
101             	3.10562929e+02
102             	3.10632310e+02
103             	3.10676822e+02
104             	3.10689570e+02
105             	3.10683717e+02
106             	3.10657726e+02
107             	3.10627570e+02
108             	3.10607504e+02
109             	3.10624434e+02
110             	3.10654042e+02
111             	3.10694312e+02
112             	3.10715268e+02
113             	3.10747288e+02
114             	3.10765306e+02
115             	3.10783876e+02
116             	3.10800106e+02
117             	3.10807929e+02
118             	3.10806670e+02
119             	3.10796088e+02
120             	3.10789016e+02
121             	3.10790645e+02
122             	3.10798834e+02
123             	3.10808194e+02
124             	3.10818266e+02
125             	3.10827848e+02
126             	3.10834335e+02
127             	3.10838704e+02
128             	3.10837855e+02
129             	3.10833894e+02
130             	3.10824348e+02
131             	3.10810426e+02
132             	3.10803809e+02
133             	3.10812839e+02
134             	3.10837583e+02
135             	3.10861077e+02
136             	3.10885083e+02
137             	3.10907561e+02
138             	3.10931286e+02
139             	3.10969880e+02
140             	3.11002899e+02
141             	3.11014105e+02
142             	3.11001734e+02
143             	3.10979516e+02
144             	3.10955225e+02
145             	3.10937158e+02
146             	3.10938874e+02
147             	3.10951302e+02
148             	3.10967503e+02
149             	3.10979779e+02
150             	3.10988641e+02
151             	3.11001457e+02
152             	3.11019415e+02
153             	3.11033202e+02
154             	3.11029249e+02
155             	3.11009789e+02
156             	3.10982590e+02
157             	3.10978477e+02
158             	3.10996130e+02
159             	3.11022251e+02
160             	3.11044868e+02
161             	3.11063757e+02
162             	3.11081964e+02
163             	3.11103286e+02
164             	3.11140206e+02
165             	3.11162912e+02
166             	3.11161092e+02
167             	3.11139861e+02
168             	3.11110782e+02
169             	3.11079540e+02
170             	3.11054470e+02
171             	3.11042246e+02
172             	3.11042082e+02
173             	3.11047534e+02
174             	3.11055499e+02
175             	3.11063095e+02
176             	3.11070620e+02
177             	3.11080706e+02
178             	3.11092951e+02
179             	3.11093661e+02
180             	3.11076637e+02
181             	3.11051441e+02
182             	3.11028967e+02
183             	3.11019184e+02
184             	3.11026052e+02
185             	3.11045598e+02
186             	3.11071384e+02
187             	3.11096465e+02
188             	3.11119693e+02
189             	3.11139622e+02
190             	3.11157056e+02
191             	3.11186396e+02
192             	3.11203761e+02
193             	3.11210846e+02
194             	3.11210360e+02
195             	3.11203641e+02
196             	3.11192924e+02
197             	3.11185990e+02
198             	3.11182049e+02
199             	3.11183298e+02
200             	3.11187490e+02
201             	3.11193293e+02
202             	3.11200793e+02
203             	3.11209581e+02
204             	3.11219085e+02
205             	3.11225767e+02
206             	3.11232907e+02
207             	3.11236505e+02
208             	3.11231931e+02
209             	3.11220150e+02
210             	3.11207198e+02
211             	3.11196564e+02
212             	3.11195325e+02
213             	3.11200112e+02
214             	3.11207520e+02
215             	3.11215843e+02
216             	3.11224306e+02
217             	3.11230329e+02
218             	3.11235617e+02
219             	3.11240780e+02
220             	3.11245326e+02
221             	3.11249232e+02
222             	3.11252932e+02
223             	3.11256183e+02
224             	3.11259058e+02
225             	3.11260775e+02
226             	3.11261808e+02
227             	3.11262273e+02
228             	3.11261844e+02
229             	3.11260387e+02
230             	3.11258738e+02
231             	3.11256653e+02
232             	3.11253879e+02
233             	3.11251641e+02
234             	3.11250098e+02
235             	3.11248997e+02
236             	3.11248881e+02
237             	3.11251928e+02
238             	3.11257833e+02
239             	3.11265016e+02
240             	3.11272120e+02
241             	3.11278339e+02
242             	3.11283361e+02
243             	3.11287515e+02
244             	3.11291057e+02
245             	3.11293662e+02
246             	3.11295203e+02
247             	3.11296067e+02
248             	3.11296708e+02
249             	3.11297126e+02
250             	3.11297063e+02
251             	3.11296390e+02
252             	3.11295374e+02
253             	3.11293976e+02
254             	3.11292018e+02
255             	3.11289699e+02
256             	3.11287083e+02
257             	3.11284066e+02
258             	3.11281300e+02
259             	3.11279032e+02
260             	3.11277312e+02
261             	3.11276174e+02
262             	3.11275595e+02
263             	3.11275574e+02
264             	3.11276284e+02
265             	3.11277511e+02
266             	3.11279923e+02
267             	3.11283407e+02
268             	3.11287133e+02
269             	3.11290849e+02
270             	3.11294549e+02
271             	3.11297952e+02
272             	3.11300841e+02
273             	3.11302972e+02
274             	3.11304326e+02
275             	3.11304844e+02
276             	3.11304462e+02
277             	3.11303257e+02
278             	3.11301382e+02
279             	3.11299449e+02
280             	3.11297112e+02
281             	3.11294681e+02
282             	3.11292043e+02
283             	3.11290052e+02
284             	3.11288891e+02
285             	3.11288761e+02
286             	3.11289597e+02
287             	3.11291119e+02
288             	3.11293248e+02
289             	3.11295415e+02
290             	3.11297311e+02
291             	3.11298547e+02
292             	3.11298849e+02
293             	3.11298675e+02
294             	3.11298237e+02
295             	3.11297879e+02
296             	3.11297692e+02
297             	3.11297639e+02
298             	3.11297757e+02
299             	3.11298030e+02
300             	3.11298417e+02
301             	3.11298891e+02
302             	3.11299451e+02
303             	3.11299915e+02
304             	3.11300581e+02
305             	3.11301528e+02
306             	3.11302679e+02
307             	3.11303958e+02
308             	3.11305152e+02
309             	3.11306161e+02
310             	3.11306986e+02
311             	3.11307691e+02
312             	3.11308232e+02
313             	3.11308512e+02
314             	3.11308617e+02
315             	3.11308611e+02
316             	3.11308591e+02
317             	3.11308612e+02
318             	3.11308668e+02
319             	3.11308688e+02
320             	3.11308676e+02
321             	3.11308611e+02
322             	3.11308470e+02
323             	3.11308198e+02
324             	3.11307873e+02
325             	3.11307520e+02
326             	3.11307151e+02
327             	3.11306808e+02
328             	3.11306685e+02
329             	3.11306732e+02
330             	3.11306868e+02
331             	3.11307053e+02
332             	3.11307204e+02
333             	3.11307443e+02
334             	3.11307613e+02
335             	3.11307738e+02
336             	3.11307796e+02
337             	3.11307769e+02
338             	3.11307638e+02
339             	3.11307366e+02
340             	3.11306915e+02
341             	3.11306340e+02
342             	3.11305686e+02
343             	3.11304975e+02
344             	3.11304332e+02
345             	3.11303827e+02
346             	3.11303496e+02
347             	3.11303336e+02
348             	3.11303328e+02
349             	3.11303584e+02
350             	3.11304165e+02
351             	3.11305007e+02
352             	3.11305970e+02
353             	3.11306909e+02
354             	3.11307698e+02
355             	3.11308298e+02
356             	3.11308767e+02
357             	3.11308975e+02
358             	3.11308882e+02
359             	3.11308478e+02
360             	3.11307945e+02
361             	3.11307501e+02
362             	3.11307226e+02
363             	3.11307143e+02
364             	3.11307223e+02
365             	3.11307417e+02
366             	3.11307794e+02
367             	3.11308220e+02
368             	3.11308457e+02
369             	3.11308409e+02
370             	3.11308169e+02
371             	3.11307874e+02
372             	3.11307576e+02
373             	3.11307306e+02
374             	3.11307064e+02
375             	3.11306881e+02
376             	3.11306792e+02
377             	3.11306832e+02
378             	3.11307014e+02
379             	3.11307269e+02
380             	3.11307484e+02
381             	3.11307591e+02
382             	3.11307613e+02
383             	3.11307645e+02
384             	3.11307629e+02
385             	3.11307639e+02
386             	3.11307841e+02
387             	3.11308154e+02
388             	3.11308493e+02
389             	3.11308847e+02
390             	3.11309148e+02
391             	3.11309195e+02
392             	3.11309026e+02
393             	3.11308701e+02
394             	3.11308273e+02
395             	3.11307811e+02
396             	3.11307279e+02
397             	3.11306775e+02
398             	3.11306351e+02
399             	3.11306111e+02
400             	3.11306057e+02
401             	3.11306184e+02
402             	3.11306374e+02
403             	3.11306561e+02
404             	3.11306664e+02
405             	3.11306678e+02
406             	3.11306628e+02
407             	3.11306517e+02
408             	3.11306353e+02
409             	3.11306159e+02
410             	3.11305963e+02
411             	3.11305777e+02
412             	3.11305691e+02
413             	3.11305791e+02
414             	3.11306016e+02
415             	3.11306332e+02
416             	3.11306659e+02
417             	3.11306949e+02
418             	3.11307137e+02
419             	3.11307166e+02
420             	3.11307017e+02
421             	3.11306761e+02
422             	3.11306456e+02
423             	3.11306151e+02
424             	3.11305859e+02
425             	3.11305592e+02
426             	3.11305368e+02
427             	3.11305171e+02
428             	3.11305048e+02
429             	3.11305006e+02
430             	3.11305028e+02
431             	3.11305094e+02
432             	3.11305223e+02
433             	3.11305380e+02
434             	3.11305517e+02
435             	3.11305658e+02
436             	3.11305791e+02
437             	3.11305895e+02
438             	3.11305962e+02
439             	3.11306015e+02
440             	3.11306045e+02
441             	3.11306070e+02
442             	3.11306113e+02
443             	3.11306169e+02
444             	3.11306219e+02
445             	3.11306252e+02
446             	3.11306279e+02
447             	3.11306323e+02
448             	3.11306365e+02
449             	3.11306398e+02
450             	3.11306416e+02
451             	3.11306391e+02
452             	3.11306321e+02
453             	3.11306221e+02
454             	3.11306099e+02
455             	3.11306005e+02
456             	3.11305950e+02
457             	3.11305930e+02
458             	3.11305941e+02
459             	3.11305989e+02
460             	3.11306081e+02
461             	3.11306215e+02
462             	3.11306358e+02
463             	3.11306501e+02
464             	3.11306642e+02
465             	3.11306774e+02
466             	3.11306883e+02
467             	3.11306965e+02
468             	3.11307020e+02
469             	3.11307040e+02
470             	3.11307018e+02
471             	3.11306965e+02
472             	3.11306876e+02
473             	3.11306752e+02
474             	3.11306633e+02
475             	3.11306544e+02
476             	3.11306499e+02
477             	3.11306488e+02
478             	3.11306512e+02
479             	3.11306581e+02
480             	3.11306685e+02
481             	3.11306803e+02
482             	3.11306926e+02
483             	3.11307044e+02
484             	3.11307128e+02
485             	3.11307175e+02
486             	3.11307191e+02
487             	3.11307188e+02
488             	3.11307171e+02
489             	3.11307135e+02
490             	3.11307091e+02
491             	3.11307053e+02
492             	3.11307024e+02
493             	3.11307013e+02
494             	3.11307024e+02
495             	3.11307047e+02
496             	3.11307077e+02
497             	3.11307120e+02
498             	3.11307174e+02
499             	3.11307232e+02
500             	3.11307280e+02
501             	3.11307307e+02
502             	3.11307339e+02
503             	3.11307398e+02
504             	3.11307463e+02
505             	3.11307511e+02
506             	3.11307542e+02
507             	3.11307572e+02
508             	3.11307604e+02
509             	3.11307614e+02
510             	3.11307582e+02
511             	3.11307536e+02
512             	3.11307480e+02
513             	3.11307422e+02
514             	3.11307369e+02
515             	3.11307336e+02
516             	3.11307340e+02
517             	3.11307376e+02
518             	3.11307449e+02
519             	3.11307559e+02
520             	3.11307696e+02
521             	3.11307829e+02
522             	3.11307940e+02
523             	3.11308031e+02
524             	3.11308092e+02
525             	3.11308114e+02
526             	3.11308091e+02
527             	3.11308029e+02
528             	3.11307960e+02
529             	3.11307884e+02
530             	3.11307820e+02
531             	3.11307771e+02
532             	3.11307762e+02
533             	3.11307791e+02
534             	3.11307843e+02
535             	3.11307887e+02
536             	3.11307903e+02
537             	3.11307902e+02
538             	3.11307884e+02
539             	3.11307837e+02
540             	3.11307774e+02
541             	3.11307717e+02
542             	3.11307692e+02
543             	3.11307711e+02
544             	3.11307769e+02
545             	3.11307853e+02
546             	3.11307948e+02
547             	3.11308042e+02
548             	3.11308120e+02
549             	3.11308178e+02
550             	3.11308212e+02
551             	3.11308206e+02
552             	3.11308160e+02
553             	3.11308084e+02
554             	3.11307980e+02
555             	3.11307877e+02
556             	3.11307785e+02
557             	3.11307712e+02
558             	3.11307667e+02
559             	3.11307646e+02
560             	3.11307650e+02
561             	3.11307678e+02
562             	3.11307727e+02
563             	3.11307786e+02
564             	3.11307836e+02
565             	3.11307858e+02
566             	3.11307859e+02
567             	3.11307841e+02
568             	3.11307806e+02
569             	3.11307761e+02
570             	3.11307726e+02
571             	3.11307721e+02
572             	3.11307740e+02
573             	3.11307770e+02
574             	3.11307804e+02
575             	3.11307845e+02
576             	3.11307906e+02
577             	3.11307964e+02
578             	3.11308008e+02
579             	3.11308035e+02
580             	3.11308052e+02
581             	3.11308052e+02
582             	3.11308039e+02
583             	3.11308012e+02
584             	3.11307981e+02
585             	3.11307951e+02
586             	3.11307925e+02
587             	3.11307899e+02
588             	3.11307881e+02
589             	3.11307879e+02
590             	3.11307888e+02
591             	3.11307905e+02
592             	3.11307920e+02
593             	3.11307936e+02
594             	3.11307955e+02
595             	3.11307969e+02
596             	3.11307978e+02
597             	3.11307985e+02
598             	3.11307989e+02
599             	3.11307994e+02
600             	3.11307996e+02
601             	3.11307995e+02
602             	3.11307993e+02
603             	3.11307994e+02
604             	3.11307994e+02
605             	3.11307995e+02
606             	3.11307994e+02
607             	3.11307996e+02
608             	3.11307999e+02
609             	3.11308001e+02
610             	3.11308003e+02
611             	3.11308005e+02
612             	3.11308007e+02
613             	3.11308013e+02
614             	3.11308020e+02
615             	3.11308030e+02
616             	3.11308046e+02
617             	3.11308058e+02
618             	3.11308065e+02
619             	3.11308067e+02
620             	3.11308064e+02
621             	3.11308055e+02
