# Region        : cellZone component_3
# Cells         : 157
# Volume        : 3.26588728e-01
# Time          	volAverage(T)
1               	3.02533127e+02
2               	3.04994087e+02
3               	3.06883601e+02
4               	3.08374453e+02
5               	3.09832267e+02
6               	3.11375402e+02
7               	3.12902516e+02
8               	3.14322551e+02
9               	3.15675581e+02
10              	3.17021153e+02
11              	3.18287337e+02
12              	3.19446989e+02
13              	3.20476880e+02
14              	3.21429314e+02
15              	3.22402039e+02
16              	3.23352277e+02
17              	3.24251897e+02
18              	3.25133259e+02
19              	3.25940873e+02
20              	3.26735352e+02
21              	3.27544928e+02
22              	3.28371600e+02
23              	3.29171351e+02
24              	3.29911762e+02
25              	3.30620451e+02
26              	3.31314422e+02
27              	3.31975995e+02
28              	3.32617818e+02
29              	3.33219453e+02
30              	3.33764157e+02
31              	3.34272090e+02
32              	3.34764581e+02
33              	3.35235149e+02
34              	3.35694447e+02
35              	3.36164125e+02
36              	3.36640953e+02
37              	3.37106624e+02
38              	3.37552349e+02
39              	3.37969104e+02
40              	3.38362877e+02
41              	3.38725108e+02
42              	3.39061856e+02
43              	3.39392110e+02
44              	3.39743352e+02
45              	3.40138551e+02
46              	3.40530564e+02
47              	3.40882333e+02
48              	3.41196737e+02
49              	3.41449836e+02
50              	3.41673542e+02
51              	3.41885248e+02
52              	3.42081528e+02
53              	3.42260802e+02
54              	3.42427859e+02
55              	3.42603978e+02
56              	3.42817744e+02
57              	3.43046562e+02
58              	3.43275282e+02
59              	3.43491371e+02
60              	3.43681417e+02
61              	3.43849042e+02
62              	3.44013521e+02
63              	3.44174145e+02
64              	3.44335447e+02
65              	3.44492410e+02
66              	3.44649458e+02
67              	3.44861257e+02
68              	3.45102004e+02
69              	3.45297932e+02
70              	3.45473808e+02
71              	3.45634510e+02
72              	3.45791256e+02
73              	3.45950971e+02
74              	3.46112576e+02
75              	3.46260905e+02
76              	3.46409929e+02
77              	3.46583309e+02
78              	3.46764453e+02
79              	3.46958911e+02
80              	3.47155128e+02
81              	3.47354947e+02
82              	3.47536503e+02
83              	3.47709668e+02
84              	3.47881131e+02
85              	3.48047585e+02
86              	3.48210774e+02
87              	3.48374000e+02
88              	3.48511654e+02
89              	3.48643051e+02
90              	3.48780109e+02
91              	3.48911340e+02
92              	3.49038502e+02
93              	3.49163088e+02
94              	3.49281009e+02
95              	3.49390695e+02
96              	3.49489584e+02
97              	3.49580613e+02
98              	3.49671851e+02
99              	3.49770898e+02
100             	3.49876060e+02
101             	3.49984838e+02
102             	3.50085132e+02
103             	3.50184388e+02
104             	3.50295184e+02
105             	3.50403730e+02
106             	3.50507283e+02
107             	3.50610662e+02
108             	3.50706757e+02
109             	3.50785064e+02
110             	3.50856996e+02
111             	3.50920964e+02
112             	3.50979193e+02
113             	3.51033233e+02
114             	3.51085105e+02
115             	3.51142740e+02
116             	3.51207141e+02
117             	3.51276770e+02
118             	3.51350341e+02
119             	3.51425430e+02
120             	3.51501077e+02
121             	3.51572790e+02
122             	3.51647662e+02
123             	3.51725565e+02
124             	3.51792687e+02
125             	3.51870486e+02
126             	3.51954521e+02
127             	3.52043462e+02
128             	3.52123504e+02
129             	3.52183194e+02
130             	3.52227215e+02
131             	3.52257524e+02
132             	3.52280381e+02
133             	3.52302349e+02
134             	3.52328806e+02
135             	3.52365772e+02
136             	3.52413822e+02
137             	3.52463320e+02
138             	3.52516095e+02
139             	3.52576215e+02
140             	3.52634186e+02
141             	3.52694716e+02
142             	3.52752370e+02
143             	3.52803153e+02
144             	3.52848153e+02
145             	3.52887613e+02
146             	3.52921336e+02
147             	3.52953523e+02
148             	3.52983776e+02
149             	3.53011204e+02
150             	3.53038638e+02
151             	3.53068964e+02
152             	3.53103910e+02
153             	3.53143284e+02
154             	3.53185513e+02
155             	3.53229335e+02
156             	3.53270799e+02
157             	3.53300648e+02
158             	3.53320906e+02
159             	3.53332480e+02
160             	3.53340425e+02
161             	3.53351351e+02
162             	3.53373366e+02
163             	3.53402960e+02
164             	3.53437935e+02
165             	3.53481869e+02
166             	3.53533042e+02
167             	3.53581479e+02
168             	3.53617222e+02
169             	3.53641501e+02
170             	3.53657071e+02
171             	3.53667390e+02
172             	3.53675856e+02
173             	3.53686213e+02
174             	3.53695196e+02
175             	3.53707706e+02
176             	3.53728645e+02
177             	3.53756035e+02
178             	3.53784510e+02
179             	3.53812030e+02
180             	3.53837624e+02
181             	3.53854150e+02
182             	3.53861603e+02
183             	3.53863353e+02
184             	3.53865628e+02
185             	3.53870453e+02
186             	3.53882118e+02
187             	3.53897207e+02
188             	3.53918369e+02
189             	3.53942272e+02
190             	3.53965604e+02
191             	3.53988576e+02
192             	3.54012783e+02
193             	3.54035863e+02
194             	3.54055935e+02
195             	3.54073251e+02
196             	3.54090619e+02
197             	3.54109370e+02
198             	3.54129018e+02
199             	3.54151357e+02
200             	3.54175417e+02
201             	3.54198735e+02
202             	3.54219934e+02
203             	3.54240097e+02
204             	3.54259975e+02
205             	3.54278103e+02
206             	3.54293808e+02
207             	3.54308214e+02
208             	3.54323454e+02
209             	3.54338833e+02
210             	3.54355088e+02
211             	3.54372715e+02
212             	3.54391623e+02
213             	3.54411496e+02
214             	3.54431351e+02
215             	3.54449666e+02
216             	3.54467477e+02
217             	3.54485609e+02
218             	3.54502802e+02
219             	3.54517889e+02
220             	3.54530193e+02
221             	3.54539608e+02
222             	3.54547890e+02
223             	3.54557641e+02
224             	3.54568875e+02
225             	3.54580928e+02
226             	3.54593679e+02
227             	3.54608239e+02
228             	3.54622074e+02
229             	3.54636096e+02
230             	3.54649383e+02
231             	3.54660083e+02
232             	3.54666877e+02
233             	3.54670473e+02
234             	3.54673304e+02
235             	3.54677889e+02
236             	3.54684514e+02
237             	3.54692445e+02
238             	3.54702459e+02
239             	3.54715095e+02
240             	3.54730505e+02
241             	3.54747591e+02
242             	3.54764511e+02
243             	3.54779581e+02
244             	3.54792921e+02
245             	3.54804657e+02
246             	3.54814516e+02
247             	3.54822649e+02
248             	3.54829555e+02
249             	3.54835152e+02
250             	3.54840078e+02
251             	3.54846811e+02
252             	3.54854429e+02
253             	3.54863473e+02
254             	3.54874854e+02
255             	3.54887074e+02
256             	3.54899693e+02
257             	3.54912149e+02
258             	3.54924547e+02
259             	3.54936419e+02
260             	3.54947988e+02
261             	3.54959253e+02
262             	3.54968933e+02
263             	3.54976373e+02
264             	3.54982279e+02
265             	3.54987598e+02
266             	3.54993490e+02
267             	3.55000661e+02
268             	3.55008973e+02
269             	3.55018618e+02
270             	3.55029648e+02
271             	3.55041748e+02
272             	3.55053896e+02
273             	3.55065500e+02
274             	3.55076511e+02
275             	3.55086574e+02
276             	3.55095558e+02
277             	3.55103041e+02
278             	3.55108903e+02
279             	3.55113607e+02
280             	3.55117339e+02
281             	3.55120875e+02
282             	3.55125635e+02
283             	3.55131853e+02
284             	3.55138789e+02
285             	3.55146898e+02
286             	3.55155989e+02
287             	3.55165215e+02
288             	3.55173857e+02
289             	3.55181722e+02
290             	3.55188635e+02
291             	3.55195107e+02
292             	3.55200909e+02
293             	3.55205893e+02
294             	3.55210532e+02
295             	3.55214791e+02
296             	3.55219336e+02
297             	3.55224162e+02
298             	3.55229064e+02
299             	3.55234477e+02
300             	3.55240249e+02
301             	3.55246959e+02
302             	3.55254094e+02
303             	3.55261509e+02
304             	3.55268543e+02
305             	3.55275072e+02
306             	3.55281228e+02
307             	3.55286663e+02
308             	3.55291369e+02
309             	3.55295626e+02
310             	3.55299788e+02
311             	3.55303977e+02
312             	3.55308002e+02
313             	3.55312185e+02
314             	3.55316568e+02
315             	3.55320963e+02
316             	3.55325244e+02
317             	3.55329517e+02
318             	3.55333820e+02
319             	3.55338107e+02
320             	3.55342375e+02
321             	3.55346456e+02
322             	3.55350444e+02
323             	3.55354285e+02
324             	3.55357845e+02
325             	3.55361206e+02
326             	3.55364585e+02
327             	3.55368015e+02
328             	3.55371377e+02
329             	3.55374846e+02
330             	3.55378308e+02
331             	3.55381860e+02
332             	3.55385335e+02
333             	3.55388585e+02
334             	3.55391665e+02
335             	3.55394617e+02
336             	3.55397361e+02
337             	3.55399947e+02
338             	3.55402543e+02
339             	3.55405222e+02
340             	3.55407952e+02
341             	3.55410835e+02
342             	3.55413852e+02
343             	3.55416832e+02
344             	3.55419790e+02
345             	3.55422879e+02
346             	3.55426077e+02
347             	3.55429276e+02
348             	3.55432505e+02
349             	3.55435563e+02
350             	3.55438366e+02
351             	3.55441049e+02
352             	3.55443599e+02
353             	3.55446067e+02
354             	3.55448669e+02
355             	3.55451449e+02
356             	3.55454332e+02
357             	3.55457296e+02
358             	3.55460308e+02
359             	3.55463330e+02
360             	3.55466240e+02
361             	3.55469048e+02
362             	3.55471773e+02
363             	3.55474428e+02
364             	3.55476919e+02
365             	3.55479274e+02
366             	3.55481613e+02
367             	3.55484042e+02
368             	3.55486556e+02
369             	3.55489108e+02
370             	3.55491579e+02
371             	3.55494021e+02
372             	3.55496401e+02
373             	3.55498706e+02
374             	3.55500921e+02
375             	3.55503035e+02
376             	3.55505220e+02
377             	3.55507510e+02
378             	3.55509767e+02
379             	3.55512120e+02
380             	3.55514511e+02
381             	3.55516867e+02
382             	3.55519099e+02
383             	3.55521310e+02
384             	3.55523435e+02
385             	3.55525410e+02
386             	3.55527258e+02
387             	3.55529030e+02
388             	3.55530693e+02
389             	3.55532312e+02
390             	3.55533987e+02
391             	3.55535739e+02
392             	3.55537496e+02
393             	3.55539335e+02
394             	3.55541248e+02
395             	3.55543228e+02
396             	3.55545187e+02
397             	3.55547100e+02
398             	3.55548929e+02
399             	3.55550697e+02
400             	3.55552338e+02
401             	3.55553860e+02
402             	3.55555310e+02
403             	3.55556719e+02
404             	3.55558097e+02
405             	3.55559478e+02
406             	3.55560890e+02
407             	3.55562331e+02
408             	3.55563722e+02
409             	3.55565055e+02
410             	3.55566268e+02
411             	3.55567420e+02
412             	3.55568526e+02
413             	3.55569609e+02
414             	3.55570633e+02
415             	3.55571658e+02
416             	3.55572692e+02
417             	3.55573747e+02
418             	3.55574799e+02
419             	3.55575862e+02
420             	3.55576948e+02
421             	3.55578090e+02
422             	3.55579264e+02
423             	3.55580451e+02
424             	3.55581602e+02
425             	3.55582762e+02
426             	3.55583914e+02
427             	3.55585072e+02
428             	3.55586219e+02
429             	3.55587382e+02
430             	3.55588576e+02
431             	3.55589812e+02
432             	3.55591056e+02
433             	3.55592289e+02
434             	3.55593502e+02
435             	3.55594737e+02
436             	3.55595979e+02
437             	3.55597147e+02
438             	3.55598222e+02
439             	3.55599289e+02
440             	3.55600255e+02
441             	3.55601080e+02
442             	3.55601821e+02
443             	3.55602585e+02
444             	3.55603422e+02
445             	3.55604346e+02
446             	3.55605338e+02
447             	3.55606358e+02
448             	3.55607404e+02
449             	3.55608400e+02
450             	3.55609338e+02
451             	3.55610204e+02
452             	3.55610981e+02
453             	3.55611687e+02
454             	3.55612324e+02
455             	3.55612945e+02
456             	3.55613596e+02
457             	3.55614319e+02
458             	3.55615106e+02
459             	3.55615937e+02
460             	3.55616764e+02
461             	3.55617600e+02
462             	3.55618439e+02
463             	3.55619265e+02
464             	3.55620087e+02
465             	3.55620882e+02
466             	3.55621644e+02
467             	3.55622364e+02
468             	3.55623050e+02
469             	3.55623707e+02
470             	3.55624344e+02
471             	3.55624960e+02
472             	3.55625580e+02
473             	3.55626189e+02
474             	3.55626796e+02
475             	3.55627428e+02
476             	3.55628070e+02
477             	3.55628758e+02
478             	3.55629454e+02
479             	3.55630150e+02
480             	3.55630825e+02
481             	3.55631475e+02
482             	3.55632080e+02
483             	3.55632650e+02
484             	3.55633192e+02
485             	3.55633728e+02
486             	3.55634227e+02
487             	3.55634721e+02
488             	3.55635239e+02
489             	3.55635791e+02
490             	3.55636353e+02
491             	3.55636918e+02
492             	3.55637476e+02
493             	3.55638039e+02
494             	3.55638575e+02
495             	3.55639094e+02
496             	3.55639580e+02
497             	3.55640039e+02
498             	3.55640475e+02
499             	3.55640912e+02
500             	3.55641334e+02
501             	3.55641756e+02
502             	3.55642161e+02
503             	3.55642565e+02
504             	3.55642958e+02
505             	3.55643364e+02
506             	3.55643771e+02
507             	3.55644193e+02
508             	3.55644612e+02
509             	3.55645043e+02
510             	3.55645467e+02
511             	3.55645901e+02
512             	3.55646328e+02
513             	3.55646760e+02
514             	3.55647175e+02
515             	3.55647583e+02
516             	3.55647965e+02
517             	3.55648337e+02
518             	3.55648687e+02
519             	3.55649038e+02
520             	3.55649376e+02
521             	3.55649732e+02
522             	3.55650089e+02
523             	3.55650459e+02
524             	3.55650835e+02
525             	3.55651222e+02
526             	3.55651588e+02
527             	3.55651943e+02
528             	3.55652267e+02
529             	3.55652571e+02
530             	3.55652847e+02
531             	3.55653122e+02
532             	3.55653396e+02
533             	3.55653677e+02
534             	3.55653939e+02
535             	3.55654203e+02
536             	3.55654465e+02
537             	3.55654748e+02
538             	3.55655031e+02
539             	3.55655331e+02
540             	3.55655628e+02
541             	3.55655933e+02
542             	3.55656228e+02
543             	3.55656521e+02
544             	3.55656796e+02
545             	3.55657067e+02
546             	3.55657319e+02
547             	3.55657575e+02
548             	3.55657811e+02
549             	3.55658048e+02
550             	3.55658270e+02
551             	3.55658502e+02
552             	3.55658724e+02
553             	3.55658956e+02
554             	3.55659184e+02
555             	3.55659418e+02
556             	3.55659641e+02
557             	3.55659872e+02
558             	3.55660094e+02
559             	3.55660324e+02
560             	3.55660535e+02
561             	3.55660749e+02
562             	3.55660942e+02
563             	3.55661141e+02
564             	3.55661329e+02
565             	3.55661527e+02
566             	3.55661717e+02
567             	3.55661915e+02
568             	3.55662106e+02
569             	3.55662308e+02
570             	3.55662504e+02
571             	3.55662706e+02
572             	3.55662896e+02
573             	3.55663087e+02
574             	3.55663267e+02
575             	3.55663449e+02
576             	3.55663613e+02
577             	3.55663784e+02
578             	3.55663942e+02
579             	3.55664110e+02
580             	3.55664266e+02
581             	3.55664433e+02
582             	3.55664594e+02
583             	3.55664762e+02
584             	3.55664922e+02
585             	3.55665092e+02
586             	3.55665251e+02
587             	3.55665416e+02
588             	3.55665572e+02
589             	3.55665734e+02
590             	3.55665885e+02
591             	3.55666042e+02
592             	3.55666186e+02
593             	3.55666337e+02
594             	3.55666477e+02
595             	3.55666624e+02
596             	3.55666761e+02
597             	3.55666904e+02
598             	3.55667034e+02
599             	3.55667170e+02
600             	3.55667291e+02
601             	3.55667419e+02
602             	3.55667532e+02
603             	3.55667653e+02
604             	3.55667761e+02
605             	3.55667877e+02
606             	3.55667981e+02
607             	3.55668068e+02
608             	3.55668146e+02
609             	3.55668262e+02
610             	3.55668345e+02
611             	3.55668461e+02
612             	3.55668542e+02
613             	3.55668630e+02
614             	3.55668710e+02
615             	3.55668798e+02
616             	3.55668879e+02
617             	3.55668969e+02
618             	3.55669051e+02
619             	3.55669141e+02
620             	3.55669224e+02
621             	3.55669316e+02
