# Region        : cellZone component_0
# Cells         : 348
# Volume        : 6.98373690e-01
# Time          	volAverage(T)
1               	3.00238190e+02
2               	3.00474613e+02
3               	3.00697885e+02
4               	3.00912736e+02
5               	3.01122959e+02
6               	3.01329826e+02
7               	3.01533742e+02
8               	3.01735262e+02
9               	3.01935324e+02
10              	3.02133154e+02
11              	3.02327791e+02
12              	3.02521131e+02
13              	3.02712850e+02
14              	3.02903047e+02
15              	3.03091847e+02
16              	3.03279732e+02
17              	3.03466759e+02
18              	3.03654147e+02
19              	3.03840607e+02
20              	3.04026450e+02
21              	3.04210111e+02
22              	3.04392159e+02
23              	3.04571126e+02
24              	3.04746343e+02
25              	3.04917889e+02
26              	3.05086169e+02
27              	3.05252380e+02
28              	3.05413757e+02
29              	3.05572775e+02
30              	3.05729970e+02
31              	3.05887185e+02
32              	3.06038513e+02
33              	3.06183529e+02
34              	3.06325641e+02
35              	3.06467366e+02
36              	3.06610731e+02
37              	3.06753488e+02
38              	3.06895764e+02
39              	3.07037074e+02
40              	3.07175705e+02
41              	3.07311765e+02
42              	3.07444237e+02
43              	3.07574024e+02
44              	3.07702293e+02
45              	3.07827822e+02
46              	3.07955985e+02
47              	3.08085822e+02
48              	3.08214588e+02
49              	3.08338795e+02
50              	3.08452892e+02
51              	3.08565857e+02
52              	3.08675735e+02
53              	3.08790879e+02
54              	3.08900079e+02
55              	3.09005525e+02
56              	3.09110995e+02
57              	3.09214105e+02
58              	3.09318492e+02
59              	3.09420981e+02
60              	3.09519750e+02
61              	3.09619700e+02
62              	3.09719407e+02
63              	3.09819827e+02
64              	3.09919001e+02
65              	3.10017653e+02
66              	3.10115822e+02
67              	3.10210620e+02
68              	3.10308315e+02
69              	3.10403370e+02
70              	3.10495423e+02
71              	3.10583630e+02
72              	3.10669050e+02
73              	3.10748295e+02
74              	3.10825407e+02
75              	3.10899655e+02
76              	3.10978064e+02
77              	3.11057491e+02
78              	3.11138825e+02
79              	3.11218768e+02
80              	3.11297368e+02
81              	3.11375335e+02
82              	3.11449613e+02
83              	3.11520833e+02
84              	3.11589496e+02
85              	3.11654953e+02
86              	3.11718144e+02
87              	3.11779400e+02
88              	3.11838681e+02
89              	3.11896869e+02
90              	3.11953421e+02
91              	3.12009478e+02
92              	3.12067094e+02
93              	3.12126407e+02
94              	3.12188118e+02
95              	3.12250574e+02
96              	3.12311510e+02
97              	3.12372274e+02
98              	3.12430498e+02
99              	3.12488918e+02
100             	3.12545196e+02
101             	3.12598443e+02
102             	3.12649153e+02
103             	3.12696039e+02
104             	3.12741526e+02
105             	3.12784911e+02
106             	3.12827786e+02
107             	3.12871996e+02
108             	3.12916746e+02
109             	3.12962818e+02
110             	3.13010329e+02
111             	3.13057860e+02
112             	3.13105293e+02
113             	3.13151522e+02
114             	3.13197447e+02
115             	3.13242661e+02
116             	3.13285253e+02
117             	3.13326582e+02
118             	3.13366099e+02
119             	3.13402939e+02
120             	3.13438416e+02
121             	3.13472990e+02
122             	3.13506347e+02
123             	3.13539813e+02
124             	3.13572750e+02
125             	3.13605758e+02
126             	3.13639132e+02
127             	3.13672039e+02
128             	3.13704868e+02
129             	3.13736887e+02
130             	3.13769010e+02
131             	3.13800461e+02
132             	3.13831423e+02
133             	3.13862929e+02
134             	3.13894085e+02
135             	3.13925290e+02
136             	3.13955916e+02
137             	3.13986275e+02
138             	3.14015720e+02
139             	3.14044713e+02
140             	3.14072840e+02
141             	3.14100271e+02
142             	3.14127032e+02
143             	3.14152101e+02
144             	3.14176725e+02
145             	3.14200694e+02
146             	3.14223730e+02
147             	3.14245924e+02
148             	3.14267336e+02
149             	3.14288384e+02
150             	3.14309080e+02
151             	3.14329536e+02
152             	3.14349871e+02
153             	3.14369785e+02
154             	3.14389554e+02
155             	3.14409455e+02
156             	3.14429407e+02
157             	3.14449428e+02
158             	3.14470183e+02
159             	3.14490814e+02
160             	3.14510755e+02
161             	3.14530554e+02
162             	3.14548980e+02
163             	3.14567018e+02
164             	3.14584239e+02
165             	3.14600970e+02
166             	3.14617338e+02
167             	3.14633003e+02
168             	3.14648094e+02
169             	3.14662716e+02
170             	3.14677118e+02
171             	3.14691335e+02
172             	3.14705314e+02
173             	3.14719175e+02
174             	3.14732863e+02
175             	3.14746303e+02
176             	3.14759649e+02
177             	3.14773004e+02
178             	3.14786056e+02
179             	3.14798966e+02
180             	3.14811792e+02
181             	3.14824440e+02
182             	3.14836832e+02
183             	3.14849187e+02
184             	3.14861335e+02
185             	3.14873451e+02
186             	3.14885470e+02
187             	3.14897226e+02
188             	3.14908570e+02
189             	3.14919714e+02
190             	3.14930622e+02
191             	3.14941230e+02
192             	3.14951542e+02
193             	3.14961528e+02
194             	3.14971276e+02
195             	3.14980802e+02
196             	3.14990182e+02
197             	3.14999440e+02
198             	3.15008564e+02
199             	3.15017675e+02
200             	3.15026804e+02
201             	3.15035863e+02
202             	3.15044858e+02
203             	3.15053908e+02
204             	3.15063036e+02
205             	3.15072120e+02
206             	3.15081125e+02
207             	3.15090039e+02
208             	3.15098829e+02
209             	3.15107166e+02
210             	3.15115362e+02
211             	3.15123357e+02
212             	3.15131081e+02
213             	3.15138676e+02
214             	3.15146195e+02
215             	3.15153655e+02
216             	3.15161040e+02
217             	3.15168344e+02
218             	3.15175467e+02
219             	3.15182532e+02
220             	3.15189504e+02
221             	3.15196320e+02
222             	3.15203013e+02
223             	3.15209683e+02
224             	3.15216399e+02
225             	3.15222942e+02
226             	3.15229452e+02
227             	3.15235928e+02
228             	3.15242384e+02
229             	3.15248864e+02
230             	3.15255248e+02
231             	3.15261669e+02
232             	3.15268050e+02
233             	3.15274402e+02
234             	3.15280547e+02
235             	3.15286497e+02
236             	3.15292233e+02
237             	3.15297862e+02
238             	3.15303241e+02
239             	3.15308558e+02
240             	3.15313828e+02
241             	3.15319074e+02
242             	3.15324342e+02
243             	3.15329627e+02
244             	3.15334961e+02
245             	3.15340263e+02
246             	3.15345473e+02
247             	3.15350647e+02
248             	3.15355797e+02
249             	3.15360913e+02
250             	3.15365985e+02
251             	3.15371053e+02
252             	3.15376126e+02
253             	3.15381229e+02
254             	3.15386279e+02
255             	3.15391263e+02
256             	3.15396179e+02
257             	3.15401031e+02
258             	3.15405818e+02
259             	3.15410451e+02
260             	3.15415016e+02
261             	3.15419600e+02
262             	3.15424084e+02
263             	3.15428532e+02
264             	3.15432949e+02
265             	3.15437324e+02
266             	3.15441655e+02
267             	3.15445972e+02
268             	3.15450250e+02
269             	3.15454567e+02
270             	3.15458770e+02
271             	3.15462910e+02
272             	3.15466983e+02
273             	3.15470962e+02
274             	3.15474796e+02
275             	3.15478685e+02
276             	3.15482590e+02
277             	3.15486511e+02
278             	3.15490451e+02
279             	3.15494401e+02
280             	3.15498367e+02
281             	3.15502273e+02
282             	3.15506102e+02
283             	3.15509875e+02
284             	3.15513578e+02
285             	3.15517182e+02
286             	3.15520731e+02
287             	3.15524273e+02
288             	3.15527793e+02
289             	3.15531295e+02
290             	3.15534819e+02
291             	3.15538377e+02
292             	3.15541884e+02
293             	3.15545319e+02
294             	3.15548721e+02
295             	3.15552064e+02
296             	3.15555293e+02
297             	3.15558472e+02
298             	3.15561620e+02
299             	3.15564747e+02
300             	3.15567886e+02
301             	3.15571009e+02
302             	3.15574121e+02
303             	3.15577198e+02
304             	3.15580260e+02
305             	3.15583277e+02
306             	3.15586244e+02
307             	3.15589145e+02
308             	3.15592005e+02
309             	3.15594823e+02
310             	3.15597638e+02
311             	3.15600435e+02
312             	3.15603199e+02
313             	3.15605944e+02
314             	3.15608681e+02
315             	3.15611397e+02
316             	3.15614083e+02
317             	3.15616730e+02
318             	3.15619341e+02
319             	3.15621946e+02
320             	3.15624524e+02
321             	3.15627084e+02
322             	3.15629620e+02
323             	3.15632132e+02
324             	3.15634624e+02
325             	3.15637078e+02
326             	3.15639510e+02
327             	3.15641914e+02
328             	3.15644288e+02
329             	3.15646627e+02
330             	3.15648934e+02
331             	3.15651199e+02
332             	3.15653433e+02
333             	3.15655631e+02
334             	3.15657805e+02
335             	3.15659960e+02
336             	3.15662079e+02
337             	3.15664156e+02
338             	3.15666206e+02
339             	3.15668234e+02
340             	3.15670233e+02
341             	3.15672206e+02
342             	3.15674161e+02
343             	3.15676094e+02
344             	3.15678002e+02
345             	3.15679878e+02
346             	3.15681735e+02
347             	3.15683586e+02
348             	3.15685417e+02
349             	3.15687234e+02
350             	3.15689043e+02
351             	3.15690822e+02
352             	3.15692591e+02
353             	3.15694345e+02
354             	3.15696066e+02
355             	3.15697759e+02
356             	3.15699424e+02
357             	3.15701062e+02
358             	3.15702682e+02
359             	3.15704283e+02
360             	3.15705826e+02
361             	3.15707342e+02
362             	3.15708836e+02
363             	3.15710305e+02
364             	3.15711748e+02
365             	3.15713155e+02
366             	3.15714545e+02
367             	3.15715921e+02
368             	3.15717286e+02
369             	3.15718641e+02
370             	3.15720000e+02
371             	3.15721337e+02
372             	3.15722659e+02
373             	3.15723950e+02
374             	3.15725223e+02
375             	3.15726469e+02
376             	3.15727690e+02
377             	3.15728893e+02
378             	3.15730076e+02
379             	3.15731243e+02
380             	3.15732411e+02
381             	3.15733562e+02
382             	3.15734700e+02
383             	3.15735821e+02
384             	3.15736931e+02
385             	3.15738022e+02
386             	3.15739080e+02
387             	3.15740120e+02
388             	3.15741143e+02
389             	3.15742150e+02
390             	3.15743136e+02
391             	3.15744106e+02
392             	3.15745060e+02
393             	3.15746006e+02
394             	3.15746937e+02
395             	3.15747852e+02
396             	3.15748752e+02
397             	3.15749630e+02
398             	3.15750493e+02
399             	3.15751341e+02
400             	3.15752172e+02
401             	3.15752988e+02
402             	3.15753789e+02
403             	3.15754574e+02
404             	3.15755346e+02
405             	3.15756104e+02
406             	3.15756847e+02
407             	3.15757575e+02
408             	3.15758289e+02
409             	3.15758996e+02
410             	3.15759691e+02
411             	3.15760373e+02
412             	3.15761044e+02
413             	3.15761707e+02
414             	3.15762360e+02
415             	3.15763002e+02
416             	3.15763634e+02
417             	3.15764254e+02
418             	3.15764858e+02
419             	3.15765447e+02
420             	3.15766024e+02
421             	3.15766589e+02
422             	3.15767145e+02
423             	3.15767690e+02
424             	3.15768228e+02
425             	3.15768760e+02
426             	3.15769280e+02
427             	3.15769790e+02
428             	3.15770288e+02
429             	3.15770774e+02
430             	3.15771247e+02
431             	3.15771711e+02
432             	3.15772174e+02
433             	3.15772627e+02
434             	3.15773072e+02
435             	3.15773495e+02
436             	3.15773914e+02
437             	3.15774327e+02
438             	3.15774732e+02
439             	3.15775125e+02
440             	3.15775506e+02
441             	3.15775875e+02
442             	3.15776236e+02
443             	3.15776587e+02
444             	3.15776929e+02
445             	3.15777265e+02
446             	3.15777596e+02
447             	3.15777919e+02
448             	3.15778232e+02
449             	3.15778538e+02
450             	3.15778835e+02
451             	3.15779128e+02
452             	3.15779416e+02
453             	3.15779698e+02
454             	3.15779975e+02
455             	3.15780247e+02
456             	3.15780514e+02
457             	3.15780770e+02
458             	3.15781020e+02
459             	3.15781259e+02
460             	3.15781494e+02
461             	3.15781724e+02
462             	3.15781948e+02
463             	3.15782168e+02
464             	3.15782382e+02
465             	3.15782602e+02
466             	3.15782814e+02
467             	3.15783018e+02
468             	3.15783217e+02
469             	3.15783408e+02
470             	3.15783588e+02
471             	3.15783753e+02
472             	3.15783916e+02
473             	3.15784076e+02
474             	3.15784231e+02
475             	3.15784382e+02
476             	3.15784530e+02
477             	3.15784675e+02
478             	3.15784817e+02
479             	3.15784954e+02
480             	3.15785086e+02
481             	3.15785213e+02
482             	3.15785335e+02
483             	3.15785453e+02
484             	3.15785568e+02
485             	3.15785679e+02
486             	3.15785786e+02
487             	3.15785890e+02
488             	3.15785991e+02
489             	3.15786089e+02
490             	3.15786184e+02
491             	3.15786273e+02
492             	3.15786360e+02
493             	3.15786444e+02
494             	3.15786523e+02
495             	3.15786599e+02
496             	3.15786676e+02
497             	3.15786748e+02
498             	3.15786817e+02
499             	3.15786883e+02
500             	3.15786945e+02
501             	3.15787006e+02
502             	3.15787063e+02
503             	3.15787119e+02
504             	3.15787173e+02
505             	3.15787226e+02
506             	3.15787275e+02
507             	3.15787322e+02
508             	3.15787365e+02
509             	3.15787405e+02
510             	3.15787443e+02
511             	3.15787479e+02
512             	3.15787512e+02
513             	3.15787542e+02
514             	3.15787569e+02
515             	3.15787594e+02
516             	3.15787616e+02
517             	3.15787635e+02
518             	3.15787651e+02
519             	3.15787665e+02
520             	3.15787676e+02
521             	3.15787684e+02
522             	3.15787686e+02
523             	3.15787689e+02
524             	3.15787691e+02
525             	3.15787692e+02
526             	3.15787694e+02
527             	3.15787695e+02
528             	3.15787697e+02
529             	3.15787701e+02
530             	3.15787705e+02
531             	3.15787705e+02
532             	3.15787703e+02
533             	3.15787696e+02
534             	3.15787685e+02
535             	3.15787671e+02
536             	3.15787654e+02
537             	3.15787637e+02
538             	3.15787619e+02
539             	3.15787601e+02
540             	3.15787583e+02
541             	3.15787566e+02
542             	3.15787549e+02
543             	3.15787532e+02
544             	3.15787513e+02
545             	3.15787493e+02
546             	3.15787471e+02
547             	3.15787449e+02
548             	3.15787425e+02
549             	3.15787398e+02
550             	3.15787370e+02
551             	3.15787341e+02
552             	3.15787310e+02
553             	3.15787278e+02
554             	3.15787245e+02
555             	3.15787213e+02
556             	3.15787178e+02
557             	3.15787144e+02
558             	3.15787110e+02
559             	3.15787076e+02
560             	3.15787041e+02
561             	3.15787006e+02
562             	3.15786970e+02
563             	3.15786935e+02
564             	3.15786898e+02
565             	3.15786861e+02
566             	3.15786822e+02
567             	3.15786782e+02
568             	3.15786740e+02
569             	3.15786696e+02
570             	3.15786651e+02
571             	3.15786605e+02
572             	3.15786558e+02
573             	3.15786510e+02
574             	3.15786462e+02
575             	3.15786413e+02
576             	3.15786364e+02
577             	3.15786312e+02
578             	3.15786260e+02
579             	3.15786209e+02
580             	3.15786158e+02
581             	3.15786108e+02
582             	3.15786058e+02
583             	3.15786013e+02
584             	3.15785966e+02
585             	3.15785917e+02
586             	3.15785867e+02
587             	3.15785815e+02
588             	3.15785761e+02
589             	3.15785706e+02
590             	3.15785650e+02
591             	3.15785594e+02
592             	3.15785537e+02
593             	3.15785480e+02
594             	3.15785423e+02
595             	3.15785366e+02
596             	3.15785309e+02
597             	3.15785252e+02
598             	3.15785195e+02
599             	3.15785138e+02
600             	3.15785082e+02
601             	3.15785025e+02
602             	3.15784967e+02
603             	3.15784909e+02
604             	3.15784849e+02
605             	3.15784788e+02
606             	3.15784727e+02
607             	3.15784665e+02
608             	3.15784603e+02
609             	3.15784540e+02
610             	3.15784478e+02
611             	3.15784416e+02
612             	3.15784353e+02
613             	3.15784291e+02
614             	3.15784230e+02
615             	3.15784168e+02
616             	3.15784107e+02
617             	3.15784044e+02
618             	3.15783982e+02
619             	3.15783919e+02
620             	3.15783857e+02
621             	3.15783794e+02
