# Region        : cellZone component_1
# Cells         : 59
# Volume        : 1.12190767e-01
# Time          	volAverage(T)
1               	3.00832532e+02
2               	3.01648395e+02
3               	3.02418650e+02
4               	3.03162133e+02
5               	3.03890631e+02
6               	3.04609602e+02
7               	3.05322075e+02
8               	3.06030461e+02
9               	3.06733681e+02
10              	3.07434182e+02
11              	3.08130494e+02
12              	3.08826147e+02
13              	3.09518087e+02
14              	3.10206326e+02
15              	3.10885587e+02
16              	3.11557929e+02
17              	3.12220637e+02
18              	3.12875378e+02
19              	3.13521233e+02
20              	3.14161791e+02
21              	3.14793146e+02
22              	3.15416855e+02
23              	3.16033549e+02
24              	3.16643492e+02
25              	3.17247003e+02
26              	3.17845411e+02
27              	3.18445285e+02
28              	3.19044041e+02
29              	3.19638006e+02
30              	3.20218196e+02
31              	3.20783281e+02
32              	3.21345503e+02
33              	3.21902499e+02
34              	3.22448095e+02
35              	3.22984258e+02
36              	3.23506716e+02
37              	3.24032318e+02
38              	3.24548661e+02
39              	3.25070742e+02
40              	3.25594453e+02
41              	3.26115394e+02
42              	3.26627713e+02
43              	3.27140523e+02
44              	3.27640684e+02
45              	3.28130258e+02
46              	3.28609904e+02
47              	3.29077929e+02
48              	3.29537902e+02
49              	3.29991851e+02
50              	3.30443294e+02
51              	3.30891640e+02
52              	3.31337935e+02
53              	3.31781488e+02
54              	3.32218596e+02
55              	3.32642695e+02
56              	3.33057896e+02
57              	3.33454929e+02
58              	3.33851480e+02
59              	3.34239931e+02
60              	3.34619671e+02
61              	3.34992805e+02
62              	3.35359044e+02
63              	3.35721702e+02
64              	3.36085300e+02
65              	3.36447861e+02
66              	3.36801274e+02
67              	3.37153700e+02
68              	3.37497442e+02
69              	3.37835731e+02
70              	3.38168498e+02
71              	3.38488747e+02
72              	3.38790906e+02
73              	3.39086736e+02
74              	3.39375875e+02
75              	3.39659288e+02
76              	3.39944374e+02
77              	3.40230581e+02
78              	3.40513456e+02
79              	3.40794159e+02
80              	3.41067361e+02
81              	3.41330153e+02
82              	3.41591310e+02
83              	3.41843117e+02
84              	3.42089343e+02
85              	3.42327438e+02
86              	3.42557178e+02
87              	3.42789302e+02
88              	3.43018208e+02
89              	3.43251519e+02
90              	3.43484278e+02
91              	3.43715752e+02
92              	3.43937157e+02
93              	3.44158419e+02
94              	3.44373888e+02
95              	3.44580206e+02
96              	3.44775510e+02
97              	3.44967080e+02
98              	3.45157778e+02
99              	3.45345274e+02
100             	3.45534810e+02
101             	3.45726085e+02
102             	3.45916679e+02
103             	3.46103216e+02
104             	3.46287616e+02
105             	3.46463428e+02
106             	3.46637870e+02
107             	3.46807008e+02
108             	3.46970022e+02
109             	3.47127529e+02
110             	3.47280055e+02
111             	3.47432093e+02
112             	3.47578894e+02
113             	3.47730325e+02
114             	3.47880271e+02
115             	3.48031936e+02
116             	3.48179288e+02
117             	3.48322621e+02
118             	3.48460600e+02
119             	3.48592822e+02
120             	3.48721639e+02
121             	3.48845051e+02
122             	3.48966069e+02
123             	3.49082109e+02
124             	3.49200687e+02
125             	3.49317343e+02
126             	3.49436507e+02
127             	3.49555814e+02
128             	3.49674160e+02
129             	3.49790134e+02
130             	3.49903180e+02
131             	3.50014137e+02
132             	3.50122633e+02
133             	3.50228128e+02
134             	3.50330127e+02
135             	3.50428997e+02
136             	3.50524300e+02
137             	3.50616983e+02
138             	3.50706622e+02
139             	3.50793849e+02
140             	3.50879054e+02
141             	3.50961806e+02
142             	3.51044191e+02
143             	3.51126866e+02
144             	3.51209266e+02
145             	3.51290323e+02
146             	3.51370307e+02
147             	3.51448358e+02
148             	3.51523868e+02
149             	3.51597170e+02
150             	3.51668684e+02
151             	3.51738595e+02
152             	3.51807090e+02
153             	3.51873680e+02
154             	3.51938257e+02
155             	3.52001107e+02
156             	3.52062249e+02
157             	3.52121653e+02
158             	3.52179250e+02
159             	3.52234992e+02
160             	3.52288141e+02
161             	3.52340712e+02
162             	3.52392486e+02
163             	3.52443884e+02
164             	3.52495343e+02
165             	3.52546731e+02
166             	3.52597635e+02
167             	3.52647905e+02
168             	3.52696069e+02
169             	3.52742529e+02
170             	3.52787408e+02
171             	3.52830552e+02
172             	3.52872199e+02
173             	3.52912542e+02
174             	3.52951464e+02
175             	3.52989120e+02
176             	3.53025820e+02
177             	3.53061375e+02
178             	3.53096691e+02
179             	3.53132010e+02
180             	3.53167094e+02
181             	3.53202006e+02
182             	3.53236744e+02
183             	3.53271397e+02
184             	3.53305097e+02
185             	3.53338094e+02
186             	3.53370260e+02
187             	3.53401278e+02
188             	3.53431041e+02
189             	3.53459551e+02
190             	3.53487034e+02
191             	3.53513964e+02
192             	3.53540235e+02
193             	3.53566133e+02
194             	3.53591596e+02
195             	3.53616506e+02
196             	3.53640592e+02
197             	3.53663364e+02
198             	3.53685317e+02
199             	3.53706498e+02
200             	3.53727083e+02
201             	3.53747431e+02
202             	3.53767928e+02
203             	3.53789147e+02
204             	3.53810473e+02
205             	3.53831518e+02
206             	3.53852115e+02
207             	3.53872074e+02
208             	3.53891312e+02
209             	3.53909421e+02
210             	3.53926327e+02
211             	3.53942285e+02
212             	3.53957411e+02
213             	3.53971813e+02
214             	3.53985719e+02
215             	3.53999385e+02
216             	3.54013216e+02
217             	3.54027226e+02
218             	3.54041279e+02
219             	3.54055295e+02
220             	3.54069087e+02
221             	3.54082516e+02
222             	3.54095298e+02
223             	3.54107451e+02
224             	3.54118886e+02
225             	3.54129928e+02
226             	3.54140830e+02
227             	3.54151706e+02
228             	3.54162544e+02
229             	3.54173654e+02
230             	3.54185353e+02
231             	3.54197267e+02
232             	3.54209221e+02
233             	3.54220795e+02
234             	3.54231769e+02
235             	3.54242053e+02
236             	3.54251453e+02
237             	3.54259943e+02
238             	3.54267704e+02
239             	3.54274945e+02
240             	3.54281889e+02
241             	3.54288645e+02
242             	3.54295286e+02
243             	3.54301858e+02
244             	3.54308356e+02
245             	3.54314796e+02
246             	3.54321195e+02
247             	3.54327744e+02
248             	3.54334824e+02
249             	3.54342241e+02
250             	3.54350004e+02
251             	3.54357928e+02
252             	3.54365744e+02
253             	3.54373103e+02
254             	3.54379770e+02
255             	3.54385578e+02
256             	3.54390699e+02
257             	3.54395391e+02
258             	3.54400022e+02
259             	3.54404771e+02
260             	3.54409785e+02
261             	3.54415191e+02
262             	3.54420873e+02
263             	3.54426716e+02
264             	3.54432538e+02
265             	3.54438151e+02
266             	3.54443505e+02
267             	3.54448560e+02
268             	3.54453296e+02
269             	3.54457698e+02
270             	3.54461564e+02
271             	3.54465042e+02
272             	3.54468249e+02
273             	3.54471266e+02
274             	3.54474236e+02
275             	3.54477299e+02
276             	3.54480557e+02
277             	3.54484088e+02
278             	3.54487887e+02
279             	3.54491923e+02
280             	3.54496123e+02
281             	3.54500524e+02
282             	3.54505086e+02
283             	3.54509735e+02
284             	3.54514333e+02
285             	3.54518764e+02
286             	3.54522938e+02
287             	3.54526801e+02
288             	3.54530352e+02
289             	3.54533612e+02
290             	3.54536634e+02
291             	3.54539475e+02
292             	3.54542191e+02
293             	3.54544837e+02
294             	3.54547400e+02
295             	3.54549850e+02
296             	3.54552231e+02
297             	3.54554573e+02
298             	3.54556879e+02
299             	3.54559280e+02
300             	3.54561807e+02
301             	3.54564440e+02
302             	3.54567133e+02
303             	3.54569862e+02
304             	3.54572571e+02
305             	3.54575264e+02
306             	3.54577927e+02
307             	3.54580582e+02
308             	3.54583239e+02
309             	3.54585874e+02
310             	3.54588421e+02
311             	3.54590776e+02
312             	3.54593026e+02
313             	3.54595150e+02
314             	3.54597190e+02
315             	3.54599221e+02
316             	3.54601316e+02
317             	3.54603512e+02
318             	3.54605821e+02
319             	3.54608191e+02
320             	3.54610618e+02
321             	3.54613065e+02
322             	3.54615477e+02
323             	3.54617865e+02
324             	3.54620223e+02
325             	3.54622537e+02
326             	3.54624822e+02
327             	3.54627107e+02
328             	3.54629389e+02
329             	3.54631681e+02
330             	3.54633993e+02
331             	3.54636337e+02
332             	3.54638713e+02
333             	3.54641096e+02
334             	3.54643424e+02
335             	3.54645699e+02
336             	3.54647920e+02
337             	3.54650088e+02
338             	3.54652210e+02
339             	3.54654294e+02
340             	3.54656383e+02
341             	3.54658511e+02
342             	3.54660668e+02
343             	3.54662844e+02
344             	3.54665023e+02
345             	3.54667191e+02
346             	3.54669335e+02
347             	3.54671448e+02
348             	3.54673517e+02
349             	3.54675529e+02
350             	3.54677465e+02
351             	3.54679329e+02
352             	3.54681114e+02
353             	3.54682856e+02
354             	3.54684587e+02
355             	3.54686326e+02
356             	3.54688097e+02
357             	3.54689917e+02
358             	3.54691804e+02
359             	3.54693776e+02
360             	3.54695834e+02
361             	3.54697955e+02
362             	3.54700112e+02
363             	3.54702288e+02
364             	3.54704480e+02
365             	3.54706688e+02
366             	3.54708888e+02
367             	3.54711066e+02
368             	3.54713200e+02
369             	3.54715277e+02
370             	3.54717298e+02
371             	3.54719262e+02
372             	3.54721172e+02
373             	3.54723038e+02
374             	3.54724864e+02
375             	3.54726663e+02
376             	3.54728447e+02
377             	3.54730223e+02
378             	3.54732003e+02
379             	3.54733803e+02
380             	3.54735641e+02
381             	3.54737509e+02
382             	3.54739401e+02
383             	3.54741306e+02
384             	3.54743221e+02
385             	3.54745146e+02
386             	3.54747072e+02
387             	3.54748992e+02
388             	3.54750900e+02
389             	3.54752791e+02
390             	3.54754662e+02
391             	3.54756511e+02
392             	3.54758321e+02
393             	3.54760061e+02
394             	3.54761742e+02
395             	3.54763371e+02
396             	3.54764955e+02
397             	3.54766521e+02
398             	3.54768088e+02
399             	3.54769678e+02
400             	3.54771306e+02
401             	3.54772979e+02
402             	3.54774700e+02
403             	3.54776471e+02
404             	3.54778288e+02
405             	3.54780146e+02
406             	3.54782039e+02
407             	3.54783957e+02
408             	3.54785890e+02
409             	3.54787830e+02
410             	3.54789769e+02
411             	3.54791703e+02
412             	3.54793632e+02
413             	3.54795556e+02
414             	3.54797479e+02
415             	3.54799407e+02
416             	3.54801344e+02
417             	3.54803298e+02
418             	3.54805276e+02
419             	3.54807270e+02
420             	3.54809290e+02
421             	3.54811330e+02
422             	3.54813380e+02
423             	3.54815427e+02
424             	3.54817469e+02
425             	3.54819502e+02
426             	3.54821528e+02
427             	3.54823546e+02
428             	3.54825549e+02
429             	3.54827535e+02
430             	3.54829505e+02
431             	3.54831461e+02
432             	3.54833406e+02
433             	3.54835345e+02
434             	3.54837281e+02
435             	3.54839215e+02
436             	3.54841148e+02
437             	3.54843075e+02
438             	3.54844994e+02
439             	3.54846904e+02
440             	3.54848804e+02
441             	3.54850698e+02
442             	3.54852576e+02
443             	3.54854435e+02
444             	3.54856274e+02
445             	3.54858098e+02
446             	3.54859905e+02
447             	3.54861699e+02
448             	3.54863489e+02
449             	3.54865281e+02
450             	3.54867075e+02
451             	3.54868873e+02
452             	3.54870661e+02
453             	3.54872434e+02
454             	3.54874236e+02
455             	3.54876051e+02
456             	3.54877870e+02
457             	3.54879688e+02
458             	3.54881504e+02
459             	3.54883338e+02
460             	3.54885190e+02
461             	3.54887024e+02
462             	3.54888829e+02
463             	3.54890606e+02
464             	3.54892355e+02
465             	3.54894091e+02
466             	3.54895817e+02
467             	3.54897548e+02
468             	3.54899297e+02
469             	3.54901066e+02
470             	3.54902867e+02
471             	3.54904692e+02
472             	3.54906508e+02
473             	3.54908298e+02
474             	3.54910050e+02
475             	3.54911758e+02
476             	3.54913431e+02
477             	3.54915087e+02
478             	3.54916742e+02
479             	3.54918430e+02
480             	3.54920158e+02
481             	3.54921917e+02
482             	3.54923698e+02
483             	3.54925486e+02
484             	3.54927266e+02
485             	3.54929030e+02
486             	3.54930768e+02
487             	3.54932489e+02
488             	3.54934203e+02
489             	3.54935910e+02
490             	3.54937618e+02
491             	3.54939315e+02
492             	3.54941016e+02
493             	3.54942713e+02
494             	3.54944387e+02
495             	3.54946039e+02
496             	3.54947676e+02
497             	3.54949307e+02
498             	3.54950934e+02
499             	3.54952561e+02
500             	3.54954187e+02
501             	3.54955809e+02
502             	3.54957429e+02
503             	3.54959040e+02
504             	3.54960635e+02
505             	3.54962224e+02
506             	3.54963808e+02
507             	3.54965393e+02
508             	3.54966992e+02
509             	3.54968615e+02
510             	3.54970260e+02
511             	3.54971930e+02
512             	3.54973617e+02
513             	3.54975309e+02
514             	3.54976992e+02
515             	3.54978656e+02
516             	3.54980296e+02
517             	3.54981910e+02
518             	3.54983501e+02
519             	3.54985085e+02
520             	3.54986664e+02
521             	3.54988243e+02
522             	3.54989818e+02
523             	3.54991390e+02
524             	3.54992960e+02
525             	3.54994521e+02
526             	3.54996076e+02
527             	3.54997623e+02
528             	3.54999162e+02
529             	3.55000696e+02
530             	3.55002225e+02
531             	3.55003748e+02
532             	3.55005262e+02
533             	3.55006770e+02
534             	3.55008273e+02
535             	3.55009772e+02
536             	3.55011273e+02
537             	3.55012784e+02
538             	3.55014311e+02
539             	3.55015846e+02
540             	3.55017386e+02
541             	3.55018926e+02
542             	3.55020464e+02
543             	3.55021993e+02
544             	3.55023499e+02
545             	3.55024986e+02
546             	3.55026456e+02
547             	3.55027904e+02
548             	3.55029354e+02
549             	3.55030804e+02
550             	3.55032258e+02
551             	3.55033711e+02
552             	3.55035168e+02
553             	3.55036630e+02
554             	3.55038097e+02
555             	3.55039572e+02
556             	3.55041050e+02
557             	3.55042518e+02
558             	3.55043967e+02
559             	3.55045395e+02
560             	3.55046800e+02
561             	3.55048190e+02
562             	3.55049575e+02
563             	3.55050959e+02
564             	3.55052346e+02
565             	3.55053740e+02
566             	3.55055134e+02
567             	3.55056534e+02
568             	3.55057935e+02
569             	3.55059336e+02
570             	3.55060731e+02
571             	3.55062123e+02
572             	3.55063511e+02
573             	3.55064896e+02
574             	3.55066279e+02
575             	3.55067660e+02
576             	3.55069038e+02
577             	3.55070412e+02
578             	3.55071779e+02
579             	3.55073134e+02
580             	3.55074476e+02
581             	3.55075805e+02
582             	3.55077123e+02
583             	3.55078437e+02
584             	3.55079745e+02
585             	3.55081054e+02
586             	3.55082370e+02
587             	3.55083687e+02
588             	3.55085006e+02
589             	3.55086326e+02
590             	3.55087643e+02
591             	3.55088955e+02
592             	3.55090261e+02
593             	3.55091559e+02
594             	3.55092848e+02
595             	3.55094126e+02
596             	3.55095397e+02
597             	3.55096662e+02
598             	3.55097922e+02
599             	3.55099179e+02
600             	3.55100433e+02
601             	3.55101683e+02
602             	3.55102930e+02
603             	3.55104173e+02
604             	3.55105413e+02
605             	3.55106648e+02
606             	3.55107881e+02
607             	3.55109108e+02
608             	3.55110330e+02
609             	3.55111547e+02
610             	3.55112759e+02
611             	3.55113967e+02
612             	3.55115170e+02
613             	3.55116374e+02
614             	3.55117575e+02
615             	3.55118776e+02
616             	3.55119977e+02
617             	3.55121177e+02
618             	3.55122376e+02
619             	3.55123573e+02
620             	3.55124762e+02
621             	3.55125945e+02
