# Region        : cellZone component_1
# Cells         : 132
# Volume        : 2.19058029e-01
# Time          	volAverage(T)
1               	3.02155594e+02
2               	3.04269918e+02
3               	3.06063475e+02
4               	3.07654454e+02
5               	3.09185357e+02
6               	3.10693050e+02
7               	3.12174410e+02
8               	3.13625069e+02
9               	3.15046779e+02
10              	3.16447648e+02
11              	3.17832637e+02
12              	3.19166563e+02
13              	3.20438914e+02
14              	3.21687951e+02
15              	3.22913625e+02
16              	3.24037848e+02
17              	3.25080725e+02
18              	3.26019695e+02
19              	3.26887418e+02
20              	3.27745449e+02
21              	3.28710454e+02
22              	3.29673138e+02
23              	3.30594783e+02
24              	3.31470248e+02
25              	3.32327927e+02
26              	3.33151071e+02
27              	3.33936363e+02
28              	3.34682903e+02
29              	3.35407752e+02
30              	3.36094561e+02
31              	3.36794857e+02
32              	3.37507198e+02
33              	3.38219238e+02
34              	3.38901930e+02
35              	3.39576442e+02
36              	3.40157383e+02
37              	3.40607619e+02
38              	3.41037024e+02
39              	3.41517542e+02
40              	3.41979662e+02
41              	3.42420381e+02
42              	3.42843218e+02
43              	3.43255299e+02
44              	3.43614047e+02
45              	3.43906936e+02
46              	3.44198372e+02
47              	3.44502018e+02
48              	3.44813122e+02
49              	3.45146609e+02
50              	3.45536398e+02
51              	3.45913032e+02
52              	3.46169477e+02
53              	3.46354249e+02
54              	3.46512936e+02
55              	3.46709652e+02
56              	3.46931328e+02
57              	3.47131112e+02
58              	3.47314884e+02
59              	3.47466341e+02
60              	3.47605885e+02
61              	3.47736431e+02
62              	3.47855965e+02
63              	3.47971244e+02
64              	3.48101250e+02
65              	3.48259062e+02
66              	3.48434895e+02
67              	3.48621781e+02
68              	3.48837414e+02
69              	3.49081974e+02
70              	3.49349335e+02
71              	3.49633537e+02
72              	3.49940194e+02
73              	3.50251675e+02
74              	3.50582387e+02
75              	3.50875400e+02
76              	3.51130225e+02
77              	3.51374127e+02
78              	3.51578094e+02
79              	3.51738989e+02
80              	3.51875860e+02
81              	3.51967771e+02
82              	3.52029544e+02
83              	3.52063240e+02
84              	3.52107532e+02
85              	3.52172992e+02
86              	3.52252168e+02
87              	3.52350234e+02
88              	3.52470319e+02
89              	3.52624874e+02
90              	3.52791291e+02
91              	3.52940489e+02
92              	3.53078748e+02
93              	3.53186376e+02
94              	3.53257860e+02
95              	3.53308460e+02
96              	3.53354105e+02
97              	3.53408231e+02
98              	3.53456837e+02
99              	3.53493944e+02
100             	3.53528298e+02
101             	3.53549194e+02
102             	3.53580544e+02
103             	3.53629138e+02
104             	3.53704719e+02
105             	3.53802087e+02
106             	3.53912588e+02
107             	3.54031950e+02
108             	3.54158798e+02
109             	3.54288484e+02
110             	3.54414860e+02
111             	3.54537408e+02
112             	3.54654742e+02
113             	3.54766814e+02
114             	3.54874252e+02
115             	3.54975293e+02
116             	3.55070933e+02
117             	3.55165149e+02
118             	3.55257816e+02
119             	3.55350930e+02
120             	3.55443467e+02
121             	3.55533642e+02
122             	3.55619830e+02
123             	3.55700819e+02
124             	3.55780825e+02
125             	3.55856264e+02
126             	3.55928793e+02
127             	3.56000157e+02
128             	3.56074088e+02
129             	3.56149385e+02
130             	3.56225163e+02
131             	3.56304270e+02
132             	3.56386265e+02
133             	3.56472787e+02
134             	3.56565103e+02
135             	3.56662790e+02
136             	3.56764276e+02
137             	3.56866227e+02
138             	3.56964501e+02
139             	3.57044433e+02
140             	3.57125552e+02
141             	3.57207880e+02
142             	3.57282103e+02
143             	3.57347428e+02
144             	3.57404238e+02
145             	3.57455499e+02
146             	3.57506801e+02
147             	3.57558211e+02
148             	3.57607216e+02
149             	3.57657228e+02
150             	3.57703695e+02
151             	3.57752391e+02
152             	3.57802691e+02
153             	3.57851743e+02
154             	3.57897045e+02
155             	3.57941883e+02
156             	3.57990881e+02
157             	3.58035133e+02
158             	3.58085421e+02
159             	3.58138315e+02
160             	3.58190605e+02
161             	3.58245024e+02
162             	3.58302723e+02
163             	3.58364206e+02
164             	3.58425038e+02
165             	3.58482190e+02
166             	3.58534663e+02
167             	3.58582864e+02
168             	3.58627766e+02
169             	3.58670463e+02
170             	3.58708453e+02
171             	3.58743580e+02
172             	3.58781897e+02
173             	3.58820300e+02
174             	3.58859796e+02
175             	3.58897844e+02
176             	3.58933813e+02
177             	3.58969385e+02
178             	3.59007377e+02
179             	3.59046491e+02
180             	3.59084653e+02
181             	3.59118684e+02
182             	3.59152161e+02
183             	3.59181223e+02
184             	3.59208020e+02
185             	3.59231757e+02
186             	3.59256729e+02
187             	3.59282630e+02
188             	3.59308566e+02
189             	3.59334347e+02
190             	3.59360374e+02
191             	3.59386664e+02
192             	3.59412099e+02
193             	3.59436864e+02
194             	3.59463151e+02
195             	3.59491709e+02
196             	3.59519373e+02
197             	3.59547489e+02
198             	3.59577515e+02
199             	3.59606920e+02
200             	3.59635002e+02
201             	3.59662667e+02
202             	3.59690265e+02
203             	3.59717903e+02
204             	3.59744425e+02
205             	3.59769978e+02
206             	3.59794907e+02
207             	3.59819213e+02
208             	3.59842668e+02
209             	3.59864875e+02
210             	3.59885567e+02
211             	3.59904069e+02
212             	3.59920692e+02
213             	3.59936307e+02
214             	3.59948742e+02
215             	3.59960881e+02
216             	3.59973046e+02
217             	3.59984156e+02
218             	3.59994569e+02
219             	3.60004912e+02
220             	3.60015721e+02
221             	3.60027262e+02
222             	3.60039686e+02
223             	3.60053112e+02
224             	3.60067312e+02
225             	3.60082014e+02
226             	3.60096992e+02
227             	3.60112214e+02
228             	3.60127859e+02
229             	3.60145433e+02
230             	3.60162347e+02
231             	3.60178786e+02
232             	3.60195282e+02
233             	3.60211862e+02
234             	3.60228304e+02
235             	3.60244442e+02
236             	3.60260191e+02
237             	3.60275629e+02
238             	3.60289834e+02
239             	3.60302618e+02
240             	3.60315476e+02
241             	3.60327681e+02
242             	3.60338991e+02
243             	3.60349360e+02
244             	3.60359421e+02
245             	3.60368771e+02
246             	3.60377571e+02
247             	3.60386037e+02
248             	3.60394334e+02
249             	3.60402559e+02
250             	3.60410821e+02
251             	3.60419114e+02
252             	3.60427752e+02
253             	3.60437070e+02
254             	3.60446783e+02
255             	3.60457089e+02
256             	3.60468159e+02
257             	3.60479286e+02
258             	3.60490129e+02
259             	3.60501750e+02
260             	3.60512881e+02
261             	3.60523625e+02
262             	3.60534627e+02
263             	3.60545817e+02
264             	3.60557014e+02
265             	3.60568188e+02
266             	3.60579143e+02
267             	3.60588906e+02
268             	3.60598500e+02
269             	3.60606466e+02
270             	3.60613967e+02
271             	3.60621047e+02
272             	3.60627737e+02
273             	3.60633924e+02
274             	3.60639307e+02
275             	3.60644395e+02
276             	3.60649407e+02
277             	3.60654253e+02
278             	3.60659205e+02
279             	3.60663508e+02
280             	3.60667681e+02
281             	3.60671686e+02
282             	3.60675344e+02
283             	3.60678962e+02
284             	3.60682676e+02
285             	3.60686002e+02
286             	3.60689406e+02
287             	3.60693054e+02
288             	3.60697016e+02
289             	3.60701264e+02
290             	3.60705775e+02
291             	3.60710459e+02
292             	3.60715090e+02
293             	3.60719534e+02
294             	3.60723871e+02
295             	3.60728089e+02
296             	3.60732333e+02
297             	3.60736672e+02
298             	3.60740951e+02
299             	3.60744937e+02
300             	3.60748773e+02
301             	3.60752475e+02
302             	3.60756076e+02
303             	3.60759892e+02
304             	3.60763674e+02
305             	3.60767291e+02
306             	3.60770753e+02
307             	3.60774030e+02
308             	3.60777103e+02
309             	3.60780241e+02
310             	3.60783448e+02
311             	3.60786680e+02
312             	3.60790051e+02
313             	3.60793678e+02
314             	3.60797518e+02
315             	3.60801488e+02
316             	3.60805563e+02
317             	3.60809670e+02
318             	3.60813861e+02
319             	3.60818015e+02
320             	3.60822320e+02
321             	3.60826697e+02
322             	3.60830984e+02
323             	3.60835107e+02
324             	3.60839073e+02
325             	3.60842891e+02
326             	3.60846485e+02
327             	3.60849867e+02
328             	3.60853055e+02
329             	3.60856309e+02
330             	3.60859340e+02
331             	3.60862067e+02
332             	3.60864692e+02
333             	3.60867187e+02
334             	3.60869484e+02
335             	3.60871450e+02
336             	3.60873051e+02
337             	3.60874453e+02
338             	3.60875693e+02
339             	3.60876739e+02
340             	3.60877582e+02
341             	3.60878250e+02
342             	3.60878798e+02
343             	3.60879279e+02
344             	3.60879724e+02
345             	3.60880131e+02
346             	3.60880479e+02
347             	3.60880848e+02
348             	3.60881316e+02
349             	3.60881835e+02
350             	3.60882378e+02
351             	3.60883068e+02
352             	3.60883840e+02
353             	3.60884676e+02
354             	3.60885557e+02
355             	3.60886512e+02
356             	3.60887542e+02
357             	3.60888737e+02
358             	3.60890087e+02
359             	3.60891465e+02
360             	3.60892981e+02
361             	3.60894515e+02
362             	3.60896089e+02
363             	3.60897671e+02
364             	3.60899255e+02
365             	3.60900843e+02
366             	3.60902506e+02
367             	3.60904252e+02
368             	3.60906095e+02
369             	3.60907974e+02
370             	3.60909868e+02
371             	3.60911797e+02
372             	3.60913723e+02
373             	3.60915600e+02
374             	3.60917399e+02
375             	3.60919164e+02
376             	3.60920915e+02
377             	3.60922677e+02
378             	3.60924380e+02
379             	3.60926028e+02
380             	3.60927620e+02
381             	3.60929107e+02
382             	3.60930460e+02
383             	3.60931750e+02
384             	3.60933071e+02
385             	3.60934206e+02
386             	3.60935213e+02
387             	3.60936161e+02
388             	3.60937070e+02
389             	3.60937906e+02
390             	3.60938653e+02
391             	3.60939289e+02
392             	3.60939838e+02
393             	3.60940303e+02
394             	3.60940683e+02
395             	3.60940964e+02
396             	3.60941183e+02
397             	3.60941371e+02
398             	3.60941579e+02
399             	3.60941869e+02
400             	3.60942210e+02
401             	3.60942569e+02
402             	3.60942836e+02
403             	3.60943037e+02
404             	3.60943194e+02
405             	3.60943319e+02
406             	3.60943436e+02
407             	3.60943566e+02
408             	3.60943798e+02
409             	3.60944003e+02
410             	3.60944220e+02
411             	3.60944426e+02
412             	3.60944617e+02
413             	3.60944791e+02
414             	3.60944991e+02
415             	3.60945200e+02
416             	3.60945419e+02
417             	3.60945661e+02
418             	3.60945940e+02
419             	3.60946263e+02
420             	3.60946604e+02
421             	3.60946970e+02
422             	3.60947398e+02
423             	3.60947848e+02
424             	3.60948306e+02
425             	3.60948766e+02
426             	3.60949231e+02
427             	3.60949677e+02
428             	3.60950121e+02
429             	3.60950573e+02
430             	3.60951012e+02
431             	3.60951497e+02
432             	3.60952016e+02
433             	3.60952544e+02
434             	3.60953055e+02
435             	3.60953564e+02
436             	3.60954200e+02
437             	3.60954764e+02
438             	3.60955268e+02
439             	3.60955786e+02
440             	3.60956340e+02
441             	3.60956911e+02
442             	3.60957495e+02
443             	3.60958095e+02
444             	3.60958726e+02
445             	3.60959358e+02
446             	3.60960021e+02
447             	3.60960695e+02
448             	3.60961388e+02
449             	3.60962051e+02
450             	3.60962714e+02
451             	3.60963323e+02
452             	3.60963873e+02
453             	3.60964376e+02
454             	3.60964829e+02
455             	3.60965316e+02
456             	3.60965736e+02
457             	3.60966114e+02
458             	3.60966484e+02
459             	3.60966791e+02
460             	3.60967072e+02
461             	3.60967320e+02
462             	3.60967547e+02
463             	3.60967733e+02
464             	3.60967859e+02
465             	3.60967915e+02
466             	3.60967906e+02
467             	3.60967934e+02
468             	3.60967887e+02
469             	3.60967878e+02
470             	3.60967854e+02
471             	3.60967814e+02
472             	3.60967787e+02
473             	3.60967684e+02
474             	3.60967617e+02
475             	3.60967468e+02
476             	3.60967348e+02
477             	3.60967182e+02
478             	3.60966979e+02
479             	3.60966766e+02
480             	3.60966536e+02
481             	3.60966297e+02
482             	3.60966070e+02
483             	3.60965860e+02
484             	3.60965701e+02
485             	3.60965590e+02
486             	3.60965547e+02
487             	3.60965560e+02
488             	3.60965625e+02
489             	3.60965688e+02
490             	3.60965750e+02
491             	3.60965876e+02
492             	3.60966114e+02
493             	3.60966313e+02
494             	3.60966603e+02
495             	3.60966879e+02
496             	3.60967209e+02
497             	3.60967578e+02
498             	3.60967933e+02
499             	3.60968358e+02
500             	3.60968833e+02
501             	3.60969318e+02
502             	3.60969801e+02
503             	3.60970272e+02
504             	3.60970716e+02
505             	3.60971136e+02
506             	3.60971490e+02
507             	3.60971845e+02
508             	3.60972184e+02
509             	3.60972509e+02
510             	3.60972842e+02
511             	3.60973168e+02
512             	3.60973450e+02
513             	3.60973754e+02
514             	3.60974075e+02
515             	3.60974366e+02
516             	3.60974635e+02
517             	3.60974855e+02
518             	3.60975025e+02
519             	3.60975156e+02
520             	3.60975243e+02
521             	3.60975283e+02
522             	3.60975280e+02
523             	3.60975244e+02
524             	3.60975180e+02
525             	3.60975091e+02
526             	3.60975003e+02
527             	3.60974912e+02
528             	3.60974817e+02
529             	3.60974679e+02
530             	3.60974535e+02
531             	3.60974371e+02
532             	3.60974181e+02
533             	3.60974036e+02
534             	3.60973867e+02
535             	3.60973727e+02
536             	3.60973608e+02
537             	3.60973494e+02
538             	3.60973393e+02
539             	3.60973210e+02
540             	3.60973079e+02
541             	3.60972973e+02
542             	3.60972852e+02
543             	3.60972744e+02
544             	3.60972610e+02
545             	3.60972469e+02
546             	3.60972350e+02
547             	3.60972249e+02
548             	3.60972189e+02
549             	3.60972157e+02
550             	3.60972172e+02
551             	3.60972214e+02
552             	3.60972288e+02
553             	3.60972427e+02
554             	3.60972542e+02
555             	3.60972633e+02
556             	3.60972764e+02
557             	3.60972901e+02
558             	3.60973075e+02
559             	3.60973214e+02
560             	3.60973445e+02
561             	3.60973646e+02
562             	3.60973892e+02
563             	3.60974144e+02
564             	3.60974366e+02
565             	3.60974586e+02
566             	3.60974873e+02
567             	3.60975112e+02
568             	3.60975352e+02
569             	3.60975584e+02
570             	3.60975784e+02
571             	3.60975962e+02
572             	3.60976111e+02
573             	3.60976244e+02
574             	3.60976363e+02
575             	3.60976463e+02
576             	3.60976570e+02
577             	3.60976667e+02
578             	3.60976754e+02
579             	3.60976808e+02
580             	3.60976884e+02
581             	3.60976978e+02
582             	3.60977081e+02
583             	3.60977156e+02
584             	3.60977231e+02
585             	3.60977285e+02
586             	3.60977317e+02
587             	3.60977323e+02
588             	3.60977303e+02
589             	3.60977259e+02
590             	3.60977195e+02
591             	3.60977138e+02
592             	3.60977043e+02
593             	3.60976910e+02
594             	3.60976789e+02
595             	3.60976651e+02
596             	3.60976485e+02
597             	3.60976285e+02
598             	3.60976064e+02
599             	3.60975845e+02
600             	3.60975617e+02
601             	3.60975374e+02
602             	3.60975119e+02
603             	3.60974876e+02
604             	3.60974643e+02
605             	3.60974424e+02
606             	3.60974226e+02
607             	3.60974044e+02
608             	3.60973879e+02
609             	3.60973728e+02
610             	3.60973597e+02
611             	3.60973507e+02
612             	3.60973447e+02
613             	3.60973408e+02
614             	3.60973391e+02
615             	3.60973399e+02
616             	3.60973468e+02
617             	3.60973542e+02
618             	3.60973626e+02
619             	3.60973736e+02
620             	3.60973869e+02
621             	3.60974035e+02
