# Region        : cellZone component_4
# Cells         : 286
# Volume        : 5.73139858e-01
# Time          	volAverage(T)
1               	3.00074013e+02
2               	3.00147598e+02
3               	3.00218628e+02
4               	3.00287894e+02
5               	3.00355924e+02
6               	3.00423003e+02
7               	3.00489248e+02
8               	3.00554927e+02
9               	3.00620229e+02
10              	3.00685284e+02
11              	3.00749857e+02
12              	3.00814341e+02
13              	3.00877239e+02
14              	3.00938698e+02
15              	3.00998954e+02
16              	3.01058528e+02
17              	3.01116738e+02
18              	3.01176524e+02
19              	3.01235160e+02
20              	3.01292596e+02
21              	3.01348859e+02
22              	3.01403710e+02
23              	3.01458562e+02
24              	3.01511387e+02
25              	3.01563157e+02
26              	3.01614320e+02
27              	3.01664907e+02
28              	3.01714656e+02
29              	3.01763552e+02
30              	3.01810974e+02
31              	3.01858386e+02
32              	3.01906196e+02
33              	3.01954022e+02
34              	3.02000324e+02
35              	3.02046154e+02
36              	3.02090314e+02
37              	3.02132949e+02
38              	3.02174252e+02
39              	3.02216942e+02
40              	3.02259174e+02
41              	3.02303036e+02
42              	3.02345057e+02
43              	3.02387252e+02
44              	3.02427350e+02
45              	3.02469121e+02
46              	3.02510629e+02
47              	3.02554453e+02
48              	3.02598359e+02
49              	3.02641451e+02
50              	3.02683021e+02
51              	3.02723738e+02
52              	3.02763224e+02
53              	3.02802662e+02
54              	3.02839264e+02
55              	3.02875093e+02
56              	3.02911423e+02
57              	3.02948180e+02
58              	3.02984722e+02
59              	3.03023162e+02
60              	3.03059227e+02
61              	3.03090570e+02
62              	3.03120152e+02
63              	3.03150868e+02
64              	3.03182091e+02
65              	3.03214002e+02
66              	3.03245030e+02
67              	3.03276254e+02
68              	3.03306591e+02
69              	3.03336890e+02
70              	3.03366477e+02
71              	3.03395846e+02
72              	3.03425228e+02
73              	3.03456116e+02
74              	3.03487646e+02
75              	3.03519778e+02
76              	3.03553255e+02
77              	3.03587051e+02
78              	3.03621080e+02
79              	3.03655427e+02
80              	3.03689560e+02
81              	3.03722783e+02
82              	3.03755653e+02
83              	3.03788537e+02
84              	3.03821333e+02
85              	3.03854011e+02
86              	3.03886825e+02
87              	3.03919122e+02
88              	3.03951147e+02
89              	3.03982745e+02
90              	3.04014340e+02
91              	3.04045810e+02
92              	3.04075989e+02
93              	3.04106128e+02
94              	3.04136241e+02
95              	3.04165968e+02
96              	3.04195199e+02
97              	3.04224709e+02
98              	3.04254040e+02
99              	3.04283726e+02
100             	3.04312499e+02
101             	3.04341979e+02
102             	3.04371115e+02
103             	3.04400354e+02
104             	3.04429591e+02
105             	3.04458355e+02
106             	3.04486593e+02
107             	3.04513857e+02
108             	3.04540393e+02
109             	3.04566214e+02
110             	3.04591375e+02
111             	3.04615967e+02
112             	3.04640108e+02
113             	3.04664174e+02
114             	3.04688283e+02
115             	3.04712052e+02
116             	3.04736457e+02
117             	3.04761067e+02
118             	3.04785812e+02
119             	3.04810545e+02
120             	3.04835380e+02
121             	3.04859894e+02
122             	3.04884459e+02
123             	3.04909010e+02
124             	3.04933464e+02
125             	3.04957139e+02
126             	3.04980899e+02
127             	3.05004368e+02
128             	3.05027378e+02
129             	3.05049757e+02
130             	3.05071597e+02
131             	3.05093087e+02
132             	3.05114569e+02
133             	3.05135818e+02
134             	3.05156965e+02
135             	3.05177814e+02
136             	3.05198923e+02
137             	3.05220160e+02
138             	3.05241682e+02
139             	3.05263394e+02
140             	3.05285095e+02
141             	3.05306582e+02
142             	3.05328006e+02
143             	3.05349021e+02
144             	3.05369507e+02
145             	3.05389722e+02
146             	3.05409295e+02
147             	3.05428440e+02
148             	3.05447258e+02
149             	3.05465889e+02
150             	3.05484298e+02
151             	3.05502707e+02
152             	3.05521223e+02
153             	3.05539779e+02
154             	3.05558281e+02
155             	3.05576886e+02
156             	3.05595678e+02
157             	3.05614604e+02
158             	3.05633693e+02
159             	3.05652842e+02
160             	3.05672051e+02
161             	3.05691489e+02
162             	3.05710894e+02
163             	3.05730232e+02
164             	3.05749186e+02
165             	3.05767784e+02
166             	3.05786078e+02
167             	3.05803937e+02
168             	3.05821733e+02
169             	3.05839167e+02
170             	3.05856079e+02
171             	3.05872979e+02
172             	3.05889811e+02
173             	3.05906474e+02
174             	3.05922830e+02
175             	3.05939018e+02
176             	3.05955109e+02
177             	3.05970866e+02
178             	3.05986858e+02
179             	3.06002903e+02
180             	3.06018933e+02
181             	3.06034804e+02
182             	3.06050591e+02
183             	3.06066422e+02
184             	3.06082219e+02
185             	3.06098057e+02
186             	3.06113857e+02
187             	3.06129463e+02
188             	3.06145150e+02
189             	3.06160705e+02
190             	3.06175947e+02
191             	3.06190962e+02
192             	3.06205768e+02
193             	3.06220445e+02
194             	3.06234813e+02
195             	3.06249405e+02
196             	3.06263981e+02
197             	3.06278486e+02
198             	3.06293045e+02
199             	3.06307364e+02
200             	3.06321486e+02
201             	3.06335537e+02
202             	3.06349367e+02
203             	3.06363086e+02
204             	3.06376671e+02
205             	3.06390224e+02
206             	3.06403752e+02
207             	3.06417373e+02
208             	3.06430816e+02
209             	3.06444087e+02
210             	3.06457164e+02
211             	3.06470152e+02
212             	3.06483040e+02
213             	3.06495849e+02
214             	3.06508547e+02
215             	3.06521282e+02
216             	3.06533933e+02
217             	3.06546550e+02
218             	3.06559091e+02
219             	3.06571663e+02
220             	3.06584139e+02
221             	3.06596461e+02
222             	3.06608718e+02
223             	3.06620854e+02
224             	3.06632884e+02
225             	3.06644888e+02
226             	3.06656845e+02
227             	3.06668797e+02
228             	3.06680659e+02
229             	3.06692363e+02
230             	3.06703930e+02
231             	3.06715457e+02
232             	3.06726935e+02
233             	3.06738464e+02
234             	3.06749971e+02
235             	3.06761471e+02
236             	3.06772940e+02
237             	3.06784336e+02
238             	3.06795582e+02
239             	3.06806623e+02
240             	3.06817491e+02
241             	3.06828205e+02
242             	3.06838805e+02
243             	3.06849287e+02
244             	3.06859628e+02
245             	3.06869817e+02
246             	3.06879928e+02
247             	3.06889880e+02
248             	3.06899762e+02
249             	3.06909504e+02
250             	3.06919146e+02
251             	3.06928677e+02
252             	3.06938101e+02
253             	3.06947398e+02
254             	3.06956606e+02
255             	3.06965804e+02
256             	3.06975081e+02
257             	3.06984357e+02
258             	3.06993638e+02
259             	3.07002957e+02
260             	3.07012271e+02
261             	3.07021548e+02
262             	3.07030784e+02
263             	3.07039987e+02
264             	3.07049095e+02
265             	3.07058107e+02
266             	3.07067027e+02
267             	3.07075821e+02
268             	3.07084617e+02
269             	3.07093296e+02
270             	3.07102006e+02
271             	3.07110712e+02
272             	3.07119374e+02
273             	3.07128032e+02
274             	3.07136609e+02
275             	3.07145159e+02
276             	3.07153636e+02
277             	3.07162024e+02
278             	3.07170344e+02
279             	3.07178464e+02
280             	3.07186482e+02
281             	3.07194430e+02
282             	3.07202371e+02
283             	3.07210244e+02
284             	3.07218073e+02
285             	3.07225814e+02
286             	3.07233531e+02
287             	3.07241240e+02
288             	3.07248886e+02
289             	3.07256370e+02
290             	3.07263733e+02
291             	3.07270987e+02
292             	3.07278122e+02
293             	3.07285107e+02
294             	3.07292104e+02
295             	3.07299099e+02
296             	3.07306101e+02
297             	3.07313014e+02
298             	3.07319888e+02
299             	3.07326732e+02
300             	3.07333578e+02
301             	3.07340445e+02
302             	3.07347296e+02
303             	3.07354008e+02
304             	3.07360714e+02
305             	3.07367380e+02
306             	3.07373998e+02
307             	3.07380453e+02
308             	3.07386855e+02
309             	3.07393200e+02
310             	3.07399502e+02
311             	3.07405846e+02
312             	3.07412168e+02
313             	3.07418468e+02
314             	3.07424634e+02
315             	3.07430799e+02
316             	3.07436878e+02
317             	3.07442871e+02
318             	3.07448555e+02
319             	3.07454253e+02
320             	3.07459937e+02
321             	3.07465525e+02
322             	3.07471167e+02
323             	3.07476843e+02
324             	3.07482576e+02
325             	3.07488298e+02
326             	3.07494029e+02
327             	3.07499635e+02
328             	3.07505104e+02
329             	3.07510372e+02
330             	3.07515632e+02
331             	3.07520920e+02
332             	3.07526284e+02
333             	3.07531706e+02
334             	3.07536899e+02
335             	3.07542106e+02
336             	3.07547349e+02
337             	3.07552592e+02
338             	3.07557706e+02
339             	3.07562740e+02
340             	3.07567951e+02
341             	3.07572919e+02
342             	3.07577801e+02
343             	3.07582717e+02
344             	3.07587427e+02
345             	3.07592033e+02
346             	3.07596586e+02
347             	3.07600993e+02
348             	3.07605326e+02
349             	3.07609657e+02
350             	3.07614154e+02
351             	3.07618740e+02
352             	3.07623339e+02
353             	3.07627821e+02
354             	3.07632265e+02
355             	3.07636697e+02
356             	3.07640866e+02
357             	3.07645057e+02
358             	3.07649090e+02
359             	3.07653076e+02
360             	3.07657035e+02
361             	3.07661077e+02
362             	3.07665327e+02
363             	3.07669643e+02
364             	3.07673969e+02
365             	3.07678275e+02
366             	3.07682488e+02
367             	3.07686656e+02
368             	3.07690852e+02
369             	3.07695025e+02
370             	3.07699130e+02
371             	3.07703082e+02
372             	3.07707041e+02
373             	3.07710919e+02
374             	3.07714752e+02
375             	3.07718643e+02
376             	3.07722510e+02
377             	3.07726549e+02
378             	3.07730620e+02
379             	3.07734541e+02
380             	3.07738507e+02
381             	3.07742197e+02
382             	3.07745649e+02
383             	3.07749075e+02
384             	3.07752509e+02
385             	3.07755848e+02
386             	3.07759195e+02
387             	3.07762659e+02
388             	3.07766110e+02
389             	3.07769644e+02
390             	3.07773271e+02
391             	3.07776822e+02
392             	3.07780295e+02
393             	3.07783765e+02
394             	3.07787021e+02
395             	3.07790192e+02
396             	3.07793130e+02
397             	3.07796085e+02
398             	3.07798939e+02
399             	3.07801798e+02
400             	3.07804702e+02
401             	3.07807621e+02
402             	3.07810471e+02
403             	3.07813322e+02
404             	3.07816280e+02
405             	3.07819154e+02
406             	3.07822029e+02
407             	3.07824773e+02
408             	3.07827469e+02
409             	3.07830189e+02
410             	3.07832973e+02
411             	3.07835593e+02
412             	3.07838194e+02
413             	3.07840910e+02
414             	3.07843824e+02
415             	3.07846664e+02
416             	3.07849408e+02
417             	3.07852092e+02
418             	3.07854736e+02
419             	3.07857506e+02
420             	3.07860280e+02
421             	3.07862933e+02
422             	3.07865582e+02
423             	3.07868349e+02
424             	3.07870904e+02
425             	3.07873436e+02
426             	3.07875754e+02
427             	3.07878053e+02
428             	3.07880265e+02
429             	3.07882539e+02
430             	3.07884868e+02
431             	3.07887239e+02
432             	3.07889597e+02
433             	3.07891975e+02
434             	3.07894370e+02
435             	3.07896741e+02
436             	3.07899017e+02
437             	3.07901341e+02
438             	3.07903617e+02
439             	3.07905887e+02
440             	3.07908193e+02
441             	3.07910370e+02
442             	3.07912536e+02
443             	3.07914705e+02
444             	3.07916893e+02
445             	3.07919087e+02
446             	3.07921250e+02
447             	3.07923399e+02
448             	3.07925516e+02
449             	3.07927638e+02
450             	3.07929717e+02
451             	3.07931769e+02
452             	3.07933771e+02
453             	3.07935681e+02
454             	3.07937537e+02
455             	3.07939381e+02
456             	3.07941233e+02
457             	3.07943104e+02
458             	3.07945009e+02
459             	3.07946955e+02
460             	3.07948934e+02
461             	3.07950931e+02
462             	3.07952937e+02
463             	3.07954935e+02
464             	3.07956913e+02
465             	3.07958842e+02
466             	3.07960759e+02
467             	3.07962582e+02
468             	3.07964355e+02
469             	3.07966160e+02
470             	3.07968012e+02
471             	3.07969889e+02
472             	3.07971666e+02
473             	3.07973454e+02
474             	3.07975252e+02
475             	3.07976975e+02
476             	3.07978732e+02
477             	3.07980449e+02
478             	3.07982153e+02
479             	3.07983904e+02
480             	3.07985608e+02
481             	3.07987288e+02
482             	3.07988957e+02
483             	3.07990644e+02
484             	3.07992338e+02
485             	3.07994039e+02
486             	3.07995747e+02
487             	3.07997457e+02
488             	3.07999153e+02
489             	3.08000822e+02
490             	3.08002450e+02
491             	3.08004027e+02
492             	3.08005548e+02
493             	3.08007019e+02
494             	3.08008442e+02
495             	3.08009812e+02
496             	3.08011099e+02
497             	3.08012410e+02
498             	3.08013743e+02
499             	3.08015072e+02
500             	3.08016446e+02
501             	3.08017791e+02
502             	3.08019114e+02
503             	3.08020420e+02
504             	3.08021711e+02
505             	3.08022997e+02
506             	3.08024301e+02
507             	3.08025634e+02
508             	3.08026985e+02
509             	3.08028372e+02
510             	3.08029800e+02
511             	3.08031266e+02
512             	3.08032757e+02
513             	3.08034252e+02
514             	3.08035736e+02
515             	3.08037173e+02
516             	3.08038571e+02
517             	3.08039936e+02
518             	3.08041269e+02
519             	3.08042601e+02
520             	3.08043832e+02
521             	3.08044994e+02
522             	3.08046098e+02
523             	3.08047143e+02
524             	3.08048142e+02
525             	3.08049123e+02
526             	3.08049991e+02
527             	3.08050864e+02
528             	3.08051712e+02
529             	3.08052597e+02
530             	3.08053539e+02
531             	3.08054478e+02
532             	3.08055425e+02
533             	3.08056353e+02
534             	3.08057288e+02
535             	3.08058242e+02
536             	3.08059194e+02
537             	3.08060184e+02
538             	3.08061191e+02
539             	3.08062195e+02
540             	3.08063166e+02
541             	3.08064142e+02
542             	3.08065117e+02
543             	3.08066096e+02
544             	3.08067070e+02
545             	3.08068009e+02
546             	3.08068915e+02
547             	3.08069821e+02
548             	3.08070718e+02
549             	3.08071665e+02
550             	3.08072577e+02
551             	3.08073491e+02
552             	3.08074396e+02
553             	3.08075303e+02
554             	3.08076191e+02
555             	3.08077048e+02
556             	3.08077839e+02
557             	3.08078615e+02
558             	3.08079271e+02
559             	3.08079970e+02
560             	3.08080692e+02
561             	3.08081388e+02
562             	3.08082164e+02
563             	3.08082868e+02
564             	3.08083528e+02
565             	3.08084151e+02
566             	3.08084743e+02
567             	3.08085278e+02
568             	3.08085774e+02
569             	3.08086243e+02
570             	3.08086810e+02
571             	3.08087461e+02
572             	3.08088172e+02
573             	3.08088933e+02
574             	3.08089722e+02
575             	3.08090521e+02
576             	3.08091330e+02
577             	3.08092166e+02
578             	3.08093010e+02
579             	3.08093868e+02
580             	3.08094732e+02
581             	3.08095619e+02
582             	3.08096500e+02
583             	3.08097349e+02
584             	3.08098167e+02
585             	3.08098960e+02
586             	3.08099636e+02
587             	3.08100243e+02
588             	3.08100773e+02
589             	3.08101293e+02
590             	3.08101874e+02
591             	3.08102520e+02
592             	3.08103120e+02
593             	3.08103705e+02
594             	3.08104265e+02
595             	3.08104755e+02
596             	3.08105183e+02
597             	3.08105568e+02
598             	3.08105934e+02
599             	3.08106324e+02
600             	3.08106761e+02
601             	3.08107254e+02
602             	3.08107779e+02
603             	3.08108301e+02
604             	3.08108829e+02
605             	3.08109354e+02
606             	3.08109867e+02
607             	3.08110362e+02
608             	3.08110830e+02
609             	3.08111345e+02
610             	3.08111903e+02
611             	3.08112503e+02
612             	3.08113130e+02
613             	3.08113776e+02
614             	3.08114421e+02
615             	3.08115069e+02
616             	3.08115704e+02
617             	3.08116369e+02
618             	3.08116979e+02
619             	3.08117543e+02
620             	3.08118059e+02
621             	3.08118556e+02
