# Region        : cellZone component_0
# Cells         : 22
# Volume        : 2.88649161e-02
# Time          	volAverage(T)
1               	3.01364257e+02
2               	3.02701068e+02
3               	3.03894786e+02
4               	3.04984935e+02
5               	3.06008242e+02
6               	3.06962883e+02
7               	3.07869613e+02
8               	3.08721142e+02
9               	3.09533061e+02
10              	3.10313335e+02
11              	3.11081737e+02
12              	3.11826952e+02
13              	3.12575092e+02
14              	3.13313103e+02
15              	3.14009337e+02
16              	3.14658592e+02
17              	3.15268802e+02
18              	3.15855748e+02
19              	3.16406051e+02
20              	3.16938507e+02
21              	3.17451338e+02
22              	3.17970485e+02
23              	3.18477943e+02
24              	3.18988176e+02
25              	3.19488604e+02
26              	3.19992172e+02
27              	3.20477751e+02
28              	3.20954713e+02
29              	3.21417295e+02
30              	3.21874052e+02
31              	3.22303287e+02
32              	3.22721460e+02
33              	3.23107639e+02
34              	3.23503754e+02
35              	3.23875506e+02
36              	3.24255066e+02
37              	3.24628404e+02
38              	3.24988349e+02
39              	3.25355160e+02
40              	3.25699365e+02
41              	3.25992147e+02
42              	3.26254233e+02
43              	3.26525711e+02
44              	3.26784895e+02
45              	3.27004237e+02
46              	3.27235936e+02
47              	3.27429611e+02
48              	3.27600850e+02
49              	3.27753704e+02
50              	3.27894546e+02
51              	3.28025458e+02
52              	3.28155857e+02
53              	3.28265781e+02
54              	3.28353213e+02
55              	3.28424885e+02
56              	3.28477167e+02
57              	3.28498417e+02
58              	3.28505504e+02
59              	3.28507865e+02
60              	3.28523028e+02
61              	3.28562261e+02
62              	3.28642940e+02
63              	3.28715242e+02
64              	3.28811864e+02
65              	3.28928873e+02
66              	3.29062770e+02
67              	3.29136581e+02
68              	3.29176184e+02
69              	3.29245758e+02
70              	3.29296021e+02
71              	3.29307730e+02
72              	3.29301983e+02
73              	3.29271994e+02
74              	3.29248653e+02
75              	3.29281275e+02
76              	3.29323198e+02
77              	3.29341181e+02
78              	3.29357091e+02
79              	3.29406756e+02
80              	3.29458934e+02
81              	3.29523082e+02
82              	3.29603706e+02
83              	3.29620567e+02
84              	3.29631162e+02
85              	3.29686337e+02
86              	3.29759441e+02
87              	3.29832851e+02
88              	3.29858763e+02
89              	3.29920179e+02
90              	3.29943995e+02
91              	3.29971000e+02
92              	3.29948535e+02
93              	3.29942195e+02
94              	3.29910332e+02
95              	3.29892357e+02
96              	3.29898989e+02
97              	3.29933838e+02
98              	3.29995955e+02
99              	3.30061970e+02
100             	3.30129977e+02
101             	3.30207465e+02
102             	3.30262437e+02
103             	3.30302157e+02
104             	3.30375054e+02
105             	3.30469039e+02
106             	3.30573717e+02
107             	3.30655200e+02
108             	3.30706072e+02
109             	3.30758492e+02
110             	3.30821493e+02
111             	3.30868978e+02
112             	3.30945918e+02
113             	3.31022021e+02
114             	3.31057691e+02
115             	3.31104430e+02
116             	3.31075064e+02
117             	3.31092148e+02
118             	3.31140505e+02
119             	3.31168752e+02
120             	3.31189158e+02
121             	3.31187904e+02
122             	3.31172724e+02
123             	3.31175135e+02
124             	3.31146710e+02
125             	3.31116939e+02
126             	3.31100705e+02
127             	3.31081198e+02
128             	3.31079495e+02
129             	3.31112493e+02
130             	3.31170480e+02
131             	3.31213183e+02
132             	3.31255152e+02
133             	3.31287021e+02
134             	3.31328193e+02
135             	3.31362561e+02
136             	3.31365961e+02
137             	3.31357546e+02
138             	3.31362039e+02
139             	3.31377696e+02
140             	3.31422567e+02
141             	3.31440011e+02
142             	3.31423891e+02
143             	3.31417641e+02
144             	3.31432079e+02
145             	3.31485607e+02
146             	3.31551171e+02
147             	3.31565374e+02
148             	3.31574666e+02
149             	3.31580878e+02
150             	3.31574165e+02
151             	3.31555814e+02
152             	3.31532209e+02
153             	3.31512757e+02
154             	3.31519239e+02
155             	3.31532459e+02
156             	3.31553359e+02
157             	3.31565777e+02
158             	3.31570508e+02
159             	3.31578479e+02
160             	3.31588887e+02
161             	3.31608440e+02
162             	3.31630873e+02
163             	3.31661560e+02
164             	3.31705611e+02
165             	3.31754683e+02
166             	3.31810474e+02
167             	3.31880440e+02
168             	3.31962336e+02
169             	3.32053504e+02
170             	3.32125540e+02
171             	3.32200648e+02
172             	3.32274988e+02
173             	3.32333390e+02
174             	3.32368432e+02
175             	3.32385626e+02
176             	3.32411443e+02
177             	3.32457533e+02
178             	3.32502702e+02
179             	3.32565931e+02
180             	3.32644649e+02
181             	3.32742260e+02
182             	3.32816398e+02
183             	3.32908803e+02
184             	3.32930526e+02
185             	3.32975749e+02
186             	3.32990026e+02
187             	3.33019133e+02
188             	3.33055383e+02
189             	3.33077861e+02
190             	3.33100746e+02
191             	3.33133717e+02
192             	3.33179776e+02
193             	3.33230351e+02
194             	3.33272616e+02
195             	3.33302290e+02
196             	3.33325875e+02
197             	3.33351819e+02
198             	3.33341292e+02
199             	3.33357413e+02
200             	3.33365004e+02
201             	3.33407802e+02
202             	3.33441318e+02
203             	3.33510896e+02
204             	3.33570977e+02
205             	3.33656391e+02
206             	3.33717453e+02
207             	3.33783172e+02
208             	3.33861708e+02
209             	3.33885951e+02
210             	3.33915369e+02
211             	3.33917920e+02
212             	3.33949798e+02
213             	3.33999669e+02
214             	3.34019165e+02
215             	3.34054273e+02
216             	3.34096864e+02
217             	3.34145038e+02
218             	3.34158015e+02
219             	3.34182465e+02
220             	3.34187172e+02
221             	3.34216192e+02
222             	3.34216063e+02
223             	3.34247742e+02
224             	3.34261989e+02
225             	3.34308645e+02
226             	3.34328355e+02
227             	3.34384072e+02
228             	3.34405886e+02
229             	3.34458382e+02
230             	3.34462280e+02
231             	3.34487993e+02
232             	3.34487883e+02
233             	3.34506931e+02
234             	3.34501440e+02
235             	3.34512135e+02
236             	3.34498466e+02
237             	3.34505296e+02
238             	3.34494392e+02
239             	3.34509777e+02
240             	3.34510885e+02
241             	3.34532892e+02
242             	3.34526065e+02
243             	3.34542716e+02
244             	3.34535428e+02
245             	3.34553746e+02
246             	3.34554292e+02
247             	3.34586062e+02
248             	3.34592877e+02
249             	3.34630144e+02
250             	3.34642382e+02
251             	3.34684485e+02
252             	3.34693307e+02
253             	3.34730306e+02
254             	3.34729654e+02
255             	3.34760772e+02
256             	3.34762994e+02
257             	3.34796586e+02
258             	3.34803701e+02
259             	3.34837434e+02
260             	3.34842230e+02
261             	3.34871354e+02
262             	3.34871609e+02
263             	3.34892228e+02
264             	3.34881040e+02
265             	3.34893207e+02
266             	3.34881092e+02
267             	3.34895836e+02
268             	3.34885409e+02
269             	3.34902696e+02
270             	3.34898921e+02
271             	3.34924000e+02
272             	3.34927058e+02
273             	3.34959258e+02
274             	3.34963890e+02
275             	3.34997139e+02
276             	3.34997945e+02
277             	3.35028151e+02
278             	3.35020903e+02
279             	3.35041334e+02
280             	3.35032637e+02
281             	3.35053854e+02
282             	3.35047216e+02
283             	3.35069813e+02
284             	3.35063586e+02
285             	3.35087868e+02
286             	3.35083337e+02
287             	3.35110999e+02
288             	3.35108690e+02
289             	3.35138534e+02
290             	3.35137407e+02
291             	3.35167375e+02
292             	3.35166267e+02
293             	3.35193696e+02
294             	3.35189673e+02
295             	3.35210947e+02
296             	3.35200799e+02
297             	3.35217612e+02
298             	3.35208010e+02
299             	3.35225933e+02
300             	3.35214870e+02
301             	3.35231824e+02
302             	3.35220209e+02
303             	3.35237478e+02
304             	3.35225517e+02
305             	3.35243411e+02
306             	3.35231853e+02
307             	3.35249706e+02
308             	3.35237655e+02
309             	3.35254003e+02
310             	3.35239276e+02
311             	3.35252517e+02
312             	3.35235710e+02
313             	3.35247528e+02
314             	3.35230304e+02
315             	3.35243835e+02
316             	3.35228820e+02
317             	3.35244404e+02
318             	3.35231205e+02
319             	3.35248603e+02
320             	3.35241331e+02
321             	3.35264530e+02
322             	3.35253825e+02
323             	3.35271670e+02
324             	3.35258309e+02
325             	3.35275642e+02
326             	3.35259486e+02
327             	3.35273726e+02
328             	3.35257074e+02
329             	3.35270789e+02
330             	3.35256525e+02
331             	3.35270922e+02
332             	3.35257020e+02
333             	3.35271616e+02
334             	3.35258076e+02
335             	3.35272941e+02
336             	3.35259923e+02
337             	3.35275254e+02
338             	3.35265835e+02
339             	3.35284478e+02
340             	3.35270349e+02
341             	3.35285554e+02
342             	3.35270347e+02
343             	3.35286547e+02
344             	3.35273118e+02
345             	3.35292361e+02
346             	3.35280787e+02
347             	3.35301050e+02
348             	3.35287855e+02
349             	3.35304246e+02
350             	3.35290014e+02
351             	3.35303250e+02
352             	3.35286149e+02
353             	3.35296664e+02
354             	3.35279207e+02
355             	3.35289809e+02
356             	3.35273407e+02
357             	3.35285811e+02
358             	3.35271500e+02
359             	3.35286413e+02
360             	3.35271617e+02
361             	3.35286848e+02
362             	3.35272235e+02
363             	3.35287501e+02
364             	3.35272485e+02
365             	3.35287881e+02
366             	3.35274167e+02
367             	3.35290540e+02
368             	3.35277537e+02
369             	3.35294475e+02
370             	3.35282499e+02
371             	3.35299829e+02
372             	3.35285464e+02
373             	3.35300371e+02
374             	3.35285671e+02
375             	3.35299838e+02
376             	3.35284520e+02
377             	3.35297991e+02
378             	3.35283240e+02
379             	3.35297019e+02
380             	3.35282554e+02
381             	3.35296509e+02
382             	3.35282342e+02
383             	3.35296777e+02
384             	3.35282965e+02
385             	3.35298476e+02
386             	3.35286383e+02
387             	3.35304034e+02
388             	3.35291055e+02
389             	3.35308488e+02
390             	3.35295817e+02
391             	3.35313630e+02
392             	3.35301445e+02
393             	3.35319469e+02
394             	3.35305341e+02
395             	3.35321174e+02
396             	3.35307384e+02
397             	3.35323082e+02
398             	3.35308449e+02
399             	3.35321932e+02
400             	3.35305963e+02
401             	3.35318421e+02
402             	3.35302829e+02
403             	3.35316006e+02
404             	3.35301028e+02
405             	3.35315038e+02
406             	3.35300092e+02
407             	3.35314434e+02
408             	3.35299927e+02
409             	3.35315554e+02
410             	3.35301790e+02
411             	3.35318099e+02
412             	3.35304021e+02
413             	3.35319737e+02
414             	3.35305599e+02
415             	3.35320694e+02
416             	3.35306265e+02
417             	3.35318918e+02
418             	3.35303993e+02
419             	3.35318071e+02
420             	3.35303291e+02
421             	3.35317959e+02
422             	3.35303425e+02
423             	3.35317791e+02
424             	3.35303430e+02
425             	3.35317912e+02
426             	3.35303434e+02
427             	3.35318013e+02
428             	3.35303175e+02
429             	3.35317501e+02
430             	3.35302250e+02
431             	3.35316534e+02
432             	3.35301273e+02
433             	3.35315818e+02
434             	3.35300812e+02
435             	3.35315739e+02
436             	3.35301168e+02
437             	3.35316819e+02
438             	3.35302630e+02
439             	3.35318042e+02
440             	3.35304044e+02
441             	3.35319703e+02
442             	3.35305506e+02
443             	3.35320607e+02
444             	3.35305693e+02
445             	3.35320189e+02
446             	3.35305053e+02
447             	3.35319018e+02
448             	3.35303750e+02
449             	3.35318018e+02
450             	3.35303110e+02
451             	3.35317920e+02
452             	3.35303343e+02
453             	3.35318153e+02
454             	3.35304828e+02
455             	3.35320232e+02
456             	3.35305573e+02
457             	3.35320332e+02
458             	3.35305538e+02
459             	3.35320477e+02
460             	3.35305747e+02
461             	3.35320764e+02
462             	3.35306074e+02
463             	3.35321136e+02
464             	3.35306237e+02
465             	3.35321274e+02
466             	3.35306452e+02
467             	3.35321706e+02
468             	3.35306688e+02
469             	3.35321752e+02
470             	3.35308068e+02
471             	3.35323169e+02
472             	3.35308721e+02
473             	3.35323974e+02
474             	3.35310736e+02
475             	3.35324787e+02
476             	3.35311090e+02
477             	3.35325665e+02
478             	3.35310427e+02
479             	3.35324757e+02
480             	3.35309442e+02
481             	3.35323856e+02
482             	3.35308789e+02
483             	3.35323328e+02
484             	3.35308811e+02
485             	3.35323036e+02
486             	3.35308696e+02
487             	3.35324121e+02
488             	3.35309420e+02
489             	3.35324295e+02
490             	3.35309314e+02
491             	3.35324227e+02
492             	3.35309062e+02
493             	3.35322829e+02
494             	3.35307555e+02
495             	3.35322173e+02
496             	3.35307040e+02
497             	3.35321824e+02
498             	3.35306654e+02
499             	3.35320264e+02
500             	3.35306465e+02
501             	3.35321406e+02
502             	3.35307794e+02
503             	3.35322877e+02
504             	3.35308363e+02
505             	3.35322483e+02
506             	3.35308729e+02
507             	3.35323724e+02
508             	3.35309976e+02
509             	3.35323969e+02
510             	3.35309093e+02
511             	3.35323053e+02
512             	3.35309171e+02
513             	3.35324037e+02
514             	3.35310173e+02
515             	3.35323995e+02
516             	3.35308985e+02
517             	3.35322641e+02
518             	3.35308845e+02
519             	3.35323806e+02
520             	3.35309976e+02
521             	3.35324023e+02
522             	3.35309829e+02
523             	3.35323581e+02
524             	3.35309575e+02
525             	3.35323479e+02
526             	3.35309650e+02
527             	3.35323749e+02
528             	3.35310119e+02
529             	3.35324201e+02
530             	3.35310572e+02
531             	3.35325947e+02
532             	3.35312517e+02
533             	3.35326953e+02
534             	3.35313307e+02
535             	3.35327518e+02
536             	3.35313889e+02
537             	3.35327977e+02
538             	3.35314150e+02
539             	3.35328049e+02
540             	3.35314013e+02
541             	3.35327800e+02
542             	3.35314028e+02
543             	3.35328070e+02
544             	3.35314424e+02
545             	3.35328482e+02
546             	3.35314982e+02
547             	3.35329205e+02
548             	3.35315441e+02
549             	3.35329442e+02
550             	3.35315299e+02
551             	3.35329016e+02
552             	3.35314889e+02
553             	3.35328797e+02
554             	3.35314958e+02
555             	3.35329097e+02
556             	3.35315593e+02
557             	3.35329951e+02
558             	3.35316175e+02
559             	3.35330221e+02
560             	3.35316197e+02
561             	3.35329953e+02
562             	3.35315670e+02
563             	3.35329214e+02
564             	3.35315110e+02
565             	3.35328860e+02
566             	3.35314903e+02
567             	3.35328728e+02
568             	3.35314985e+02
569             	3.35328971e+02
570             	3.35315168e+02
571             	3.35329157e+02
572             	3.35315258e+02
573             	3.35329230e+02
574             	3.35315436e+02
575             	3.35329498e+02
576             	3.35315489e+02
577             	3.35329332e+02
578             	3.35315439e+02
579             	3.35329287e+02
580             	3.35315462e+02
581             	3.35329385e+02
582             	3.35315524e+02
583             	3.35329471e+02
584             	3.35315619e+02
585             	3.35329603e+02
586             	3.35315601e+02
587             	3.35329461e+02
588             	3.35315355e+02
589             	3.35329161e+02
590             	3.35315156e+02
591             	3.35329006e+02
592             	3.35315071e+02
593             	3.35328929e+02
594             	3.35314947e+02
595             	3.35328796e+02
596             	3.35314882e+02
597             	3.35328842e+02
598             	3.35314949e+02
599             	3.35328944e+02
600             	3.35315051e+02
601             	3.35329017e+02
602             	3.35315080e+02
603             	3.35328984e+02
604             	3.35314947e+02
605             	3.35328774e+02
606             	3.35314865e+02
607             	3.35328795e+02
608             	3.35314970e+02
609             	3.35328945e+02
610             	3.35315043e+02
611             	3.35328911e+02
612             	3.35314948e+02
613             	3.35328774e+02
614             	3.35314790e+02
615             	3.35328650e+02
616             	3.35314687e+02
617             	3.35328613e+02
618             	3.35314730e+02
619             	3.35328722e+02
620             	3.35314840e+02
621             	3.35328767e+02
