# Region        : cellZone component_2
# Cells         : 95
# Volume        : 1.60299369e-01
# Time          	volAverage(T)
1               	3.00565098e+02
2               	3.01119635e+02
3               	3.01620559e+02
4               	3.02095598e+02
5               	3.02561954e+02
6               	3.03024782e+02
7               	3.03485968e+02
8               	3.03949930e+02
9               	3.04413306e+02
10              	3.04872774e+02
11              	3.05317064e+02
12              	3.05745949e+02
13              	3.06161368e+02
14              	3.06567588e+02
15              	3.06972201e+02
16              	3.07394446e+02
17              	3.07809910e+02
18              	3.08216631e+02
19              	3.08617434e+02
20              	3.09008810e+02
21              	3.09393995e+02
22              	3.09773756e+02
23              	3.10130041e+02
24              	3.10486852e+02
25              	3.10827561e+02
26              	3.11162425e+02
27              	3.11477020e+02
28              	3.11771491e+02
29              	3.12054003e+02
30              	3.12340135e+02
31              	3.12636447e+02
32              	3.12941171e+02
33              	3.13251590e+02
34              	3.13548504e+02
35              	3.13830556e+02
36              	3.14114730e+02
37              	3.14396428e+02
38              	3.14680233e+02
39              	3.14961416e+02
40              	3.15227024e+02
41              	3.15511362e+02
42              	3.15770382e+02
43              	3.16009672e+02
44              	3.16225233e+02
45              	3.16425880e+02
46              	3.16624061e+02
47              	3.16828850e+02
48              	3.17053635e+02
49              	3.17303677e+02
50              	3.17563692e+02
51              	3.17811262e+02
52              	3.18049551e+02
53              	3.18280425e+02
54              	3.18505271e+02
55              	3.18730546e+02
56              	3.18944880e+02
57              	3.19146175e+02
58              	3.19337633e+02
59              	3.19519265e+02
60              	3.19713347e+02
61              	3.19910411e+02
62              	3.20087268e+02
63              	3.20247485e+02
64              	3.20383419e+02
65              	3.20494123e+02
66              	3.20611998e+02
67              	3.20755271e+02
68              	3.20912352e+02
69              	3.21069954e+02
70              	3.21232557e+02
71              	3.21400078e+02
72              	3.21574572e+02
73              	3.21746194e+02
74              	3.21907672e+02
75              	3.22058500e+02
76              	3.22211102e+02
77              	3.22370749e+02
78              	3.22537579e+02
79              	3.22704536e+02
80              	3.22881112e+02
81              	3.23039986e+02
82              	3.23197412e+02
83              	3.23346498e+02
84              	3.23505453e+02
85              	3.23665264e+02
86              	3.23824729e+02
87              	3.23975519e+02
88              	3.24101044e+02
89              	3.24215243e+02
90              	3.24330614e+02
91              	3.24441544e+02
92              	3.24548837e+02
93              	3.24652148e+02
94              	3.24756278e+02
95              	3.24856932e+02
96              	3.24967245e+02
97              	3.25073829e+02
98              	3.25177762e+02
99              	3.25278372e+02
100             	3.25384649e+02
101             	3.25493005e+02
102             	3.25606124e+02
103             	3.25717164e+02
104             	3.25821384e+02
105             	3.25918486e+02
106             	3.26011966e+02
107             	3.26114462e+02
108             	3.26228754e+02
109             	3.26356018e+02
110             	3.26472488e+02
111             	3.26571560e+02
112             	3.26655648e+02
113             	3.26740425e+02
114             	3.26831733e+02
115             	3.26922396e+02
116             	3.27008827e+02
117             	3.27080482e+02
118             	3.27150184e+02
119             	3.27222866e+02
120             	3.27294592e+02
121             	3.27356828e+02
122             	3.27422605e+02
123             	3.27486876e+02
124             	3.27550889e+02
125             	3.27615531e+02
126             	3.27684550e+02
127             	3.27755321e+02
128             	3.27829984e+02
129             	3.27904853e+02
130             	3.27982784e+02
131             	3.28061923e+02
132             	3.28140755e+02
133             	3.28219036e+02
134             	3.28296549e+02
135             	3.28371942e+02
136             	3.28442076e+02
137             	3.28513482e+02
138             	3.28584915e+02
139             	3.28657079e+02
140             	3.28730760e+02
141             	3.28804249e+02
142             	3.28881015e+02
143             	3.28954937e+02
144             	3.29026466e+02
145             	3.29085773e+02
146             	3.29140683e+02
147             	3.29202606e+02
148             	3.29262908e+02
149             	3.29312463e+02
150             	3.29368433e+02
151             	3.29429196e+02
152             	3.29491990e+02
153             	3.29546811e+02
154             	3.29607213e+02
155             	3.29668849e+02
156             	3.29729478e+02
157             	3.29788665e+02
158             	3.29847242e+02
159             	3.29905471e+02
160             	3.29961378e+02
161             	3.30016151e+02
162             	3.30070758e+02
163             	3.30125697e+02
164             	3.30185078e+02
165             	3.30228667e+02
166             	3.30279600e+02
167             	3.30335333e+02
168             	3.30394870e+02
169             	3.30445992e+02
170             	3.30503961e+02
171             	3.30562603e+02
172             	3.30615516e+02
173             	3.30667195e+02
174             	3.30714529e+02
175             	3.30761627e+02
176             	3.30807817e+02
177             	3.30851794e+02
178             	3.30895552e+02
179             	3.30932567e+02
180             	3.30976877e+02
181             	3.31021548e+02
182             	3.31070763e+02
183             	3.31124192e+02
184             	3.31163411e+02
185             	3.31208373e+02
186             	3.31258946e+02
187             	3.31294706e+02
188             	3.31338572e+02
189             	3.31383495e+02
190             	3.31422411e+02
191             	3.31465924e+02
192             	3.31508495e+02
193             	3.31552428e+02
194             	3.31596382e+02
195             	3.31639589e+02
196             	3.31680183e+02
197             	3.31708475e+02
198             	3.31741199e+02
199             	3.31777262e+02
200             	3.31815825e+02
201             	3.31854532e+02
202             	3.31882795e+02
203             	3.31920128e+02
204             	3.31958337e+02
205             	3.31998726e+02
206             	3.32030627e+02
207             	3.32070353e+02
208             	3.32102636e+02
209             	3.32141138e+02
210             	3.32172702e+02
211             	3.32211954e+02
212             	3.32250361e+02
213             	3.32284093e+02
214             	3.32314710e+02
215             	3.32348407e+02
216             	3.32382383e+02
217             	3.32415721e+02
218             	3.32448206e+02
219             	3.32480218e+02
220             	3.32511259e+02
221             	3.32543332e+02
222             	3.32576351e+02
223             	3.32608001e+02
224             	3.32625632e+02
225             	3.32652223e+02
226             	3.32679404e+02
227             	3.32696846e+02
228             	3.32721858e+02
229             	3.32749575e+02
230             	3.32778822e+02
231             	3.32808091e+02
232             	3.32837734e+02
233             	3.32867349e+02
234             	3.32892824e+02
235             	3.32916916e+02
236             	3.32943420e+02
237             	3.32969810e+02
238             	3.32993035e+02
239             	3.33017076e+02
240             	3.33042271e+02
241             	3.33063317e+02
242             	3.33085017e+02
243             	3.33107614e+02
244             	3.33130037e+02
245             	3.33151100e+02
246             	3.33171582e+02
247             	3.33192046e+02
248             	3.33210834e+02
249             	3.33220217e+02
250             	3.33237644e+02
251             	3.33258052e+02
252             	3.33279053e+02
253             	3.33287844e+02
254             	3.33305136e+02
255             	3.33325552e+02
256             	3.33347222e+02
257             	3.33367917e+02
258             	3.33382584e+02
259             	3.33399017e+02
260             	3.33415593e+02
261             	3.33433810e+02
262             	3.33452265e+02
263             	3.33471750e+02
264             	3.33478535e+02
265             	3.33494084e+02
266             	3.33513956e+02
267             	3.33531648e+02
268             	3.33549431e+02
269             	3.33564732e+02
270             	3.33581947e+02
271             	3.33600015e+02
272             	3.33617339e+02
273             	3.33635618e+02
274             	3.33640388e+02
275             	3.33653306e+02
276             	3.33667022e+02
277             	3.33683378e+02
278             	3.33699725e+02
279             	3.33713975e+02
280             	3.33728324e+02
281             	3.33743034e+02
282             	3.33747159e+02
283             	3.33759588e+02
284             	3.33772888e+02
285             	3.33786895e+02
286             	3.33801757e+02
287             	3.33816964e+02
288             	3.33831176e+02
289             	3.33842056e+02
290             	3.33855480e+02
291             	3.33865935e+02
292             	3.33878627e+02
293             	3.33891972e+02
294             	3.33904925e+02
295             	3.33917405e+02
296             	3.33929325e+02
297             	3.33941426e+02
298             	3.33954957e+02
299             	3.33954964e+02
300             	3.33963171e+02
301             	3.33974276e+02
302             	3.33986195e+02
303             	3.33998372e+02
304             	3.34010106e+02
305             	3.34021425e+02
306             	3.34033618e+02
307             	3.34046262e+02
308             	3.34057114e+02
309             	3.34068462e+02
310             	3.34079817e+02
311             	3.34090740e+02
312             	3.34101092e+02
313             	3.34110800e+02
314             	3.34120205e+02
315             	3.34129387e+02
316             	3.34138321e+02
317             	3.34147509e+02
318             	3.34158862e+02
319             	3.34168709e+02
320             	3.34177838e+02
321             	3.34187251e+02
322             	3.34197138e+02
323             	3.34206672e+02
324             	3.34216108e+02
325             	3.34224477e+02
326             	3.34232091e+02
327             	3.34240706e+02
328             	3.34248617e+02
329             	3.34256794e+02
330             	3.34264918e+02
331             	3.34272538e+02
332             	3.34279984e+02
333             	3.34287531e+02
334             	3.34295894e+02
335             	3.34303349e+02
336             	3.34312359e+02
337             	3.34319642e+02
338             	3.34326697e+02
339             	3.34334188e+02
340             	3.34341660e+02
341             	3.34349091e+02
342             	3.34356497e+02
343             	3.34363901e+02
344             	3.34371185e+02
345             	3.34377341e+02
346             	3.34384269e+02
347             	3.34391218e+02
348             	3.34397844e+02
349             	3.34404090e+02
350             	3.34410261e+02
351             	3.34416328e+02
352             	3.34422305e+02
353             	3.34428504e+02
354             	3.34434783e+02
355             	3.34440718e+02
356             	3.34446660e+02
357             	3.34452983e+02
358             	3.34459303e+02
359             	3.34465288e+02
360             	3.34471189e+02
361             	3.34477012e+02
362             	3.34482995e+02
363             	3.34488649e+02
364             	3.34493682e+02
365             	3.34497894e+02
366             	3.34503052e+02
367             	3.34508367e+02
368             	3.34513408e+02
369             	3.34518309e+02
370             	3.34523213e+02
371             	3.34528430e+02
372             	3.34533306e+02
373             	3.34538675e+02
374             	3.34543334e+02
375             	3.34547831e+02
376             	3.34552338e+02
377             	3.34556926e+02
378             	3.34561490e+02
379             	3.34566078e+02
380             	3.34570681e+02
381             	3.34575246e+02
382             	3.34579759e+02
383             	3.34584243e+02
384             	3.34588681e+02
385             	3.34593086e+02
386             	3.34597548e+02
387             	3.34601863e+02
388             	3.34605946e+02
389             	3.34609963e+02
390             	3.34613933e+02
391             	3.34617847e+02
392             	3.34621432e+02
393             	3.34624973e+02
394             	3.34628822e+02
395             	3.34632696e+02
396             	3.34636475e+02
397             	3.34640186e+02
398             	3.34643878e+02
399             	3.34647545e+02
400             	3.34651002e+02
401             	3.34654454e+02
402             	3.34657890e+02
403             	3.34661230e+02
404             	3.34664552e+02
405             	3.34667845e+02
406             	3.34671089e+02
407             	3.34674364e+02
408             	3.34677614e+02
409             	3.34680781e+02
410             	3.34683990e+02
411             	3.34687200e+02
412             	3.34690362e+02
413             	3.34693535e+02
414             	3.34696682e+02
415             	3.34699734e+02
416             	3.34702758e+02
417             	3.34705782e+02
418             	3.34708769e+02
419             	3.34711791e+02
420             	3.34714686e+02
421             	3.34717556e+02
422             	3.34720396e+02
423             	3.34722940e+02
424             	3.34725318e+02
425             	3.34728004e+02
426             	3.34730693e+02
427             	3.34733409e+02
428             	3.34736061e+02
429             	3.34738491e+02
430             	3.34740823e+02
431             	3.34743144e+02
432             	3.34745456e+02
433             	3.34747736e+02
434             	3.34750011e+02
435             	3.34752284e+02
436             	3.34754555e+02
437             	3.34756758e+02
438             	3.34759046e+02
439             	3.34761371e+02
440             	3.34763685e+02
441             	3.34765981e+02
442             	3.34768269e+02
443             	3.34770519e+02
444             	3.34772746e+02
445             	3.34775017e+02
446             	3.34777144e+02
447             	3.34779221e+02
448             	3.34781283e+02
449             	3.34783352e+02
450             	3.34785410e+02
451             	3.34787435e+02
452             	3.34789420e+02
453             	3.34791437e+02
454             	3.34793422e+02
455             	3.34795390e+02
456             	3.34797240e+02
457             	3.34799108e+02
458             	3.34800984e+02
459             	3.34802813e+02
460             	3.34804611e+02
461             	3.34806366e+02
462             	3.34808089e+02
463             	3.34809799e+02
464             	3.34811473e+02
465             	3.34813145e+02
466             	3.34814791e+02
467             	3.34816440e+02
468             	3.34818089e+02
469             	3.34819711e+02
470             	3.34821335e+02
471             	3.34822951e+02
472             	3.34824540e+02
473             	3.34826108e+02
474             	3.34827684e+02
475             	3.34829215e+02
476             	3.34830757e+02
477             	3.34832280e+02
478             	3.34833774e+02
479             	3.34835264e+02
480             	3.34836746e+02
481             	3.34838195e+02
482             	3.34839635e+02
483             	3.34841062e+02
484             	3.34842453e+02
485             	3.34843835e+02
486             	3.34845211e+02
487             	3.34846556e+02
488             	3.34847901e+02
489             	3.34849238e+02
490             	3.34850544e+02
491             	3.34851848e+02
492             	3.34853139e+02
493             	3.34854408e+02
494             	3.34855673e+02
495             	3.34857037e+02
496             	3.34858277e+02
497             	3.34859488e+02
498             	3.34860708e+02
499             	3.34861903e+02
500             	3.34862986e+02
501             	3.34864177e+02
502             	3.34865361e+02
503             	3.34866536e+02
504             	3.34867703e+02
505             	3.34868842e+02
506             	3.34869975e+02
507             	3.34871084e+02
508             	3.34872143e+02
509             	3.34873190e+02
510             	3.34874229e+02
511             	3.34875230e+02
512             	3.34876223e+02
513             	3.34877209e+02
514             	3.34878164e+02
515             	3.34879150e+02
516             	3.34880100e+02
517             	3.34881020e+02
518             	3.34881940e+02
519             	3.34882853e+02
520             	3.34883741e+02
521             	3.34884629e+02
522             	3.34885516e+02
523             	3.34886377e+02
524             	3.34887242e+02
525             	3.34888110e+02
526             	3.34888959e+02
527             	3.34889816e+02
528             	3.34890677e+02
529             	3.34891521e+02
530             	3.34892371e+02
531             	3.34893224e+02
532             	3.34894053e+02
533             	3.34894883e+02
534             	3.34895711e+02
535             	3.34896508e+02
536             	3.34897294e+02
537             	3.34898085e+02
538             	3.34898851e+02
539             	3.34899613e+02
540             	3.34900368e+02
541             	3.34901096e+02
542             	3.34901823e+02
543             	3.34902547e+02
544             	3.34903246e+02
545             	3.34903945e+02
546             	3.34904639e+02
547             	3.34905309e+02
548             	3.34905979e+02
549             	3.34906648e+02
550             	3.34907293e+02
551             	3.34907939e+02
552             	3.34908585e+02
553             	3.34909210e+02
554             	3.34909838e+02
555             	3.34910466e+02
556             	3.34911075e+02
557             	3.34911686e+02
558             	3.34912299e+02
559             	3.34912891e+02
560             	3.34913490e+02
561             	3.34914091e+02
562             	3.34914672e+02
563             	3.34915258e+02
564             	3.34915847e+02
565             	3.34916415e+02
566             	3.34916987e+02
567             	3.34917559e+02
568             	3.34918109e+02
569             	3.34918661e+02
570             	3.34919210e+02
571             	3.34919736e+02
572             	3.34920268e+02
573             	3.34920795e+02
574             	3.34921296e+02
575             	3.34921794e+02
576             	3.34922286e+02
577             	3.34922756e+02
578             	3.34923224e+02
579             	3.34923687e+02
580             	3.34924132e+02
581             	3.34924576e+02
582             	3.34925020e+02
583             	3.34925449e+02
584             	3.34925882e+02
585             	3.34926316e+02
586             	3.34926739e+02
587             	3.34927166e+02
588             	3.34927596e+02
589             	3.34928014e+02
590             	3.34928437e+02
591             	3.34928861e+02
592             	3.34929272e+02
593             	3.34929686e+02
594             	3.34930099e+02
595             	3.34930500e+02
596             	3.34930902e+02
597             	3.34931302e+02
598             	3.34931687e+02
599             	3.34932072e+02
600             	3.34932458e+02
601             	3.34932835e+02
602             	3.34933218e+02
603             	3.34933604e+02
604             	3.34933982e+02
605             	3.34934364e+02
606             	3.34934750e+02
607             	3.34935125e+02
608             	3.34935503e+02
609             	3.34935882e+02
610             	3.34936251e+02
611             	3.34936618e+02
612             	3.34936983e+02
613             	3.34937336e+02
614             	3.34937687e+02
615             	3.34938037e+02
616             	3.34938375e+02
617             	3.34938715e+02
618             	3.34939055e+02
619             	3.34939385e+02
620             	3.34939717e+02
621             	3.34940052e+02
