# Region        : cellZone component_4
# Cells         : 71
# Volume        : 1.31149201e-01
# Time          	volAverage(T)
1               	3.01203614e+02
2               	3.02377197e+02
3               	3.03432583e+02
4               	3.04409746e+02
5               	3.05346077e+02
6               	3.06254462e+02
7               	3.07139942e+02
8               	3.08005612e+02
9               	3.08852914e+02
10              	3.09681282e+02
11              	3.10491694e+02
12              	3.11282900e+02
13              	3.12070001e+02
14              	3.12826973e+02
15              	3.13556019e+02
16              	3.14245087e+02
17              	3.14890525e+02
18              	3.15475252e+02
19              	3.15979212e+02
20              	3.16423791e+02
21              	3.16925435e+02
22              	3.17457693e+02
23              	3.17962835e+02
24              	3.18436829e+02
25              	3.18907608e+02
26              	3.19358040e+02
27              	3.19824810e+02
28              	3.20299953e+02
29              	3.20747637e+02
30              	3.21154486e+02
31              	3.21543220e+02
32              	3.21937099e+02
33              	3.22341739e+02
34              	3.22804374e+02
35              	3.23201689e+02
36              	3.23560678e+02
37              	3.23882936e+02
38              	3.24121543e+02
39              	3.24310020e+02
40              	3.24546305e+02
41              	3.24830216e+02
42              	3.25091569e+02
43              	3.25318022e+02
44              	3.25528768e+02
45              	3.25722603e+02
46              	3.25940046e+02
47              	3.26172546e+02
48              	3.26441302e+02
49              	3.26757919e+02
50              	3.27017749e+02
51              	3.27245918e+02
52              	3.27356644e+02
53              	3.27451418e+02
54              	3.27657670e+02
55              	3.27867448e+02
56              	3.28030805e+02
57              	3.28152951e+02
58              	3.28260959e+02
59              	3.28344238e+02
60              	3.28442687e+02
61              	3.28546391e+02
62              	3.28656160e+02
63              	3.28794016e+02
64              	3.28952125e+02
65              	3.29093582e+02
66              	3.29148513e+02
67              	3.29128416e+02
68              	3.29141368e+02
69              	3.29162650e+02
70              	3.29175715e+02
71              	3.29199740e+02
72              	3.29227367e+02
73              	3.29285030e+02
74              	3.29360153e+02
75              	3.29456781e+02
76              	3.29576440e+02
77              	3.29731216e+02
78              	3.29882013e+02
79              	3.29958544e+02
80              	3.29938681e+02
81              	3.29830529e+02
82              	3.29798866e+02
83              	3.29815147e+02
84              	3.29860346e+02
85              	3.29914622e+02
86              	3.29979324e+02
87              	3.30045863e+02
88              	3.30109903e+02
89              	3.30170554e+02
90              	3.30233115e+02
91              	3.30296351e+02
92              	3.30365477e+02
93              	3.30442320e+02
94              	3.30547599e+02
95              	3.30676709e+02
96              	3.30826789e+02
97              	3.30987979e+02
98              	3.31134177e+02
99              	3.31288465e+02
100             	3.31426722e+02
101             	3.31549079e+02
102             	3.31657288e+02
103             	3.31747263e+02
104             	3.31820406e+02
105             	3.31882686e+02
106             	3.31937739e+02
107             	3.31987533e+02
108             	3.32035615e+02
109             	3.32091869e+02
110             	3.32155547e+02
111             	3.32227140e+02
112             	3.32307490e+02
113             	3.32402054e+02
114             	3.32496816e+02
115             	3.32601017e+02
116             	3.32705012e+02
117             	3.32800911e+02
118             	3.32868381e+02
119             	3.32922681e+02
120             	3.32964047e+02
121             	3.32991235e+02
122             	3.33008254e+02
123             	3.33018907e+02
124             	3.33029274e+02
125             	3.33045246e+02
126             	3.33074258e+02
127             	3.33112666e+02
128             	3.33160219e+02
129             	3.33220014e+02
130             	3.33290734e+02
131             	3.33354603e+02
132             	3.33406812e+02
133             	3.33460330e+02
134             	3.33505734e+02
135             	3.33541136e+02
136             	3.33567267e+02
137             	3.33586449e+02
138             	3.33599363e+02
139             	3.33610100e+02
140             	3.33621721e+02
141             	3.33636764e+02
142             	3.33653101e+02
143             	3.33678619e+02
144             	3.33711280e+02
145             	3.33747151e+02
146             	3.33784713e+02
147             	3.33824214e+02
148             	3.33865340e+02
149             	3.33903578e+02
150             	3.33936056e+02
151             	3.33966778e+02
152             	3.33997723e+02
153             	3.34023146e+02
154             	3.34046982e+02
155             	3.34072022e+02
156             	3.34099414e+02
157             	3.34130275e+02
158             	3.34163491e+02
159             	3.34198791e+02
160             	3.34235919e+02
161             	3.34273073e+02
162             	3.34308065e+02
163             	3.34338550e+02
164             	3.34364108e+02
165             	3.34386257e+02
166             	3.34406211e+02
167             	3.34422779e+02
168             	3.34437260e+02
169             	3.34449629e+02
170             	3.34461286e+02
171             	3.34472645e+02
172             	3.34484800e+02
173             	3.34498194e+02
174             	3.34514734e+02
175             	3.34534106e+02
176             	3.34555652e+02
177             	3.34579373e+02
178             	3.34605022e+02
179             	3.34631437e+02
180             	3.34657631e+02
181             	3.34683505e+02
182             	3.34708572e+02
183             	3.34732431e+02
184             	3.34754696e+02
185             	3.34774926e+02
186             	3.34793964e+02
187             	3.34811900e+02
188             	3.34829404e+02
189             	3.34846848e+02
190             	3.34864159e+02
191             	3.34881720e+02
192             	3.34899408e+02
193             	3.34917585e+02
194             	3.34936414e+02
195             	3.34955752e+02
196             	3.34975393e+02
197             	3.34995073e+02
198             	3.35014349e+02
199             	3.35032584e+02
200             	3.35051205e+02
201             	3.35069420e+02
202             	3.35086954e+02
203             	3.35104002e+02
204             	3.35120889e+02
205             	3.35138223e+02
206             	3.35156435e+02
207             	3.35177279e+02
208             	3.35197889e+02
209             	3.35218379e+02
210             	3.35238419e+02
211             	3.35256400e+02
212             	3.35272898e+02
213             	3.35287256e+02
214             	3.35300250e+02
215             	3.35311458e+02
216             	3.35321009e+02
217             	3.35329164e+02
218             	3.35336750e+02
219             	3.35344852e+02
220             	3.35351986e+02
221             	3.35358685e+02
222             	3.35365291e+02
223             	3.35371565e+02
224             	3.35377638e+02
225             	3.35383663e+02
226             	3.35389959e+02
227             	3.35396962e+02
228             	3.35404568e+02
229             	3.35412498e+02
230             	3.35421075e+02
231             	3.35430321e+02
232             	3.35440069e+02
233             	3.35450279e+02
234             	3.35460944e+02
235             	3.35472691e+02
236             	3.35484447e+02
237             	3.35496563e+02
238             	3.35509048e+02
239             	3.35521280e+02
240             	3.35532935e+02
241             	3.35543521e+02
242             	3.35553047e+02
243             	3.35561365e+02
244             	3.35567606e+02
245             	3.35572728e+02
246             	3.35577197e+02
247             	3.35581260e+02
248             	3.35585503e+02
249             	3.35590421e+02
250             	3.35595115e+02
251             	3.35600103e+02
252             	3.35605550e+02
253             	3.35611572e+02
254             	3.35618181e+02
255             	3.35625221e+02
256             	3.35632474e+02
257             	3.35639961e+02
258             	3.35647381e+02
259             	3.35654947e+02
260             	3.35662418e+02
261             	3.35669556e+02
262             	3.35676730e+02
263             	3.35683695e+02
264             	3.35690590e+02
265             	3.35697587e+02
266             	3.35704720e+02
267             	3.35711617e+02
268             	3.35718396e+02
269             	3.35724889e+02
270             	3.35730981e+02
271             	3.35736525e+02
272             	3.35741350e+02
273             	3.35745852e+02
274             	3.35749270e+02
275             	3.35752021e+02
276             	3.35754329e+02
277             	3.35756559e+02
278             	3.35758943e+02
279             	3.35761622e+02
280             	3.35764695e+02
281             	3.35767967e+02
282             	3.35771497e+02
283             	3.35775289e+02
284             	3.35779381e+02
285             	3.35783679e+02
286             	3.35787987e+02
287             	3.35792133e+02
288             	3.35796358e+02
289             	3.35800457e+02
290             	3.35804454e+02
291             	3.35808082e+02
292             	3.35811483e+02
293             	3.35814806e+02
294             	3.35818305e+02
295             	3.35822103e+02
296             	3.35825703e+02
297             	3.35829233e+02
298             	3.35832579e+02
299             	3.35835648e+02
300             	3.35838457e+02
301             	3.35840837e+02
302             	3.35842783e+02
303             	3.35844428e+02
304             	3.35845759e+02
305             	3.35846889e+02
306             	3.35847613e+02
307             	3.35848207e+02
308             	3.35848878e+02
309             	3.35849768e+02
310             	3.35850781e+02
311             	3.35851718e+02
312             	3.35853019e+02
313             	3.35854601e+02
314             	3.35856303e+02
315             	3.35858015e+02
316             	3.35859677e+02
317             	3.35861094e+02
318             	3.35862569e+02
319             	3.35864236e+02
320             	3.35865877e+02
321             	3.35867550e+02
322             	3.35869394e+02
323             	3.35872804e+02
324             	3.35876108e+02
325             	3.35879592e+02
326             	3.35883198e+02
327             	3.35886625e+02
328             	3.35889883e+02
329             	3.35892646e+02
330             	3.35894803e+02
331             	3.35896522e+02
332             	3.35897304e+02
333             	3.35897724e+02
334             	3.35897687e+02
335             	3.35897212e+02
336             	3.35896484e+02
337             	3.35895583e+02
338             	3.35894849e+02
339             	3.35894742e+02
340             	3.35895190e+02
341             	3.35896052e+02
342             	3.35897401e+02
343             	3.35899182e+02
344             	3.35901341e+02
345             	3.35903853e+02
346             	3.35906521e+02
347             	3.35909211e+02
348             	3.35911638e+02
349             	3.35913789e+02
350             	3.35915597e+02
351             	3.35916800e+02
352             	3.35917173e+02
353             	3.35917481e+02
354             	3.35917443e+02
355             	3.35917095e+02
356             	3.35916605e+02
357             	3.35916044e+02
358             	3.35915813e+02
359             	3.35915840e+02
360             	3.35916233e+02
361             	3.35916839e+02
362             	3.35917790e+02
363             	3.35919102e+02
364             	3.35920151e+02
365             	3.35921464e+02
366             	3.35922653e+02
367             	3.35923773e+02
368             	3.35924695e+02
369             	3.35925286e+02
370             	3.35925495e+02
371             	3.35925795e+02
372             	3.35926140e+02
373             	3.35926583e+02
374             	3.35927067e+02
375             	3.35927770e+02
376             	3.35928795e+02
377             	3.35930044e+02
378             	3.35931176e+02
379             	3.35932418e+02
380             	3.35933327e+02
381             	3.35934126e+02
382             	3.35934683e+02
383             	3.35934917e+02
384             	3.35934799e+02
385             	3.35934501e+02
386             	3.35933997e+02
387             	3.35933387e+02
388             	3.35932766e+02
389             	3.35932294e+02
390             	3.35932088e+02
391             	3.35932205e+02
392             	3.35932375e+02
393             	3.35932811e+02
394             	3.35933542e+02
395             	3.35934472e+02
396             	3.35935556e+02
397             	3.35936775e+02
398             	3.35937918e+02
399             	3.35938742e+02
400             	3.35939137e+02
401             	3.35939238e+02
402             	3.35939121e+02
403             	3.35938736e+02
404             	3.35938116e+02
405             	3.35937294e+02
406             	3.35936478e+02
407             	3.35935712e+02
408             	3.35935070e+02
409             	3.35934740e+02
410             	3.35934768e+02
411             	3.35935075e+02
412             	3.35935646e+02
413             	3.35936408e+02
414             	3.35937381e+02
415             	3.35938486e+02
416             	3.35939642e+02
417             	3.35940836e+02
418             	3.35941783e+02
419             	3.35942463e+02
420             	3.35942963e+02
421             	3.35943271e+02
422             	3.35943272e+02
423             	3.35943064e+02
424             	3.35942695e+02
425             	3.35942207e+02
426             	3.35941651e+02
427             	3.35941272e+02
428             	3.35940896e+02
429             	3.35940764e+02
430             	3.35940770e+02
431             	3.35940932e+02
432             	3.35941221e+02
433             	3.35941572e+02
434             	3.35942017e+02
435             	3.35942367e+02
436             	3.35942767e+02
437             	3.35943111e+02
438             	3.35943346e+02
439             	3.35943493e+02
440             	3.35943582e+02
441             	3.35943690e+02
442             	3.35943778e+02
443             	3.35943825e+02
444             	3.35943902e+02
445             	3.35944037e+02
446             	3.35944222e+02
447             	3.35944438e+02
448             	3.35944699e+02
449             	3.35945026e+02
450             	3.35945387e+02
451             	3.35945761e+02
452             	3.35946139e+02
453             	3.35946289e+02
454             	3.35946456e+02
455             	3.35946562e+02
456             	3.35946592e+02
457             	3.35946546e+02
458             	3.35946449e+02
459             	3.35946346e+02
460             	3.35946286e+02
461             	3.35946288e+02
462             	3.35946305e+02
463             	3.35946360e+02
464             	3.35946455e+02
465             	3.35946581e+02
466             	3.35946701e+02
467             	3.35946908e+02
468             	3.35947116e+02
469             	3.35947333e+02
470             	3.35947567e+02
471             	3.35947814e+02
472             	3.35948063e+02
473             	3.35948319e+02
474             	3.35948512e+02
475             	3.35948709e+02
476             	3.35948889e+02
477             	3.35949030e+02
478             	3.35949140e+02
479             	3.35949227e+02
480             	3.35949299e+02
481             	3.35949351e+02
482             	3.35949367e+02
483             	3.35949333e+02
484             	3.35949301e+02
485             	3.35949308e+02
486             	3.35949304e+02
487             	3.35949300e+02
488             	3.35949327e+02
489             	3.35949437e+02
490             	3.35949547e+02
491             	3.35949677e+02
492             	3.35949840e+02
493             	3.35950028e+02
494             	3.35950232e+02
495             	3.35950431e+02
496             	3.35950606e+02
497             	3.35950734e+02
498             	3.35950790e+02
499             	3.35950808e+02
500             	3.35950780e+02
501             	3.35950710e+02
502             	3.35950604e+02
503             	3.35950481e+02
504             	3.35950359e+02
505             	3.35950272e+02
506             	3.35950198e+02
507             	3.35950151e+02
508             	3.35950140e+02
509             	3.35950165e+02
510             	3.35950225e+02
511             	3.35950318e+02
512             	3.35950440e+02
513             	3.35950585e+02
514             	3.35950741e+02
515             	3.35950897e+02
516             	3.35951046e+02
517             	3.35951186e+02
518             	3.35951314e+02
519             	3.35951422e+02
520             	3.35951540e+02
521             	3.35951636e+02
522             	3.35951744e+02
523             	3.35951842e+02
524             	3.35951933e+02
525             	3.35952024e+02
526             	3.35952115e+02
527             	3.35952203e+02
528             	3.35952281e+02
529             	3.35952325e+02
530             	3.35952358e+02
531             	3.35952367e+02
532             	3.35952345e+02
533             	3.35952293e+02
534             	3.35952227e+02
535             	3.35952165e+02
536             	3.35952117e+02
537             	3.35952111e+02
538             	3.35952125e+02
539             	3.35952165e+02
540             	3.35952222e+02
541             	3.35952296e+02
542             	3.35952382e+02
543             	3.35952466e+02
544             	3.35952560e+02
545             	3.35952657e+02
546             	3.35952743e+02
547             	3.35952827e+02
548             	3.35952905e+02
549             	3.35952972e+02
550             	3.35953028e+02
551             	3.35953074e+02
552             	3.35953109e+02
553             	3.35953138e+02
554             	3.35953163e+02
555             	3.35953207e+02
556             	3.35953260e+02
557             	3.35953306e+02
558             	3.35953352e+02
559             	3.35953396e+02
560             	3.35953432e+02
561             	3.35953452e+02
562             	3.35953472e+02
563             	3.35953486e+02
564             	3.35953493e+02
565             	3.35953492e+02
566             	3.35953483e+02
567             	3.35953464e+02
568             	3.35953439e+02
569             	3.35953411e+02
570             	3.35953381e+02
571             	3.35953352e+02
572             	3.35953325e+02
573             	3.35953302e+02
574             	3.35953284e+02
575             	3.35953270e+02
576             	3.35953267e+02
577             	3.35953275e+02
578             	3.35953291e+02
579             	3.35953314e+02
580             	3.35953341e+02
581             	3.35953371e+02
582             	3.35953402e+02
583             	3.35953429e+02
584             	3.35953468e+02
585             	3.35953505e+02
586             	3.35953539e+02
587             	3.35953567e+02
588             	3.35953590e+02
589             	3.35953606e+02
590             	3.35953618e+02
591             	3.35953627e+02
592             	3.35953633e+02
593             	3.35953633e+02
594             	3.35953627e+02
595             	3.35953620e+02
596             	3.35953606e+02
597             	3.35953582e+02
598             	3.35953561e+02
599             	3.35953540e+02
600             	3.35953512e+02
601             	3.35953489e+02
602             	3.35953466e+02
603             	3.35953446e+02
604             	3.35953432e+02
605             	3.35953432e+02
606             	3.35953439e+02
607             	3.35953455e+02
608             	3.35953484e+02
609             	3.35953522e+02
610             	3.35953569e+02
611             	3.35953622e+02
612             	3.35953675e+02
613             	3.35953721e+02
614             	3.35953762e+02
615             	3.35953797e+02
616             	3.35953831e+02
617             	3.35953863e+02
618             	3.35953890e+02
619             	3.35953912e+02
620             	3.35953942e+02
621             	3.35953972e+02
