# Region        : cellZone component_0
# Cells         : 96
# Volume        : 1.86589093e-01
# Time          	volAverage(T)
1               	3.00429985e+02
2               	3.00856305e+02
3               	3.01262124e+02
4               	3.01656393e+02
5               	3.02044609e+02
6               	3.02428688e+02
7               	3.02809847e+02
8               	3.03189805e+02
9               	3.03570316e+02
10              	3.03948341e+02
11              	3.04321158e+02
12              	3.04687571e+02
13              	3.05049891e+02
14              	3.05409987e+02
15              	3.05769501e+02
16              	3.06128293e+02
17              	3.06485200e+02
18              	3.06842483e+02
19              	3.07200031e+02
20              	3.07554900e+02
21              	3.07905676e+02
22              	3.08255070e+02
23              	3.08601468e+02
24              	3.08947746e+02
25              	3.09292412e+02
26              	3.09634612e+02
27              	3.09966477e+02
28              	3.10289191e+02
29              	3.10607151e+02
30              	3.10919026e+02
31              	3.11224914e+02
32              	3.11527876e+02
33              	3.11829177e+02
34              	3.12128528e+02
35              	3.12424421e+02
36              	3.12718564e+02
37              	3.13013936e+02
38              	3.13309646e+02
39              	3.13600436e+02
40              	3.13880666e+02
41              	3.14157142e+02
42              	3.14427458e+02
43              	3.14689257e+02
44              	3.14939454e+02
45              	3.15189235e+02
46              	3.15436628e+02
47              	3.15681746e+02
48              	3.15920900e+02
49              	3.16155301e+02
50              	3.16391451e+02
51              	3.16627499e+02
52              	3.16858550e+02
53              	3.17079789e+02
54              	3.17300719e+02
55              	3.17514266e+02
56              	3.17724683e+02
57              	3.17928723e+02
58              	3.18131779e+02
59              	3.18328770e+02
60              	3.18519505e+02
61              	3.18706634e+02
62              	3.18892979e+02
63              	3.19078071e+02
64              	3.19260581e+02
65              	3.19438213e+02
66              	3.19613758e+02
67              	3.19787307e+02
68              	3.19950107e+02
69              	3.20106100e+02
70              	3.20257844e+02
71              	3.20409072e+02
72              	3.20557704e+02
73              	3.20698598e+02
74              	3.20836840e+02
75              	3.20971334e+02
76              	3.21106439e+02
77              	3.21237971e+02
78              	3.21373096e+02
79              	3.21507722e+02
80              	3.21638396e+02
81              	3.21765035e+02
82              	3.21885935e+02
83              	3.22001193e+02
84              	3.22116531e+02
85              	3.22227774e+02
86              	3.22334161e+02
87              	3.22438796e+02
88              	3.22541687e+02
89              	3.22645417e+02
90              	3.22743920e+02
91              	3.22845809e+02
92              	3.22948835e+02
93              	3.23051967e+02
94              	3.23151959e+02
95              	3.23249259e+02
96              	3.23342735e+02
97              	3.23433955e+02
98              	3.23522189e+02
99              	3.23610021e+02
100             	3.23697063e+02
101             	3.23778121e+02
102             	3.23860099e+02
103             	3.23939019e+02
104             	3.24019826e+02
105             	3.24098152e+02
106             	3.24177428e+02
107             	3.24255748e+02
108             	3.24334225e+02
109             	3.24409117e+02
110             	3.24483667e+02
111             	3.24557578e+02
112             	3.24629026e+02
113             	3.24697725e+02
114             	3.24764679e+02
115             	3.24830614e+02
116             	3.24894303e+02
117             	3.24958567e+02
118             	3.25020921e+02
119             	3.25082711e+02
120             	3.25145367e+02
121             	3.25208229e+02
122             	3.25269442e+02
123             	3.25328034e+02
124             	3.25386934e+02
125             	3.25444058e+02
126             	3.25499063e+02
127             	3.25552617e+02
128             	3.25604627e+02
129             	3.25657058e+02
130             	3.25710719e+02
131             	3.25763197e+02
132             	3.25815795e+02
133             	3.25867239e+02
134             	3.25914294e+02
135             	3.25960016e+02
136             	3.26006036e+02
137             	3.26052234e+02
138             	3.26096295e+02
139             	3.26138293e+02
140             	3.26178845e+02
141             	3.26219082e+02
142             	3.26255700e+02
143             	3.26295481e+02
144             	3.26336982e+02
145             	3.26377620e+02
146             	3.26419511e+02
147             	3.26461682e+02
148             	3.26498764e+02
149             	3.26534557e+02
150             	3.26568863e+02
151             	3.26604246e+02
152             	3.26638030e+02
153             	3.26670971e+02
154             	3.26703428e+02
155             	3.26736462e+02
156             	3.26768270e+02
157             	3.26802219e+02
158             	3.26836349e+02
159             	3.26869818e+02
160             	3.26902691e+02
161             	3.26936954e+02
162             	3.26967896e+02
163             	3.27000204e+02
164             	3.27031096e+02
165             	3.27060247e+02
166             	3.27088148e+02
167             	3.27115334e+02
168             	3.27141449e+02
169             	3.27166449e+02
170             	3.27190652e+02
171             	3.27215395e+02
172             	3.27239433e+02
173             	3.27263943e+02
174             	3.27288919e+02
175             	3.27314095e+02
176             	3.27339833e+02
177             	3.27365735e+02
178             	3.27389959e+02
179             	3.27414347e+02
180             	3.27437828e+02
181             	3.27460234e+02
182             	3.27482578e+02
183             	3.27504650e+02
184             	3.27526455e+02
185             	3.27547906e+02
186             	3.27569237e+02
187             	3.27589911e+02
188             	3.27610382e+02
189             	3.27630031e+02
190             	3.27649626e+02
191             	3.27669092e+02
192             	3.27688099e+02
193             	3.27706898e+02
194             	3.27725448e+02
195             	3.27743729e+02
196             	3.27761744e+02
197             	3.27779259e+02
198             	3.27796566e+02
199             	3.27813481e+02
200             	3.27830039e+02
201             	3.27846416e+02
202             	3.27862611e+02
203             	3.27878594e+02
204             	3.27894325e+02
205             	3.27909592e+02
206             	3.27925035e+02
207             	3.27940515e+02
208             	3.27956205e+02
209             	3.27972032e+02
210             	3.27987765e+02
211             	3.28002773e+02
212             	3.28017581e+02
213             	3.28031999e+02
214             	3.28046152e+02
215             	3.28059722e+02
216             	3.28072637e+02
217             	3.28085406e+02
218             	3.28098090e+02
219             	3.28110760e+02
220             	3.28123608e+02
221             	3.28136258e+02
222             	3.28148682e+02
223             	3.28161121e+02
224             	3.28173893e+02
225             	3.28186570e+02
226             	3.28198767e+02
227             	3.28210990e+02
228             	3.28223072e+02
229             	3.28235174e+02
230             	3.28247018e+02
231             	3.28258588e+02
232             	3.28269885e+02
233             	3.28280998e+02
234             	3.28291701e+02
235             	3.28302254e+02
236             	3.28312566e+02
237             	3.28322994e+02
238             	3.28333330e+02
239             	3.28343488e+02
240             	3.28353531e+02
241             	3.28363427e+02
242             	3.28373218e+02
243             	3.28383041e+02
244             	3.28393032e+02
245             	3.28402889e+02
246             	3.28412619e+02
247             	3.28422161e+02
248             	3.28431378e+02
249             	3.28440457e+02
250             	3.28449316e+02
251             	3.28458040e+02
252             	3.28466670e+02
253             	3.28475261e+02
254             	3.28483989e+02
255             	3.28492519e+02
256             	3.28501077e+02
257             	3.28509760e+02
258             	3.28518468e+02
259             	3.28527068e+02
260             	3.28535354e+02
261             	3.28543309e+02
262             	3.28550699e+02
263             	3.28558063e+02
264             	3.28565222e+02
265             	3.28572087e+02
266             	3.28578838e+02
267             	3.28585690e+02
268             	3.28592571e+02
269             	3.28599361e+02
270             	3.28606238e+02
271             	3.28613038e+02
272             	3.28620091e+02
273             	3.28626980e+02
274             	3.28633982e+02
275             	3.28640947e+02
276             	3.28647603e+02
277             	3.28654227e+02
278             	3.28660878e+02
279             	3.28667393e+02
280             	3.28673664e+02
281             	3.28679895e+02
282             	3.28686018e+02
283             	3.28692069e+02
284             	3.28698066e+02
285             	3.28704099e+02
286             	3.28710224e+02
287             	3.28716208e+02
288             	3.28722239e+02
289             	3.28728240e+02
290             	3.28734078e+02
291             	3.28739856e+02
292             	3.28745494e+02
293             	3.28750956e+02
294             	3.28756322e+02
295             	3.28761576e+02
296             	3.28766497e+02
297             	3.28771473e+02
298             	3.28776615e+02
299             	3.28781599e+02
300             	3.28786660e+02
301             	3.28791796e+02
302             	3.28797082e+02
303             	3.28802244e+02
304             	3.28807409e+02
305             	3.28812696e+02
306             	3.28817727e+02
307             	3.28822825e+02
308             	3.28827877e+02
309             	3.28832891e+02
310             	3.28837706e+02
311             	3.28842422e+02
312             	3.28847033e+02
313             	3.28851585e+02
314             	3.28856125e+02
315             	3.28860594e+02
316             	3.28865025e+02
317             	3.28869406e+02
318             	3.28873765e+02
319             	3.28877975e+02
320             	3.28882136e+02
321             	3.28886358e+02
322             	3.28890542e+02
323             	3.28894666e+02
324             	3.28898677e+02
325             	3.28902719e+02
326             	3.28906703e+02
327             	3.28910741e+02
328             	3.28914804e+02
329             	3.28918881e+02
330             	3.28923010e+02
331             	3.28927059e+02
332             	3.28930997e+02
333             	3.28934964e+02
334             	3.28938922e+02
335             	3.28942739e+02
336             	3.28946489e+02
337             	3.28950324e+02
338             	3.28954126e+02
339             	3.28957867e+02
340             	3.28961631e+02
341             	3.28965413e+02
342             	3.28969153e+02
343             	3.28972780e+02
344             	3.28976484e+02
345             	3.28980176e+02
346             	3.28983869e+02
347             	3.28987579e+02
348             	3.28991233e+02
349             	3.28994831e+02
350             	3.28998433e+02
351             	3.29002046e+02
352             	3.29005677e+02
353             	3.29009302e+02
354             	3.29012897e+02
355             	3.29016332e+02
356             	3.29019654e+02
357             	3.29022926e+02
358             	3.29026131e+02
359             	3.29029358e+02
360             	3.29032613e+02
361             	3.29035735e+02
362             	3.29038846e+02
363             	3.29042037e+02
364             	3.29045351e+02
365             	3.29048570e+02
366             	3.29051797e+02
367             	3.29055054e+02
368             	3.29058313e+02
369             	3.29061540e+02
370             	3.29064722e+02
371             	3.29067730e+02
372             	3.29070760e+02
373             	3.29073762e+02
374             	3.29076667e+02
375             	3.29079403e+02
376             	3.29082129e+02
377             	3.29084874e+02
378             	3.29087592e+02
379             	3.29090293e+02
380             	3.29093042e+02
381             	3.29095784e+02
382             	3.29098524e+02
383             	3.29101271e+02
384             	3.29104031e+02
385             	3.29106842e+02
386             	3.29109605e+02
387             	3.29112330e+02
388             	3.29115048e+02
389             	3.29117781e+02
390             	3.29120532e+02
391             	3.29123165e+02
392             	3.29125864e+02
393             	3.29128616e+02
394             	3.29131317e+02
395             	3.29134001e+02
396             	3.29136677e+02
397             	3.29139337e+02
398             	3.29141992e+02
399             	3.29144659e+02
400             	3.29147290e+02
401             	3.29149878e+02
402             	3.29152413e+02
403             	3.29154900e+02
404             	3.29157333e+02
405             	3.29159782e+02
406             	3.29162211e+02
407             	3.29164600e+02
408             	3.29166962e+02
409             	3.29169310e+02
410             	3.29171658e+02
411             	3.29174037e+02
412             	3.29176435e+02
413             	3.29178640e+02
414             	3.29180933e+02
415             	3.29183282e+02
416             	3.29185590e+02
417             	3.29187884e+02
418             	3.29190148e+02
419             	3.29192452e+02
420             	3.29194656e+02
421             	3.29196961e+02
422             	3.29199222e+02
423             	3.29201432e+02
424             	3.29203643e+02
425             	3.29205851e+02
426             	3.29208005e+02
427             	3.29210070e+02
428             	3.29212203e+02
429             	3.29214287e+02
430             	3.29216307e+02
431             	3.29218247e+02
432             	3.29220171e+02
433             	3.29222159e+02
434             	3.29224109e+02
435             	3.29226144e+02
436             	3.29228175e+02
437             	3.29230191e+02
438             	3.29232235e+02
439             	3.29234300e+02
440             	3.29236321e+02
441             	3.29238402e+02
442             	3.29240366e+02
443             	3.29242352e+02
444             	3.29244368e+02
445             	3.29246339e+02
446             	3.29248271e+02
447             	3.29250165e+02
448             	3.29252036e+02
449             	3.29253891e+02
450             	3.29255768e+02
451             	3.29257634e+02
452             	3.29259517e+02
453             	3.29261453e+02
454             	3.29263390e+02
455             	3.29265334e+02
456             	3.29267305e+02
457             	3.29269297e+02
458             	3.29271272e+02
459             	3.29273159e+02
460             	3.29275055e+02
461             	3.29276944e+02
462             	3.29278790e+02
463             	3.29280602e+02
464             	3.29282406e+02
465             	3.29284201e+02
466             	3.29285881e+02
467             	3.29287586e+02
468             	3.29289294e+02
469             	3.29290967e+02
470             	3.29292707e+02
471             	3.29294386e+02
472             	3.29296061e+02
473             	3.29297776e+02
474             	3.29299522e+02
475             	3.29301254e+02
476             	3.29302975e+02
477             	3.29304692e+02
478             	3.29306400e+02
479             	3.29308079e+02
480             	3.29309676e+02
481             	3.29311251e+02
482             	3.29312854e+02
483             	3.29314462e+02
484             	3.29316074e+02
485             	3.29317710e+02
486             	3.29319348e+02
487             	3.29320985e+02
488             	3.29322637e+02
489             	3.29324297e+02
490             	3.29325948e+02
491             	3.29327569e+02
492             	3.29329165e+02
493             	3.29330734e+02
494             	3.29332289e+02
495             	3.29333820e+02
496             	3.29335336e+02
497             	3.29336851e+02
498             	3.29338387e+02
499             	3.29339934e+02
500             	3.29341486e+02
501             	3.29343032e+02
502             	3.29344554e+02
503             	3.29346093e+02
504             	3.29347629e+02
505             	3.29349127e+02
506             	3.29350568e+02
507             	3.29351979e+02
508             	3.29353402e+02
509             	3.29354803e+02
510             	3.29356196e+02
511             	3.29357605e+02
512             	3.29359034e+02
513             	3.29360472e+02
514             	3.29361929e+02
515             	3.29363394e+02
516             	3.29364866e+02
517             	3.29366337e+02
518             	3.29367803e+02
519             	3.29369250e+02
520             	3.29370656e+02
521             	3.29372060e+02
522             	3.29373448e+02
523             	3.29374816e+02
524             	3.29376147e+02
525             	3.29377480e+02
526             	3.29378807e+02
527             	3.29380127e+02
528             	3.29381471e+02
529             	3.29382838e+02
530             	3.29384184e+02
531             	3.29385526e+02
532             	3.29386871e+02
533             	3.29388212e+02
534             	3.29389555e+02
535             	3.29390903e+02
536             	3.29392252e+02
537             	3.29393578e+02
538             	3.29394892e+02
539             	3.29396195e+02
540             	3.29397494e+02
541             	3.29398811e+02
542             	3.29400123e+02
543             	3.29401383e+02
544             	3.29402657e+02
545             	3.29403932e+02
546             	3.29405183e+02
547             	3.29406397e+02
548             	3.29407620e+02
549             	3.29408836e+02
550             	3.29410058e+02
551             	3.29411284e+02
552             	3.29412508e+02
553             	3.29413737e+02
554             	3.29414977e+02
555             	3.29416231e+02
556             	3.29417489e+02
557             	3.29418730e+02
558             	3.29419964e+02
559             	3.29421183e+02
560             	3.29422376e+02
561             	3.29423575e+02
562             	3.29424769e+02
563             	3.29425949e+02
564             	3.29427113e+02
565             	3.29428267e+02
566             	3.29429412e+02
567             	3.29430547e+02
568             	3.29431673e+02
569             	3.29432787e+02
570             	3.29433892e+02
571             	3.29434985e+02
572             	3.29436071e+02
573             	3.29437151e+02
574             	3.29438224e+02
575             	3.29439325e+02
576             	3.29440416e+02
577             	3.29441504e+02
578             	3.29442605e+02
579             	3.29443694e+02
580             	3.29444791e+02
581             	3.29445889e+02
582             	3.29446967e+02
583             	3.29448012e+02
584             	3.29449076e+02
585             	3.29450135e+02
586             	3.29451183e+02
587             	3.29452232e+02
588             	3.29453289e+02
589             	3.29454358e+02
590             	3.29455414e+02
591             	3.29456465e+02
592             	3.29457522e+02
593             	3.29458580e+02
594             	3.29459631e+02
595             	3.29460677e+02
596             	3.29461720e+02
597             	3.29462756e+02
598             	3.29463785e+02
599             	3.29464806e+02
600             	3.29465824e+02
601             	3.29466840e+02
602             	3.29467843e+02
603             	3.29468850e+02
604             	3.29469858e+02
605             	3.29470865e+02
606             	3.29471872e+02
607             	3.29472880e+02
608             	3.29473890e+02
609             	3.29474898e+02
610             	3.29475904e+02
611             	3.29476909e+02
612             	3.29477907e+02
613             	3.29478901e+02
614             	3.29479889e+02
615             	3.29480882e+02
616             	3.29481861e+02
617             	3.29482833e+02
618             	3.29483801e+02
619             	3.29484764e+02
620             	3.29485725e+02
621             	3.29486684e+02
