# Region        : cellZone component_1
# Cells         : 41
# Volume        : 3.88053740e-02
# Time          	volAverage(T)
1               	3.32211453e+02
2               	3.62680945e+02
3               	3.79923813e+02
4               	3.89723733e+02
5               	4.01346006e+02
6               	4.16156132e+02
7               	4.30910502e+02
8               	4.43537740e+02
9               	4.54956277e+02
10              	4.66203652e+02
11              	4.78058400e+02
12              	4.88537682e+02
13              	4.96448266e+02
14              	5.03130142e+02
15              	5.09551584e+02
16              	5.16262054e+02
17              	5.22904569e+02
18              	5.28523683e+02
19              	5.34684112e+02
20              	5.41567194e+02
21              	5.48612396e+02
22              	5.54837605e+02
23              	5.60014568e+02
24              	5.63950723e+02
25              	5.67013954e+02
26              	5.69131096e+02
27              	5.70568299e+02
28              	5.71613326e+02
29              	5.72658420e+02
30              	5.73876265e+02
31              	5.75330638e+02
32              	5.77177205e+02
33              	5.78934034e+02
34              	5.80057602e+02
35              	5.80396820e+02
36              	5.80229228e+02
37              	5.79347075e+02
38              	5.77767153e+02
39              	5.77041314e+02
40              	5.76848198e+02
41              	5.76800332e+02
42              	5.76858508e+02
43              	5.77020363e+02
44              	5.77664194e+02
45              	5.77973563e+02
46              	5.78007598e+02
47              	5.78173223e+02
48              	5.78169052e+02
49              	5.76476910e+02
50              	5.77318519e+02
51              	5.79325557e+02
52              	5.80790650e+02
53              	5.81738871e+02
54              	5.82238161e+02
55              	5.82482131e+02
56              	5.82676294e+02
57              	5.83111605e+02
58              	5.83214811e+02
59              	5.83109177e+02
60              	5.83141575e+02
61              	5.83141672e+02
62              	5.83226684e+02
63              	5.82964821e+02
64              	5.82704552e+02
65              	5.82700646e+02
66              	5.83114731e+02
67              	5.84551797e+02
68              	5.85031534e+02
69              	5.85016996e+02
70              	5.84573588e+02
71              	5.84091976e+02
72              	5.83480989e+02
73              	5.81991604e+02
74              	5.81884807e+02
75              	5.81939341e+02
76              	5.81601136e+02
77              	5.81012132e+02
78              	5.80579096e+02
79              	5.80757277e+02
80              	5.81584387e+02
81              	5.81082382e+02
82              	5.78874881e+02
83              	5.76576680e+02
84              	5.74852882e+02
85              	5.74631596e+02
86              	5.76025014e+02
87              	5.77791434e+02
88              	5.78354828e+02
89              	5.78197452e+02
90              	5.78346183e+02
91              	5.79176156e+02
92              	5.80302831e+02
93              	5.81135045e+02
94              	5.81589871e+02
95              	5.82112081e+02
96              	5.82675337e+02
97              	5.83334832e+02
98              	5.84383359e+02
99              	5.84769796e+02
100             	5.84996186e+02
101             	5.85261771e+02
102             	5.85640173e+02
103             	5.85893110e+02
104             	5.86113826e+02
105             	5.86596684e+02
106             	5.86842263e+02
107             	5.87107187e+02
108             	5.87351499e+02
109             	5.86547883e+02
110             	5.85573685e+02
111             	5.84421350e+02
112             	5.83622103e+02
113             	5.81985118e+02
114             	5.80496205e+02
115             	5.80202958e+02
116             	5.80525765e+02
117             	5.80281576e+02
118             	5.79513128e+02
119             	5.79455566e+02
120             	5.80238280e+02
121             	5.81496111e+02
122             	5.82410959e+02
123             	5.82901712e+02
124             	5.83237581e+02
125             	5.83479822e+02
126             	5.83964790e+02
127             	5.84577278e+02
128             	5.85247583e+02
129             	5.85743142e+02
130             	5.86075058e+02
131             	5.85841347e+02
132             	5.85378450e+02
133             	5.84412016e+02
134             	5.84417321e+02
135             	5.84411224e+02
136             	5.84025858e+02
137             	5.83633251e+02
138             	5.83094733e+02
139             	5.82759242e+02
140             	5.83187570e+02
141             	5.83757816e+02
142             	5.84113432e+02
143             	5.84623885e+02
144             	5.84859120e+02
145             	5.84916090e+02
146             	5.84196975e+02
147             	5.83689697e+02
148             	5.83673162e+02
149             	5.83708185e+02
150             	5.83505448e+02
151             	5.83444103e+02
152             	5.83576340e+02
153             	5.83746329e+02
154             	5.84533787e+02
155             	5.85662718e+02
156             	5.85843848e+02
157             	5.85530462e+02
158             	5.85280888e+02
159             	5.85147735e+02
160             	5.85450257e+02
161             	5.85682270e+02
162             	5.85725377e+02
163             	5.85627393e+02
164             	5.85517682e+02
165             	5.85456865e+02
166             	5.85240156e+02
167             	5.84727356e+02
168             	5.84282283e+02
169             	5.83950738e+02
170             	5.84188238e+02
171             	5.84342755e+02
172             	5.84609671e+02
173             	5.85168824e+02
174             	5.85774224e+02
175             	5.86255234e+02
176             	5.86638317e+02
177             	5.86975571e+02
178             	5.87169030e+02
179             	5.87182914e+02
180             	5.87048059e+02
181             	5.86719669e+02
182             	5.86131344e+02
183             	5.85405330e+02
184             	5.84699818e+02
185             	5.84314612e+02
186             	5.84745838e+02
187             	5.85086521e+02
188             	5.84521359e+02
189             	5.84711840e+02
190             	5.85379751e+02
191             	5.86012150e+02
192             	5.86587714e+02
193             	5.87060170e+02
194             	5.86784878e+02
195             	5.86593758e+02
196             	5.86497489e+02
197             	5.86341291e+02
198             	5.86155942e+02
199             	5.85951288e+02
200             	5.85783762e+02
201             	5.85672728e+02
202             	5.86204919e+02
203             	5.86512666e+02
204             	5.86700406e+02
205             	5.86951456e+02
206             	5.87261515e+02
207             	5.87517485e+02
208             	5.87638070e+02
209             	5.87653170e+02
210             	5.87634433e+02
211             	5.87371420e+02
212             	5.87268044e+02
213             	5.87092236e+02
214             	5.87010163e+02
215             	5.86900862e+02
216             	5.86780544e+02
217             	5.86755752e+02
218             	5.86668697e+02
219             	5.86603866e+02
220             	5.86521352e+02
221             	5.86482447e+02
222             	5.86559443e+02
223             	5.86600159e+02
224             	5.86664555e+02
225             	5.86763847e+02
226             	5.86878967e+02
227             	5.86979262e+02
228             	5.87061946e+02
229             	5.87082916e+02
230             	5.87129413e+02
231             	5.87278686e+02
232             	5.87413605e+02
233             	5.87557573e+02
234             	5.87629439e+02
235             	5.87534033e+02
236             	5.87404962e+02
237             	5.87259548e+02
238             	5.87111230e+02
239             	5.86954770e+02
240             	5.86789012e+02
241             	5.86609390e+02
242             	5.86353190e+02
243             	5.86166839e+02
244             	5.85959501e+02
245             	5.86293499e+02
246             	5.86591273e+02
247             	5.86792884e+02
248             	5.87053122e+02
249             	5.87322645e+02
250             	5.87427852e+02
251             	5.87541847e+02
252             	5.87590586e+02
253             	5.87438039e+02
254             	5.87142016e+02
255             	5.86897425e+02
256             	5.86563948e+02
257             	5.86220902e+02
258             	5.85945547e+02
259             	5.85981011e+02
260             	5.86229606e+02
261             	5.86375571e+02
262             	5.86553147e+02
263             	5.86742336e+02
264             	5.86936392e+02
265             	5.86783576e+02
266             	5.86625655e+02
267             	5.86564903e+02
268             	5.86860875e+02
269             	5.86919089e+02
270             	5.86915801e+02
271             	5.86931206e+02
272             	5.86962658e+02
273             	5.86782389e+02
274             	5.86870921e+02
275             	5.87086148e+02
276             	5.87245681e+02
277             	5.87272915e+02
278             	5.87314748e+02
279             	5.87356499e+02
280             	5.87362932e+02
281             	5.87233417e+02
282             	5.86978065e+02
283             	5.86698697e+02
284             	5.86327235e+02
285             	5.86045150e+02
286             	5.86321924e+02
287             	5.86397896e+02
288             	5.86468266e+02
289             	5.86701490e+02
290             	5.86990410e+02
291             	5.87203864e+02
292             	5.87251011e+02
293             	5.87271076e+02
294             	5.87164382e+02
295             	5.87119341e+02
296             	5.87126307e+02
297             	5.87188399e+02
298             	5.87195832e+02
299             	5.87091531e+02
300             	5.87025503e+02
301             	5.87167240e+02
302             	5.87062982e+02
303             	5.86914787e+02
304             	5.86867335e+02
305             	5.86788366e+02
306             	5.86694373e+02
307             	5.86632205e+02
308             	5.86616856e+02
309             	5.86777726e+02
310             	5.86941105e+02
311             	5.86965724e+02
312             	5.87047196e+02
313             	5.87153049e+02
314             	5.87119794e+02
315             	5.87012997e+02
316             	5.86882982e+02
317             	5.86812999e+02
318             	5.86763745e+02
319             	5.86788003e+02
320             	5.86789698e+02
321             	5.86638575e+02
322             	5.86696584e+02
323             	5.86832432e+02
324             	5.86994665e+02
325             	5.87100310e+02
326             	5.87187384e+02
327             	5.87294455e+02
328             	5.87280888e+02
329             	5.87145507e+02
330             	5.87060904e+02
331             	5.87078853e+02
332             	5.87057300e+02
333             	5.86976669e+02
334             	5.86883399e+02
335             	5.86996339e+02
336             	5.87027059e+02
337             	5.87013716e+02
338             	5.86950100e+02
339             	5.86923762e+02
340             	5.87067967e+02
341             	5.87126136e+02
342             	5.87124697e+02
343             	5.87133717e+02
344             	5.87148773e+02
345             	5.87142599e+02
346             	5.87203606e+02
347             	5.87227572e+02
348             	5.87163165e+02
349             	5.87135207e+02
350             	5.87117479e+02
351             	5.87067063e+02
352             	5.86962380e+02
353             	5.86866397e+02
354             	5.86681648e+02
355             	5.86578529e+02
356             	5.86715461e+02
357             	5.86712391e+02
358             	5.86762383e+02
359             	5.86801118e+02
360             	5.86873164e+02
361             	5.86969388e+02
362             	5.87084672e+02
363             	5.87208658e+02
364             	5.87350671e+02
365             	5.87398498e+02
366             	5.87417325e+02
367             	5.87326947e+02
368             	5.87165696e+02
369             	5.87093278e+02
370             	5.87047031e+02
371             	5.86964627e+02
372             	5.86889421e+02
373             	5.86783142e+02
374             	5.86839629e+02
375             	5.86964303e+02
376             	5.86979221e+02
377             	5.87026567e+02
378             	5.87099960e+02
379             	5.87175789e+02
380             	5.87260667e+02
381             	5.87330268e+02
382             	5.87278478e+02
383             	5.87143612e+02
384             	5.87149722e+02
385             	5.87194679e+02
386             	5.87153104e+02
387             	5.87091076e+02
388             	5.87045599e+02
389             	5.87004684e+02
390             	5.86956802e+02
391             	5.86929245e+02
392             	5.87066235e+02
393             	5.87047503e+02
394             	5.87021954e+02
395             	5.87049836e+02
396             	5.87122668e+02
397             	5.87223578e+02
398             	5.87301946e+02
399             	5.87207621e+02
400             	5.87158809e+02
401             	5.87065234e+02
402             	5.86995122e+02
403             	5.86922006e+02
404             	5.86834723e+02
405             	5.86754836e+02
406             	5.86796544e+02
407             	5.86862011e+02
408             	5.87003125e+02
409             	5.87086577e+02
410             	5.87139410e+02
411             	5.87085399e+02
412             	5.87105502e+02
413             	5.87187215e+02
414             	5.87248848e+02
415             	5.87192841e+02
416             	5.87159424e+02
417             	5.87154301e+02
418             	5.87189070e+02
419             	5.87154821e+02
420             	5.87118784e+02
421             	5.87075763e+02
422             	5.87022775e+02
423             	5.87025607e+02
424             	5.87033105e+02
425             	5.87005281e+02
426             	5.86952509e+02
427             	5.86836429e+02
428             	5.86805736e+02
429             	5.86991193e+02
430             	5.87142740e+02
431             	5.87140481e+02
432             	5.87152310e+02
433             	5.87212989e+02
434             	5.87275922e+02
435             	5.87213445e+02
436             	5.87176918e+02
437             	5.87173009e+02
438             	5.87163525e+02
439             	5.87125468e+02
440             	5.87081852e+02
441             	5.87036537e+02
442             	5.87004015e+02
443             	5.86987963e+02
444             	5.86930643e+02
445             	5.86938712e+02
446             	5.86936980e+02
447             	5.86923187e+02
448             	5.86929398e+02
449             	5.86980218e+02
450             	5.86991922e+02
451             	5.87004659e+02
452             	5.87026170e+02
453             	5.87055750e+02
454             	5.87072856e+02
455             	5.87068748e+02
456             	5.87058925e+02
457             	5.87052374e+02
458             	5.87033182e+02
459             	5.87081240e+02
460             	5.87102805e+02
461             	5.87127428e+02
462             	5.87133635e+02
463             	5.87095336e+02
464             	5.87091466e+02
465             	5.87015880e+02
466             	5.86992186e+02
467             	5.86975655e+02
468             	5.86955925e+02
469             	5.86923600e+02
470             	5.86904309e+02
471             	5.86881962e+02
472             	5.87010528e+02
473             	5.87028195e+02
474             	5.86975676e+02
475             	5.86979389e+02
476             	5.87026375e+02
477             	5.87067157e+02
478             	5.87098260e+02
479             	5.87114184e+02
480             	5.87125678e+02
481             	5.87110239e+02
482             	5.87061771e+02
483             	5.87071141e+02
484             	5.87069580e+02
485             	5.87050473e+02
486             	5.87023650e+02
487             	5.86999346e+02
488             	5.86986225e+02
489             	5.86992304e+02
490             	5.86976349e+02
491             	5.86979475e+02
492             	5.86994150e+02
493             	5.87026811e+02
494             	5.87048308e+02
495             	5.87065938e+02
496             	5.87083493e+02
497             	5.87097451e+02
498             	5.87108442e+02
499             	5.87109379e+02
500             	5.87151301e+02
501             	5.87164798e+02
502             	5.87109963e+02
503             	5.87089681e+02
504             	5.87085021e+02
505             	5.87075045e+02
506             	5.87037992e+02
507             	5.87017117e+02
508             	5.87002940e+02
509             	5.86988648e+02
510             	5.86978717e+02
511             	5.86978323e+02
512             	5.87025345e+02
513             	5.87065938e+02
514             	5.87074357e+02
515             	5.87082434e+02
516             	5.87090184e+02
517             	5.87119141e+02
518             	5.87126916e+02
519             	5.87102489e+02
520             	5.87071797e+02
521             	5.87049258e+02
522             	5.87051019e+02
523             	5.87028126e+02
524             	5.86991733e+02
525             	5.86960235e+02
526             	5.86982305e+02
527             	5.86983325e+02
528             	5.87015322e+02
529             	5.87027785e+02
530             	5.86992157e+02
531             	5.87006244e+02
532             	5.87039344e+02
533             	5.87064893e+02
534             	5.87080333e+02
535             	5.87087398e+02
536             	5.87093958e+02
537             	5.87096167e+02
538             	5.87099625e+02
539             	5.87099262e+02
540             	5.87095331e+02
541             	5.87082066e+02
542             	5.87052166e+02
543             	5.87032416e+02
544             	5.87020015e+02
545             	5.87004657e+02
546             	5.86993745e+02
547             	5.87009860e+02
548             	5.87014706e+02
549             	5.87021698e+02
550             	5.87036984e+02
551             	5.87043655e+02
552             	5.87048692e+02
553             	5.87060100e+02
554             	5.87065605e+02
555             	5.87062926e+02
556             	5.87067458e+02
557             	5.87076902e+02
558             	5.87086229e+02
559             	5.87085238e+02
560             	5.87083216e+02
561             	5.87086192e+02
562             	5.87080833e+02
563             	5.87074899e+02
564             	5.87074463e+02
565             	5.87057200e+02
566             	5.87050852e+02
567             	5.87049185e+02
568             	5.87041770e+02
569             	5.87035211e+02
570             	5.87032564e+02
571             	5.87025514e+02
572             	5.87026763e+02
573             	5.87056572e+02
574             	5.87064435e+02
575             	5.87066869e+02
576             	5.87072737e+02
577             	5.87075980e+02
578             	5.87081897e+02
579             	5.87067114e+02
580             	5.87057564e+02
581             	5.87056233e+02
582             	5.87056086e+02
583             	5.87054159e+02
584             	5.87061587e+02
585             	5.87058123e+02
586             	5.87061964e+02
587             	5.87062039e+02
588             	5.87067687e+02
589             	5.87071856e+02
590             	5.87075952e+02
591             	5.87073320e+02
592             	5.87070676e+02
593             	5.87063704e+02
594             	5.87054948e+02
595             	5.87054804e+02
596             	5.87053491e+02
597             	5.87044453e+02
598             	5.87028523e+02
599             	5.87015451e+02
600             	5.87020773e+02
601             	5.87016270e+02
602             	5.87044605e+02
603             	5.87050524e+02
604             	5.87053136e+02
605             	5.87059523e+02
606             	5.87069839e+02
607             	5.87077761e+02
608             	5.87066292e+02
609             	5.87067848e+02
610             	5.87071504e+02
611             	5.87077120e+02
612             	5.87073476e+02
613             	5.87068077e+02
614             	5.87071207e+02
615             	5.87063792e+02
616             	5.87064659e+02
617             	5.87059410e+02
618             	5.87053563e+02
619             	5.87057417e+02
620             	5.87050350e+02
621             	5.87052219e+02
