# Region        : cellZone component_4
# Cells         : 578
# Volume        : 1.20258152e+00
# Time          	volAverage(T)
1               	3.00494208e+02
2               	3.00974339e+02
3               	3.01360199e+02
4               	3.01684342e+02
5               	3.02013674e+02
6               	3.02365514e+02
7               	3.02713816e+02
8               	3.03038915e+02
9               	3.03343859e+02
10              	3.03640102e+02
11              	3.03932462e+02
12              	3.04217527e+02
13              	3.04494517e+02
14              	3.04763676e+02
15              	3.05026467e+02
16              	3.05283977e+02
17              	3.05536047e+02
18              	3.05783988e+02
19              	3.06029145e+02
20              	3.06270632e+02
21              	3.06508646e+02
22              	3.06735421e+02
23              	3.06959416e+02
24              	3.07176423e+02
25              	3.07386050e+02
26              	3.07585924e+02
27              	3.07777619e+02
28              	3.07962224e+02
29              	3.08139681e+02
30              	3.08310880e+02
31              	3.08477661e+02
32              	3.08641606e+02
33              	3.08801515e+02
34              	3.08962380e+02
35              	3.09123547e+02
36              	3.09283621e+02
37              	3.09440529e+02
38              	3.09592299e+02
39              	3.09734917e+02
40              	3.09862457e+02
41              	3.09991212e+02
42              	3.10122679e+02
43              	3.10252142e+02
44              	3.10374628e+02
45              	3.10488846e+02
46              	3.10597343e+02
47              	3.10700801e+02
48              	3.10799545e+02
49              	3.10893803e+02
50              	3.10991506e+02
51              	3.11090651e+02
52              	3.11186361e+02
53              	3.11282053e+02
54              	3.11381846e+02
55              	3.11484912e+02
56              	3.11588862e+02
57              	3.11683958e+02
58              	3.11765454e+02
59              	3.11837600e+02
60              	3.11904376e+02
61              	3.11967330e+02
62              	3.12028698e+02
63              	3.12088960e+02
64              	3.12151715e+02
65              	3.12217343e+02
66              	3.12284883e+02
67              	3.12353999e+02
68              	3.12421324e+02
69              	3.12486637e+02
70              	3.12550385e+02
71              	3.12607468e+02
72              	3.12659895e+02
73              	3.12707450e+02
74              	3.12749740e+02
75              	3.12789932e+02
76              	3.12828484e+02
77              	3.12865566e+02
78              	3.12901480e+02
79              	3.12939951e+02
80              	3.12977758e+02
81              	3.13018411e+02
82              	3.13058683e+02
83              	3.13099465e+02
84              	3.13140125e+02
85              	3.13180531e+02
86              	3.13219974e+02
87              	3.13258200e+02
88              	3.13295573e+02
89              	3.13332351e+02
90              	3.13367445e+02
91              	3.13400170e+02
92              	3.13430995e+02
93              	3.13460248e+02
94              	3.13488675e+02
95              	3.13515566e+02
96              	3.13542118e+02
97              	3.13567942e+02
98              	3.13593821e+02
99              	3.13620772e+02
100             	3.13648053e+02
101             	3.13675649e+02
102             	3.13702043e+02
103             	3.13727439e+02
104             	3.13753258e+02
105             	3.13779907e+02
106             	3.13806680e+02
107             	3.13832988e+02
108             	3.13858587e+02
109             	3.13882934e+02
110             	3.13906030e+02
111             	3.13927901e+02
112             	3.13948583e+02
113             	3.13968324e+02
114             	3.13987288e+02
115             	3.14005506e+02
116             	3.14023070e+02
117             	3.14040058e+02
118             	3.14056975e+02
119             	3.14073602e+02
120             	3.14091683e+02
121             	3.14110949e+02
122             	3.14130993e+02
123             	3.14151313e+02
124             	3.14170448e+02
125             	3.14189534e+02
126             	3.14208308e+02
127             	3.14226297e+02
128             	3.14243526e+02
129             	3.14260137e+02
130             	3.14276151e+02
131             	3.14291717e+02
132             	3.14307436e+02
133             	3.14322988e+02
134             	3.14338592e+02
135             	3.14354023e+02
136             	3.14369262e+02
137             	3.14384261e+02
138             	3.14398982e+02
139             	3.14413241e+02
140             	3.14427057e+02
141             	3.14440304e+02
142             	3.14453659e+02
143             	3.14466930e+02
144             	3.14480399e+02
145             	3.14494523e+02
146             	3.14509137e+02
147             	3.14523952e+02
148             	3.14538394e+02
149             	3.14552537e+02
150             	3.14566526e+02
151             	3.14579919e+02
152             	3.14592440e+02
153             	3.14604320e+02
154             	3.14616101e+02
155             	3.14627782e+02
156             	3.14639311e+02
157             	3.14650659e+02
158             	3.14661960e+02
159             	3.14673143e+02
160             	3.14684267e+02
161             	3.14695330e+02
162             	3.14706270e+02
163             	3.14716923e+02
164             	3.14727634e+02
165             	3.14738372e+02
166             	3.14749255e+02
167             	3.14760218e+02
168             	3.14771040e+02
169             	3.14781859e+02
170             	3.14792556e+02
171             	3.14803111e+02
172             	3.14813477e+02
173             	3.14823748e+02
174             	3.14833924e+02
175             	3.14843905e+02
176             	3.14853858e+02
177             	3.14863934e+02
178             	3.14873693e+02
179             	3.14883634e+02
180             	3.14893540e+02
181             	3.14903349e+02
182             	3.14913198e+02
183             	3.14922663e+02
184             	3.14931797e+02
185             	3.14940777e+02
186             	3.14949710e+02
187             	3.14958621e+02
188             	3.14967505e+02
189             	3.14976355e+02
190             	3.14985159e+02
191             	3.14993870e+02
192             	3.15002540e+02
193             	3.15011172e+02
194             	3.15019722e+02
195             	3.15028091e+02
196             	3.15036378e+02
197             	3.15044569e+02
198             	3.15052636e+02
199             	3.15060572e+02
200             	3.15068388e+02
201             	3.15076095e+02
202             	3.15083741e+02
203             	3.15091358e+02
204             	3.15098879e+02
205             	3.15106307e+02
206             	3.15113704e+02
207             	3.15121122e+02
208             	3.15128547e+02
209             	3.15135967e+02
210             	3.15143343e+02
211             	3.15150669e+02
212             	3.15157921e+02
213             	3.15165041e+02
214             	3.15172075e+02
215             	3.15179052e+02
216             	3.15185989e+02
217             	3.15192852e+02
218             	3.15199667e+02
219             	3.15206334e+02
220             	3.15212868e+02
221             	3.15219315e+02
222             	3.15225698e+02
223             	3.15232020e+02
224             	3.15238276e+02
225             	3.15244470e+02
226             	3.15250601e+02
227             	3.15256709e+02
228             	3.15262825e+02
229             	3.15268941e+02
230             	3.15275090e+02
231             	3.15281224e+02
232             	3.15287360e+02
233             	3.15293471e+02
234             	3.15299542e+02
235             	3.15305564e+02
236             	3.15311538e+02
237             	3.15317467e+02
238             	3.15323297e+02
239             	3.15329041e+02
240             	3.15334653e+02
241             	3.15340137e+02
242             	3.15345527e+02
243             	3.15350803e+02
244             	3.15355980e+02
245             	3.15361099e+02
246             	3.15366180e+02
247             	3.15371235e+02
248             	3.15376362e+02
249             	3.15381491e+02
250             	3.15386558e+02
251             	3.15391689e+02
252             	3.15396732e+02
253             	3.15401793e+02
254             	3.15406867e+02
255             	3.15411974e+02
256             	3.15417089e+02
257             	3.15422094e+02
258             	3.15427017e+02
259             	3.15431904e+02
260             	3.15436747e+02
261             	3.15441465e+02
262             	3.15446045e+02
263             	3.15450516e+02
264             	3.15454892e+02
265             	3.15459234e+02
266             	3.15463552e+02
267             	3.15467873e+02
268             	3.15472188e+02
269             	3.15476507e+02
270             	3.15480807e+02
271             	3.15485018e+02
272             	3.15489151e+02
273             	3.15493211e+02
274             	3.15497268e+02
275             	3.15501367e+02
276             	3.15505475e+02
277             	3.15509564e+02
278             	3.15513630e+02
279             	3.15517684e+02
280             	3.15521729e+02
281             	3.15525764e+02
282             	3.15529744e+02
283             	3.15533712e+02
284             	3.15537611e+02
285             	3.15541476e+02
286             	3.15545322e+02
287             	3.15549137e+02
288             	3.15552869e+02
289             	3.15556496e+02
290             	3.15560067e+02
291             	3.15563579e+02
292             	3.15567040e+02
293             	3.15570476e+02
294             	3.15573893e+02
295             	3.15577309e+02
296             	3.15580720e+02
297             	3.15584083e+02
298             	3.15587446e+02
299             	3.15590791e+02
300             	3.15594094e+02
301             	3.15597352e+02
302             	3.15600571e+02
303             	3.15603773e+02
304             	3.15606923e+02
305             	3.15610030e+02
306             	3.15613124e+02
307             	3.15616261e+02
308             	3.15619450e+02
309             	3.15622636e+02
310             	3.15625787e+02
311             	3.15628912e+02
312             	3.15632001e+02
313             	3.15635052e+02
314             	3.15638053e+02
315             	3.15641008e+02
316             	3.15643888e+02
317             	3.15646717e+02
318             	3.15649537e+02
319             	3.15652339e+02
320             	3.15655117e+02
321             	3.15657865e+02
322             	3.15660614e+02
323             	3.15663356e+02
324             	3.15666073e+02
325             	3.15668745e+02
326             	3.15671368e+02
327             	3.15673951e+02
328             	3.15676496e+02
329             	3.15679010e+02
330             	3.15681496e+02
331             	3.15683958e+02
332             	3.15686397e+02
333             	3.15688813e+02
334             	3.15691200e+02
335             	3.15693596e+02
336             	3.15696016e+02
337             	3.15698443e+02
338             	3.15700863e+02
339             	3.15703268e+02
340             	3.15705643e+02
341             	3.15708006e+02
342             	3.15710352e+02
343             	3.15712674e+02
344             	3.15714973e+02
345             	3.15717238e+02
346             	3.15719485e+02
347             	3.15721724e+02
348             	3.15723926e+02
349             	3.15726110e+02
350             	3.15728272e+02
351             	3.15730417e+02
352             	3.15732542e+02
353             	3.15734644e+02
354             	3.15736725e+02
355             	3.15738773e+02
356             	3.15740804e+02
357             	3.15742817e+02
358             	3.15744804e+02
359             	3.15746757e+02
360             	3.15748676e+02
361             	3.15750560e+02
362             	3.15752422e+02
363             	3.15754241e+02
364             	3.15756039e+02
365             	3.15757814e+02
366             	3.15759568e+02
367             	3.15761303e+02
368             	3.15763018e+02
369             	3.15764718e+02
370             	3.15766406e+02
371             	3.15768083e+02
372             	3.15769749e+02
373             	3.15771397e+02
374             	3.15773048e+02
375             	3.15774702e+02
376             	3.15776355e+02
377             	3.15778002e+02
378             	3.15779632e+02
379             	3.15781250e+02
380             	3.15782862e+02
381             	3.15784469e+02
382             	3.15786065e+02
383             	3.15787652e+02
384             	3.15789230e+02
385             	3.15790799e+02
386             	3.15792364e+02
387             	3.15793913e+02
388             	3.15795441e+02
389             	3.15796961e+02
390             	3.15798467e+02
391             	3.15799951e+02
392             	3.15801410e+02
393             	3.15802847e+02
394             	3.15804267e+02
395             	3.15805673e+02
396             	3.15807065e+02
397             	3.15808446e+02
398             	3.15809818e+02
399             	3.15811186e+02
400             	3.15812533e+02
401             	3.15813874e+02
402             	3.15815204e+02
403             	3.15816524e+02
404             	3.15817832e+02
405             	3.15819125e+02
406             	3.15820401e+02
407             	3.15821662e+02
408             	3.15822909e+02
409             	3.15824141e+02
410             	3.15825357e+02
411             	3.15826556e+02
412             	3.15827740e+02
413             	3.15828910e+02
414             	3.15830067e+02
415             	3.15831217e+02
416             	3.15832358e+02
417             	3.15833494e+02
418             	3.15834628e+02
419             	3.15835759e+02
420             	3.15836882e+02
421             	3.15837988e+02
422             	3.15839094e+02
423             	3.15840200e+02
424             	3.15841297e+02
425             	3.15842379e+02
426             	3.15843456e+02
427             	3.15844528e+02
428             	3.15845596e+02
429             	3.15846658e+02
430             	3.15847712e+02
431             	3.15848761e+02
432             	3.15849806e+02
433             	3.15850848e+02
434             	3.15851886e+02
435             	3.15852908e+02
436             	3.15853909e+02
437             	3.15854892e+02
438             	3.15855857e+02
439             	3.15856800e+02
440             	3.15857733e+02
441             	3.15858667e+02
442             	3.15859605e+02
443             	3.15860540e+02
444             	3.15861468e+02
445             	3.15862391e+02
446             	3.15863308e+02
447             	3.15864220e+02
448             	3.15865129e+02
449             	3.15866031e+02
450             	3.15866923e+02
451             	3.15867807e+02
452             	3.15868672e+02
453             	3.15869522e+02
454             	3.15870354e+02
455             	3.15871179e+02
456             	3.15871996e+02
457             	3.15872800e+02
458             	3.15873602e+02
459             	3.15874413e+02
460             	3.15875231e+02
461             	3.15876049e+02
462             	3.15876860e+02
463             	3.15877672e+02
464             	3.15878484e+02
465             	3.15879294e+02
466             	3.15880102e+02
467             	3.15880903e+02
468             	3.15881696e+02
469             	3.15882476e+02
470             	3.15883244e+02
471             	3.15884003e+02
472             	3.15884752e+02
473             	3.15885493e+02
474             	3.15886213e+02
475             	3.15886920e+02
476             	3.15887617e+02
477             	3.15888302e+02
478             	3.15888975e+02
479             	3.15889640e+02
480             	3.15890301e+02
481             	3.15890964e+02
482             	3.15891624e+02
483             	3.15892278e+02
484             	3.15892932e+02
485             	3.15893597e+02
486             	3.15894265e+02
487             	3.15894937e+02
488             	3.15895597e+02
489             	3.15896261e+02
490             	3.15896931e+02
491             	3.15897599e+02
492             	3.15898262e+02
493             	3.15898920e+02
494             	3.15899572e+02
495             	3.15900212e+02
496             	3.15900849e+02
497             	3.15901474e+02
498             	3.15902081e+02
499             	3.15902671e+02
500             	3.15903252e+02
501             	3.15903828e+02
502             	3.15904400e+02
503             	3.15904968e+02
504             	3.15905538e+02
505             	3.15906106e+02
506             	3.15906668e+02
507             	3.15907221e+02
508             	3.15907769e+02
509             	3.15908309e+02
510             	3.15908840e+02
511             	3.15909359e+02
512             	3.15909865e+02
513             	3.15910361e+02
514             	3.15910856e+02
515             	3.15911360e+02
516             	3.15911867e+02
517             	3.15912385e+02
518             	3.15912895e+02
519             	3.15913428e+02
520             	3.15913969e+02
521             	3.15914516e+02
522             	3.15915055e+02
523             	3.15915585e+02
524             	3.15916119e+02
525             	3.15916653e+02
526             	3.15917154e+02
527             	3.15917640e+02
528             	3.15918109e+02
529             	3.15918574e+02
530             	3.15919035e+02
531             	3.15919491e+02
532             	3.15919938e+02
533             	3.15920381e+02
534             	3.15920823e+02
535             	3.15921264e+02
536             	3.15921701e+02
537             	3.15922136e+02
538             	3.15922574e+02
539             	3.15923009e+02
540             	3.15923429e+02
541             	3.15923853e+02
542             	3.15924272e+02
543             	3.15924702e+02
544             	3.15925160e+02
545             	3.15925637e+02
546             	3.15926121e+02
547             	3.15926604e+02
548             	3.15927088e+02
549             	3.15927576e+02
550             	3.15928065e+02
551             	3.15928536e+02
552             	3.15928975e+02
553             	3.15929384e+02
554             	3.15929780e+02
555             	3.15930164e+02
556             	3.15930529e+02
557             	3.15930891e+02
558             	3.15931256e+02
559             	3.15931618e+02
560             	3.15931979e+02
561             	3.15932341e+02
562             	3.15932698e+02
563             	3.15933046e+02
564             	3.15933376e+02
565             	3.15933710e+02
566             	3.15934038e+02
567             	3.15934361e+02
568             	3.15934686e+02
569             	3.15935008e+02
570             	3.15935349e+02
571             	3.15935701e+02
572             	3.15936051e+02
573             	3.15936408e+02
574             	3.15936762e+02
575             	3.15937116e+02
576             	3.15937465e+02
577             	3.15937803e+02
578             	3.15938135e+02
579             	3.15938467e+02
580             	3.15938799e+02
581             	3.15939132e+02
582             	3.15939468e+02
583             	3.15939807e+02
584             	3.15940150e+02
585             	3.15940499e+02
586             	3.15940830e+02
587             	3.15941174e+02
588             	3.15941531e+02
589             	3.15941884e+02
590             	3.15942218e+02
591             	3.15942534e+02
592             	3.15942838e+02
593             	3.15943144e+02
594             	3.15943447e+02
595             	3.15943741e+02
596             	3.15944029e+02
597             	3.15944306e+02
598             	3.15944586e+02
599             	3.15944876e+02
600             	3.15945166e+02
601             	3.15945459e+02
602             	3.15945757e+02
603             	3.15946054e+02
604             	3.15946354e+02
605             	3.15946660e+02
606             	3.15946969e+02
607             	3.15947280e+02
608             	3.15947592e+02
609             	3.15947891e+02
610             	3.15948190e+02
611             	3.15948492e+02
612             	3.15948792e+02
613             	3.15949084e+02
614             	3.15949375e+02
615             	3.15949659e+02
616             	3.15949937e+02
617             	3.15950212e+02
618             	3.15950471e+02
619             	3.15950713e+02
620             	3.15950944e+02
621             	3.15951166e+02
