# Region        : cellZone component_1
# Cells         : 96
# Volume        : 1.72483271e-01
# Time          	volAverage(T)
1               	3.00957677e+02
2               	3.01903536e+02
3               	3.02744449e+02
4               	3.03517683e+02
5               	3.04259688e+02
6               	3.04981623e+02
7               	3.05686206e+02
8               	3.06375211e+02
9               	3.07051133e+02
10              	3.07711557e+02
11              	3.08359085e+02
12              	3.08990814e+02
13              	3.09609777e+02
14              	3.10218089e+02
15              	3.10815824e+02
16              	3.11403060e+02
17              	3.11978429e+02
18              	3.12539284e+02
19              	3.13084954e+02
20              	3.13617810e+02
21              	3.14143412e+02
22              	3.14664349e+02
23              	3.15180124e+02
24              	3.15684087e+02
25              	3.16178296e+02
26              	3.16660631e+02
27              	3.17129498e+02
28              	3.17575437e+02
29              	3.18009734e+02
30              	3.18433596e+02
31              	3.18848385e+02
32              	3.19255548e+02
33              	3.19644300e+02
34              	3.20025332e+02
35              	3.20400474e+02
36              	3.20785088e+02
37              	3.21167216e+02
38              	3.21532025e+02
39              	3.21884423e+02
40              	3.22220317e+02
41              	3.22545813e+02
42              	3.22842698e+02
43              	3.23131325e+02
44              	3.23397842e+02
45              	3.23656857e+02
46              	3.23913065e+02
47              	3.24165231e+02
48              	3.24414981e+02
49              	3.24673438e+02
50              	3.24931197e+02
51              	3.25159859e+02
52              	3.25369416e+02
53              	3.25565837e+02
54              	3.25749995e+02
55              	3.25927373e+02
56              	3.26108206e+02
57              	3.26284742e+02
58              	3.26447869e+02
59              	3.26606652e+02
60              	3.26757941e+02
61              	3.26914989e+02
62              	3.27081025e+02
63              	3.27243570e+02
64              	3.27401869e+02
65              	3.27551886e+02
66              	3.27691243e+02
67              	3.27828966e+02
68              	3.27957433e+02
69              	3.28074289e+02
70              	3.28190151e+02
71              	3.28309657e+02
72              	3.28429838e+02
73              	3.28552853e+02
74              	3.28681506e+02
75              	3.28807639e+02
76              	3.28939571e+02
77              	3.29065513e+02
78              	3.29184988e+02
79              	3.29299062e+02
80              	3.29409796e+02
81              	3.29504312e+02
82              	3.29601642e+02
83              	3.29696719e+02
84              	3.29785964e+02
85              	3.29871720e+02
86              	3.29957681e+02
87              	3.30045626e+02
88              	3.30138566e+02
89              	3.30227632e+02
90              	3.30311250e+02
91              	3.30391556e+02
92              	3.30465628e+02
93              	3.30532826e+02
94              	3.30596931e+02
95              	3.30661982e+02
96              	3.30729667e+02
97              	3.30798027e+02
98              	3.30865460e+02
99              	3.30929098e+02
100             	3.30992419e+02
101             	3.31054882e+02
102             	3.31114598e+02
103             	3.31173526e+02
104             	3.31228279e+02
105             	3.31280442e+02
106             	3.31331074e+02
107             	3.31386307e+02
108             	3.31442997e+02
109             	3.31500964e+02
110             	3.31557493e+02
111             	3.31612305e+02
112             	3.31669103e+02
113             	3.31729030e+02
114             	3.31786108e+02
115             	3.31837242e+02
116             	3.31881728e+02
117             	3.31920166e+02
118             	3.31952364e+02
119             	3.31983062e+02
120             	3.32015678e+02
121             	3.32055107e+02
122             	3.32098041e+02
123             	3.32142345e+02
124             	3.32182659e+02
125             	3.32226297e+02
126             	3.32270924e+02
127             	3.32312782e+02
128             	3.32352110e+02
129             	3.32390391e+02
130             	3.32425854e+02
131             	3.32457675e+02
132             	3.32485115e+02
133             	3.32510352e+02
134             	3.32531846e+02
135             	3.32553911e+02
136             	3.32576910e+02
137             	3.32604039e+02
138             	3.32633273e+02
139             	3.32662412e+02
140             	3.32689027e+02
141             	3.32717655e+02
142             	3.32746759e+02
143             	3.32776152e+02
144             	3.32804750e+02
145             	3.32831971e+02
146             	3.32857287e+02
147             	3.32882579e+02
148             	3.32906962e+02
149             	3.32932970e+02
150             	3.32954637e+02
151             	3.32973609e+02
152             	3.32992173e+02
153             	3.33011058e+02
154             	3.33026548e+02
155             	3.33038162e+02
156             	3.33046291e+02
157             	3.33056786e+02
158             	3.33066663e+02
159             	3.33078496e+02
160             	3.33091463e+02
161             	3.33102658e+02
162             	3.33115366e+02
163             	3.33131821e+02
164             	3.33150459e+02
165             	3.33171162e+02
166             	3.33193104e+02
167             	3.33214382e+02
168             	3.33232859e+02
169             	3.33248757e+02
170             	3.33261702e+02
171             	3.33272876e+02
172             	3.33284422e+02
173             	3.33296688e+02
174             	3.33307829e+02
175             	3.33318680e+02
176             	3.33329871e+02
177             	3.33340978e+02
178             	3.33353765e+02
179             	3.33369386e+02
180             	3.33387596e+02
181             	3.33407246e+02
182             	3.33425105e+02
183             	3.33440401e+02
184             	3.33453515e+02
185             	3.33463787e+02
186             	3.33470787e+02
187             	3.33476133e+02
188             	3.33480594e+02
189             	3.33483834e+02
190             	3.33486634e+02
191             	3.33491080e+02
192             	3.33498115e+02
193             	3.33504899e+02
194             	3.33515094e+02
195             	3.33526376e+02
196             	3.33539787e+02
197             	3.33553596e+02
198             	3.33566586e+02
199             	3.33579843e+02
200             	3.33592940e+02
201             	3.33606258e+02
202             	3.33618099e+02
203             	3.33628142e+02
204             	3.33636418e+02
205             	3.33643127e+02
206             	3.33648667e+02
207             	3.33653925e+02
208             	3.33658069e+02
209             	3.33660835e+02
210             	3.33662713e+02
211             	3.33664829e+02
212             	3.33669081e+02
213             	3.33674082e+02
214             	3.33680647e+02
215             	3.33688195e+02
216             	3.33693606e+02
217             	3.33699479e+02
218             	3.33703887e+02
219             	3.33706986e+02
220             	3.33709293e+02
221             	3.33710973e+02
222             	3.33713377e+02
223             	3.33717069e+02
224             	3.33721637e+02
225             	3.33726510e+02
226             	3.33730786e+02
227             	3.33736220e+02
228             	3.33741706e+02
229             	3.33746327e+02
230             	3.33751590e+02
231             	3.33757371e+02
232             	3.33762852e+02
233             	3.33767594e+02
234             	3.33770813e+02
235             	3.33772975e+02
236             	3.33776177e+02
237             	3.33778806e+02
238             	3.33780818e+02
239             	3.33783065e+02
240             	3.33785806e+02
241             	3.33789455e+02
242             	3.33793605e+02
243             	3.33797243e+02
244             	3.33799872e+02
245             	3.33801427e+02
246             	3.33802421e+02
247             	3.33803088e+02
248             	3.33803109e+02
249             	3.33803131e+02
250             	3.33804566e+02
251             	3.33805790e+02
252             	3.33807049e+02
253             	3.33808416e+02
254             	3.33809377e+02
255             	3.33809893e+02
256             	3.33810437e+02
257             	3.33811509e+02
258             	3.33812883e+02
259             	3.33814586e+02
260             	3.33816628e+02
261             	3.33819504e+02
262             	3.33823314e+02
263             	3.33827298e+02
264             	3.33830293e+02
265             	3.33834344e+02
266             	3.33838581e+02
267             	3.33841961e+02
268             	3.33844818e+02
269             	3.33845359e+02
270             	3.33845865e+02
271             	3.33846287e+02
272             	3.33846290e+02
273             	3.33846519e+02
274             	3.33845794e+02
275             	3.33843789e+02
276             	3.33840251e+02
277             	3.33836124e+02
278             	3.33832290e+02
279             	3.33829299e+02
280             	3.33827264e+02
281             	3.33826001e+02
282             	3.33825679e+02
283             	3.33826495e+02
284             	3.33827478e+02
285             	3.33828703e+02
286             	3.33830103e+02
287             	3.33831551e+02
288             	3.33833219e+02
289             	3.33834964e+02
290             	3.33836807e+02
291             	3.33838689e+02
292             	3.33840432e+02
293             	3.33841821e+02
294             	3.33842981e+02
295             	3.33844289e+02
296             	3.33845855e+02
297             	3.33847639e+02
298             	3.33849565e+02
299             	3.33851578e+02
300             	3.33853373e+02
301             	3.33854901e+02
302             	3.33856282e+02
303             	3.33856842e+02
304             	3.33856584e+02
305             	3.33855743e+02
306             	3.33855011e+02
307             	3.33853895e+02
308             	3.33852164e+02
309             	3.33849900e+02
310             	3.33847275e+02
311             	3.33844412e+02
312             	3.33841508e+02
313             	3.33838693e+02
314             	3.33836071e+02
315             	3.33834495e+02
316             	3.33834006e+02
317             	3.33834477e+02
318             	3.33835859e+02
319             	3.33837934e+02
320             	3.33840294e+02
321             	3.33842538e+02
322             	3.33844836e+02
323             	3.33846867e+02
324             	3.33849086e+02
325             	3.33851665e+02
326             	3.33853903e+02
327             	3.33855568e+02
328             	3.33856372e+02
329             	3.33856750e+02
330             	3.33856822e+02
331             	3.33856694e+02
332             	3.33856276e+02
333             	3.33855982e+02
334             	3.33855815e+02
335             	3.33855768e+02
336             	3.33856544e+02
337             	3.33857876e+02
338             	3.33859478e+02
339             	3.33861233e+02
340             	3.33862966e+02
341             	3.33863900e+02
342             	3.33864761e+02
343             	3.33865762e+02
344             	3.33866509e+02
345             	3.33866796e+02
346             	3.33867076e+02
347             	3.33867661e+02
348             	3.33868269e+02
349             	3.33868754e+02
350             	3.33869000e+02
351             	3.33868932e+02
352             	3.33868515e+02
353             	3.33867702e+02
354             	3.33866284e+02
355             	3.33864122e+02
356             	3.33861148e+02
357             	3.33857568e+02
358             	3.33853510e+02
359             	3.33849165e+02
360             	3.33844716e+02
361             	3.33840334e+02
362             	3.33836160e+02
363             	3.33832579e+02
364             	3.33829535e+02
365             	3.33827009e+02
366             	3.33824708e+02
367             	3.33822889e+02
368             	3.33821614e+02
369             	3.33820875e+02
370             	3.33820533e+02
371             	3.33820514e+02
372             	3.33820820e+02
373             	3.33821524e+02
374             	3.33822736e+02
375             	3.33824463e+02
376             	3.33826373e+02
377             	3.33828384e+02
378             	3.33830941e+02
379             	3.33833999e+02
380             	3.33837319e+02
381             	3.33840548e+02
382             	3.33843727e+02
383             	3.33846755e+02
384             	3.33849498e+02
385             	3.33851819e+02
386             	3.33853649e+02
387             	3.33854970e+02
388             	3.33855939e+02
389             	3.33857711e+02
390             	3.33860162e+02
391             	3.33862616e+02
392             	3.33863854e+02
393             	3.33864274e+02
394             	3.33864889e+02
395             	3.33865888e+02
396             	3.33867284e+02
397             	3.33869000e+02
398             	3.33870939e+02
399             	3.33873231e+02
400             	3.33875475e+02
401             	3.33877385e+02
402             	3.33879313e+02
403             	3.33881235e+02
404             	3.33882859e+02
405             	3.33884243e+02
406             	3.33885444e+02
407             	3.33886434e+02
408             	3.33887382e+02
409             	3.33888231e+02
410             	3.33888823e+02
411             	3.33888834e+02
412             	3.33888115e+02
413             	3.33887530e+02
414             	3.33886387e+02
415             	3.33885547e+02
416             	3.33885219e+02
417             	3.33885191e+02
418             	3.33885412e+02
419             	3.33885438e+02
420             	3.33885459e+02
421             	3.33885679e+02
422             	3.33886023e+02
423             	3.33886017e+02
424             	3.33886020e+02
425             	3.33886500e+02
426             	3.33886764e+02
427             	3.33886780e+02
428             	3.33887241e+02
429             	3.33887853e+02
430             	3.33888143e+02
431             	3.33887770e+02
432             	3.33887006e+02
433             	3.33886010e+02
434             	3.33884862e+02
435             	3.33883659e+02
436             	3.33882477e+02
437             	3.33881463e+02
438             	3.33880427e+02
439             	3.33880508e+02
440             	3.33881602e+02
441             	3.33883188e+02
442             	3.33884627e+02
443             	3.33884920e+02
444             	3.33885255e+02
445             	3.33885888e+02
446             	3.33886878e+02
447             	3.33888370e+02
448             	3.33890541e+02
449             	3.33893388e+02
450             	3.33896813e+02
451             	3.33900103e+02
452             	3.33903322e+02
453             	3.33905700e+02
454             	3.33907577e+02
455             	3.33909307e+02
456             	3.33910640e+02
457             	3.33911626e+02
458             	3.33912404e+02
459             	3.33912883e+02
460             	3.33912955e+02
461             	3.33912519e+02
462             	3.33911695e+02
463             	3.33910501e+02
464             	3.33909281e+02
465             	3.33908395e+02
466             	3.33907527e+02
467             	3.33906603e+02
468             	3.33905583e+02
469             	3.33904360e+02
470             	3.33902859e+02
471             	3.33901358e+02
472             	3.33899917e+02
473             	3.33898494e+02
474             	3.33897047e+02
475             	3.33895592e+02
476             	3.33894228e+02
477             	3.33892866e+02
478             	3.33891529e+02
479             	3.33890302e+02
480             	3.33889255e+02
481             	3.33888425e+02
482             	3.33887807e+02
483             	3.33887352e+02
484             	3.33887003e+02
485             	3.33886713e+02
486             	3.33886433e+02
487             	3.33886091e+02
488             	3.33885599e+02
489             	3.33884921e+02
490             	3.33884061e+02
491             	3.33883036e+02
492             	3.33881875e+02
493             	3.33880601e+02
494             	3.33879230e+02
495             	3.33877770e+02
496             	3.33876215e+02
497             	3.33874552e+02
498             	3.33872784e+02
499             	3.33870924e+02
500             	3.33869005e+02
501             	3.33867080e+02
502             	3.33865211e+02
503             	3.33863444e+02
504             	3.33861798e+02
505             	3.33860315e+02
506             	3.33859026e+02
507             	3.33857931e+02
508             	3.33857034e+02
509             	3.33856370e+02
510             	3.33855955e+02
511             	3.33855785e+02
512             	3.33855848e+02
513             	3.33856163e+02
514             	3.33856718e+02
515             	3.33857270e+02
516             	3.33857982e+02
517             	3.33858514e+02
518             	3.33858974e+02
519             	3.33859406e+02
520             	3.33859838e+02
521             	3.33860313e+02
522             	3.33860801e+02
523             	3.33861228e+02
524             	3.33861553e+02
525             	3.33861748e+02
526             	3.33861703e+02
527             	3.33861553e+02
528             	3.33861471e+02
529             	3.33861455e+02
530             	3.33861471e+02
531             	3.33861416e+02
532             	3.33861205e+02
533             	3.33860824e+02
534             	3.33860354e+02
535             	3.33859902e+02
536             	3.33859580e+02
537             	3.33859539e+02
538             	3.33859906e+02
539             	3.33860426e+02
540             	3.33861134e+02
541             	3.33861938e+02
542             	3.33862783e+02
543             	3.33863585e+02
544             	3.33864285e+02
545             	3.33864825e+02
546             	3.33865158e+02
547             	3.33865260e+02
548             	3.33865150e+02
549             	3.33864869e+02
550             	3.33864485e+02
551             	3.33864090e+02
552             	3.33863748e+02
553             	3.33863576e+02
554             	3.33863680e+02
555             	3.33864063e+02
556             	3.33864692e+02
557             	3.33865542e+02
558             	3.33866602e+02
559             	3.33867851e+02
560             	3.33869261e+02
561             	3.33870784e+02
562             	3.33872318e+02
563             	3.33873681e+02
564             	3.33874876e+02
565             	3.33875786e+02
566             	3.33876444e+02
567             	3.33876851e+02
568             	3.33877038e+02
569             	3.33876986e+02
570             	3.33876693e+02
571             	3.33876151e+02
572             	3.33875382e+02
573             	3.33874426e+02
574             	3.33873355e+02
575             	3.33872234e+02
576             	3.33871173e+02
577             	3.33870193e+02
578             	3.33869375e+02
579             	3.33868832e+02
580             	3.33868587e+02
581             	3.33868610e+02
582             	3.33868876e+02
583             	3.33869355e+02
584             	3.33870022e+02
585             	3.33870848e+02
586             	3.33871799e+02
587             	3.33872804e+02
588             	3.33873587e+02
589             	3.33874253e+02
590             	3.33874664e+02
591             	3.33874732e+02
592             	3.33874427e+02
593             	3.33873767e+02
594             	3.33872767e+02
595             	3.33871421e+02
596             	3.33869768e+02
597             	3.33867894e+02
598             	3.33865893e+02
599             	3.33863871e+02
600             	3.33861923e+02
601             	3.33860151e+02
602             	3.33858581e+02
603             	3.33857282e+02
604             	3.33856282e+02
605             	3.33855606e+02
606             	3.33855197e+02
607             	3.33855047e+02
608             	3.33855149e+02
609             	3.33855489e+02
610             	3.33856053e+02
611             	3.33856815e+02
612             	3.33857729e+02
613             	3.33858660e+02
614             	3.33859575e+02
615             	3.33860389e+02
616             	3.33861028e+02
617             	3.33861396e+02
618             	3.33861462e+02
619             	3.33861208e+02
620             	3.33860626e+02
621             	3.33859752e+02
