# Region        : cellZone fluid
# Cells         : 8509
# Volume        : 1.68603927e+01
# Time          	volAverage(T)
1               	2.99999987e+02
2               	3.00000017e+02
3               	3.00000292e+02
4               	3.00000719e+02
5               	3.00001081e+02
6               	3.00001489e+02
7               	3.00001934e+02
8               	3.00002485e+02
9               	3.00003208e+02
10              	3.00003961e+02
11              	3.00004784e+02
12              	3.00005671e+02
13              	3.00006746e+02
14              	3.00007811e+02
15              	3.00009125e+02
16              	3.00010196e+02
17              	3.00011153e+02
18              	3.00012453e+02
19              	3.00013642e+02
20              	3.00014939e+02
21              	3.00016395e+02
22              	3.00017908e+02
23              	3.00019340e+02
24              	3.00020603e+02
25              	3.00021983e+02
26              	3.00023262e+02
27              	3.00024541e+02
28              	3.00026383e+02
29              	3.00028160e+02
30              	3.00029915e+02
31              	3.00031391e+02
32              	3.00033981e+02
33              	3.00036076e+02
34              	3.00037900e+02
35              	3.00040002e+02
36              	3.00041791e+02
37              	3.00044485e+02
38              	3.00046612e+02
39              	3.00048669e+02
40              	3.00050120e+02
41              	3.00051594e+02
42              	3.00053385e+02
43              	3.00054965e+02
44              	3.00056458e+02
45              	3.00058914e+02
46              	3.00060795e+02
47              	3.00062753e+02
48              	3.00064362e+02
49              	3.00066553e+02
50              	3.00068638e+02
51              	3.00070806e+02
52              	3.00072769e+02
53              	3.00075025e+02
54              	3.00076838e+02
55              	3.00078717e+02
56              	3.00080730e+02
57              	3.00082724e+02
58              	3.00084697e+02
59              	3.00086350e+02
60              	3.00089085e+02
61              	3.00091302e+02
62              	3.00093592e+02
63              	3.00095537e+02
64              	3.00097715e+02
65              	3.00099641e+02
66              	3.00101603e+02
67              	3.00103311e+02
68              	3.00105245e+02
69              	3.00106948e+02
70              	3.00108838e+02
71              	3.00111276e+02
72              	3.00113253e+02
73              	3.00116087e+02
74              	3.00118231e+02
75              	3.00120324e+02
76              	3.00121933e+02
77              	3.00124100e+02
78              	3.00126207e+02
79              	3.00128192e+02
80              	3.00130134e+02
81              	3.00132158e+02
82              	3.00134015e+02
83              	3.00135808e+02
84              	3.00137398e+02
85              	3.00138593e+02
86              	3.00139745e+02
87              	3.00140958e+02
88              	3.00142336e+02
89              	3.00143712e+02
90              	3.00144784e+02
91              	3.00146251e+02
92              	3.00147721e+02
93              	3.00149373e+02
94              	3.00150818e+02
95              	3.00152354e+02
96              	3.00154193e+02
97              	3.00156041e+02
98              	3.00157904e+02
99              	3.00159659e+02
100             	3.00160991e+02
101             	3.00162749e+02
102             	3.00164587e+02
103             	3.00166335e+02
104             	3.00168032e+02
105             	3.00169656e+02
106             	3.00171032e+02
107             	3.00172102e+02
108             	3.00173772e+02
109             	3.00175977e+02
110             	3.00176847e+02
111             	3.00178032e+02
112             	3.00179533e+02
113             	3.00180726e+02
114             	3.00181826e+02
115             	3.00183594e+02
116             	3.00185163e+02
117             	3.00186685e+02
118             	3.00187803e+02
119             	3.00189098e+02
120             	3.00190550e+02
121             	3.00191845e+02
122             	3.00192754e+02
123             	3.00193785e+02
124             	3.00194904e+02
125             	3.00196542e+02
126             	3.00198982e+02
127             	3.00199694e+02
128             	3.00200952e+02
129             	3.00201728e+02
130             	3.00202519e+02
131             	3.00203134e+02
132             	3.00203720e+02
133             	3.00204610e+02
134             	3.00205802e+02
135             	3.00206634e+02
136             	3.00207523e+02
137             	3.00208733e+02
138             	3.00210720e+02
139             	3.00212126e+02
140             	3.00213287e+02
141             	3.00214466e+02
142             	3.00215398e+02
143             	3.00215877e+02
144             	3.00216456e+02
145             	3.00216900e+02
146             	3.00217838e+02
147             	3.00218471e+02
148             	3.00219837e+02
149             	3.00221020e+02
150             	3.00222139e+02
151             	3.00223220e+02
152             	3.00223946e+02
153             	3.00224575e+02
154             	3.00225050e+02
155             	3.00225105e+02
156             	3.00225447e+02
157             	3.00226688e+02
158             	3.00226785e+02
159             	3.00227251e+02
160             	3.00227852e+02
161             	3.00228545e+02
162             	3.00229281e+02
163             	3.00229937e+02
164             	3.00230657e+02
165             	3.00231333e+02
166             	3.00232049e+02
167             	3.00232375e+02
168             	3.00232841e+02
169             	3.00233609e+02
170             	3.00234222e+02
171             	3.00234841e+02
172             	3.00235359e+02
173             	3.00236269e+02
174             	3.00237134e+02
175             	3.00237627e+02
176             	3.00237820e+02
177             	3.00238111e+02
178             	3.00238472e+02
179             	3.00238903e+02
180             	3.00239363e+02
181             	3.00239910e+02
182             	3.00240371e+02
183             	3.00241088e+02
184             	3.00241665e+02
185             	3.00242111e+02
186             	3.00242528e+02
187             	3.00242924e+02
188             	3.00243464e+02
189             	3.00243889e+02
190             	3.00244295e+02
191             	3.00244592e+02
192             	3.00244911e+02
193             	3.00245320e+02
194             	3.00246009e+02
195             	3.00246075e+02
196             	3.00246317e+02
197             	3.00246687e+02
198             	3.00247120e+02
199             	3.00247516e+02
200             	3.00247820e+02
201             	3.00248132e+02
202             	3.00248637e+02
203             	3.00249118e+02
204             	3.00249636e+02
205             	3.00250142e+02
206             	3.00250694e+02
207             	3.00251023e+02
208             	3.00251328e+02
209             	3.00251599e+02
210             	3.00251965e+02
211             	3.00252299e+02
212             	3.00252631e+02
213             	3.00252909e+02
214             	3.00253203e+02
215             	3.00253510e+02
216             	3.00253899e+02
217             	3.00254233e+02
218             	3.00254517e+02
219             	3.00254867e+02
220             	3.00255247e+02
221             	3.00255467e+02
222             	3.00255758e+02
223             	3.00256086e+02
224             	3.00256333e+02
225             	3.00256583e+02
226             	3.00256846e+02
227             	3.00257101e+02
228             	3.00257372e+02
229             	3.00257677e+02
230             	3.00257983e+02
231             	3.00258295e+02
232             	3.00258592e+02
233             	3.00258866e+02
234             	3.00259143e+02
235             	3.00259237e+02
236             	3.00259610e+02
237             	3.00259944e+02
238             	3.00260233e+02
239             	3.00260492e+02
240             	3.00260727e+02
241             	3.00260988e+02
242             	3.00261190e+02
243             	3.00261425e+02
244             	3.00261640e+02
245             	3.00261828e+02
246             	3.00262009e+02
247             	3.00262245e+02
248             	3.00262545e+02
249             	3.00262657e+02
250             	3.00262836e+02
251             	3.00263034e+02
252             	3.00263199e+02
253             	3.00263281e+02
254             	3.00263432e+02
255             	3.00263573e+02
256             	3.00263575e+02
257             	3.00263874e+02
258             	3.00264092e+02
259             	3.00264250e+02
260             	3.00264369e+02
261             	3.00264480e+02
262             	3.00264587e+02
263             	3.00264706e+02
264             	3.00264848e+02
265             	3.00264947e+02
266             	3.00265090e+02
267             	3.00265221e+02
268             	3.00265351e+02
269             	3.00265445e+02
270             	3.00265670e+02
271             	3.00265714e+02
272             	3.00265805e+02
273             	3.00265940e+02
274             	3.00266098e+02
275             	3.00266254e+02
276             	3.00266385e+02
277             	3.00266521e+02
278             	3.00266668e+02
279             	3.00266754e+02
280             	3.00266944e+02
281             	3.00267106e+02
282             	3.00267233e+02
283             	3.00267407e+02
284             	3.00267544e+02
285             	3.00267648e+02
286             	3.00267754e+02
287             	3.00267885e+02
288             	3.00268019e+02
289             	3.00268153e+02
290             	3.00268284e+02
291             	3.00268395e+02
292             	3.00268523e+02
293             	3.00268670e+02
294             	3.00268750e+02
295             	3.00268876e+02
296             	3.00268946e+02
297             	3.00269031e+02
298             	3.00269146e+02
299             	3.00269268e+02
300             	3.00269365e+02
301             	3.00269462e+02
302             	3.00269566e+02
303             	3.00269668e+02
304             	3.00269773e+02
305             	3.00269850e+02
306             	3.00269918e+02
307             	3.00270063e+02
308             	3.00270184e+02
309             	3.00270297e+02
310             	3.00270400e+02
311             	3.00270499e+02
312             	3.00270581e+02
313             	3.00270659e+02
314             	3.00270767e+02
315             	3.00270865e+02
316             	3.00270964e+02
317             	3.00271055e+02
318             	3.00271136e+02
319             	3.00271251e+02
320             	3.00271324e+02
321             	3.00271416e+02
322             	3.00271476e+02
323             	3.00271561e+02
324             	3.00271656e+02
325             	3.00271753e+02
326             	3.00271845e+02
327             	3.00271933e+02
328             	3.00272011e+02
329             	3.00272093e+02
330             	3.00272175e+02
331             	3.00272258e+02
332             	3.00272337e+02
333             	3.00272412e+02
334             	3.00272490e+02
335             	3.00272573e+02
336             	3.00272650e+02
337             	3.00272720e+02
338             	3.00272780e+02
339             	3.00272846e+02
340             	3.00272909e+02
341             	3.00272981e+02
342             	3.00273046e+02
343             	3.00273117e+02
344             	3.00273184e+02
345             	3.00273242e+02
346             	3.00273306e+02
347             	3.00273382e+02
348             	3.00273428e+02
349             	3.00273491e+02
350             	3.00273548e+02
351             	3.00273602e+02
352             	3.00273663e+02
353             	3.00273721e+02
354             	3.00273771e+02
355             	3.00273818e+02
356             	3.00273874e+02
357             	3.00273933e+02
358             	3.00273991e+02
359             	3.00274047e+02
360             	3.00274101e+02
361             	3.00274151e+02
362             	3.00274194e+02
363             	3.00274231e+02
364             	3.00274284e+02
365             	3.00274334e+02
366             	3.00274381e+02
367             	3.00274428e+02
368             	3.00274477e+02
369             	3.00274524e+02
370             	3.00274569e+02
371             	3.00274610e+02
372             	3.00274648e+02
373             	3.00274683e+02
374             	3.00274717e+02
375             	3.00274750e+02
376             	3.00274784e+02
377             	3.00274819e+02
378             	3.00274853e+02
379             	3.00274888e+02
380             	3.00274927e+02
381             	3.00274957e+02
382             	3.00274990e+02
383             	3.00275021e+02
384             	3.00275056e+02
385             	3.00275077e+02
386             	3.00275105e+02
387             	3.00275136e+02
388             	3.00275170e+02
389             	3.00275206e+02
390             	3.00275244e+02
391             	3.00275284e+02
392             	3.00275324e+02
393             	3.00275368e+02
394             	3.00275407e+02
395             	3.00275459e+02
396             	3.00275503e+02
397             	3.00275544e+02
398             	3.00275584e+02
399             	3.00275622e+02
400             	3.00275655e+02
401             	3.00275686e+02
402             	3.00275723e+02
403             	3.00275757e+02
404             	3.00275787e+02
405             	3.00275813e+02
406             	3.00275837e+02
407             	3.00275860e+02
408             	3.00275888e+02
409             	3.00275914e+02
410             	3.00275938e+02
411             	3.00275961e+02
412             	3.00275978e+02
413             	3.00275995e+02
414             	3.00276011e+02
415             	3.00276026e+02
416             	3.00276043e+02
417             	3.00276062e+02
418             	3.00276078e+02
419             	3.00276096e+02
420             	3.00276113e+02
421             	3.00276130e+02
422             	3.00276148e+02
423             	3.00276166e+02
424             	3.00276184e+02
425             	3.00276201e+02
426             	3.00276220e+02
427             	3.00276240e+02
428             	3.00276261e+02
429             	3.00276284e+02
430             	3.00276310e+02
431             	3.00276333e+02
432             	3.00276355e+02
433             	3.00276377e+02
434             	3.00276398e+02
435             	3.00276421e+02
436             	3.00276443e+02
437             	3.00276464e+02
438             	3.00276489e+02
439             	3.00276511e+02
440             	3.00276533e+02
441             	3.00276551e+02
442             	3.00276567e+02
443             	3.00276584e+02
444             	3.00276603e+02
445             	3.00276622e+02
446             	3.00276639e+02
447             	3.00276656e+02
448             	3.00276672e+02
449             	3.00276687e+02
450             	3.00276701e+02
451             	3.00276715e+02
452             	3.00276727e+02
453             	3.00276741e+02
454             	3.00276754e+02
455             	3.00276767e+02
456             	3.00276781e+02
457             	3.00276793e+02
458             	3.00276805e+02
459             	3.00276818e+02
460             	3.00276833e+02
461             	3.00276847e+02
462             	3.00276859e+02
463             	3.00276871e+02
464             	3.00276883e+02
465             	3.00276894e+02
466             	3.00276905e+02
467             	3.00276915e+02
468             	3.00276926e+02
469             	3.00276937e+02
470             	3.00276949e+02
471             	3.00276959e+02
472             	3.00276970e+02
473             	3.00276980e+02
474             	3.00276989e+02
475             	3.00276999e+02
476             	3.00277008e+02
477             	3.00277015e+02
478             	3.00277023e+02
479             	3.00277031e+02
480             	3.00277038e+02
481             	3.00277045e+02
482             	3.00277053e+02
483             	3.00277058e+02
484             	3.00277066e+02
485             	3.00277073e+02
486             	3.00277080e+02
487             	3.00277086e+02
488             	3.00277094e+02
489             	3.00277101e+02
490             	3.00277108e+02
491             	3.00277115e+02
492             	3.00277122e+02
493             	3.00277128e+02
494             	3.00277135e+02
495             	3.00277143e+02
496             	3.00277150e+02
497             	3.00277157e+02
498             	3.00277166e+02
499             	3.00277174e+02
500             	3.00277182e+02
501             	3.00277190e+02
502             	3.00277197e+02
503             	3.00277205e+02
504             	3.00277212e+02
505             	3.00277219e+02
506             	3.00277227e+02
507             	3.00277233e+02
508             	3.00277241e+02
509             	3.00277248e+02
510             	3.00277256e+02
511             	3.00277262e+02
512             	3.00277269e+02
513             	3.00277275e+02
514             	3.00277281e+02
515             	3.00277286e+02
516             	3.00277292e+02
517             	3.00277297e+02
518             	3.00277303e+02
519             	3.00277308e+02
520             	3.00277314e+02
521             	3.00277319e+02
522             	3.00277323e+02
523             	3.00277328e+02
524             	3.00277333e+02
525             	3.00277337e+02
526             	3.00277342e+02
527             	3.00277346e+02
528             	3.00277351e+02
529             	3.00277356e+02
530             	3.00277361e+02
531             	3.00277365e+02
532             	3.00277370e+02
533             	3.00277374e+02
534             	3.00277378e+02
535             	3.00277382e+02
536             	3.00277387e+02
537             	3.00277391e+02
538             	3.00277395e+02
539             	3.00277399e+02
540             	3.00277403e+02
541             	3.00277407e+02
542             	3.00277411e+02
543             	3.00277415e+02
544             	3.00277419e+02
545             	3.00277422e+02
546             	3.00277426e+02
547             	3.00277429e+02
548             	3.00277433e+02
549             	3.00277436e+02
550             	3.00277439e+02
551             	3.00277442e+02
552             	3.00277445e+02
553             	3.00277448e+02
554             	3.00277451e+02
555             	3.00277454e+02
556             	3.00277457e+02
557             	3.00277460e+02
558             	3.00277463e+02
559             	3.00277465e+02
560             	3.00277468e+02
561             	3.00277470e+02
562             	3.00277473e+02
563             	3.00277475e+02
564             	3.00277478e+02
565             	3.00277480e+02
566             	3.00277483e+02
567             	3.00277485e+02
568             	3.00277487e+02
569             	3.00277490e+02
570             	3.00277492e+02
571             	3.00277495e+02
572             	3.00277497e+02
573             	3.00277499e+02
574             	3.00277502e+02
575             	3.00277504e+02
576             	3.00277507e+02
577             	3.00277509e+02
578             	3.00277511e+02
579             	3.00277514e+02
580             	3.00277516e+02
581             	3.00277517e+02
582             	3.00277519e+02
583             	3.00277521e+02
584             	3.00277523e+02
585             	3.00277524e+02
586             	3.00277526e+02
587             	3.00277528e+02
588             	3.00277530e+02
589             	3.00277531e+02
590             	3.00277533e+02
591             	3.00277534e+02
592             	3.00277536e+02
593             	3.00277537e+02
594             	3.00277539e+02
595             	3.00277540e+02
596             	3.00277541e+02
597             	3.00277542e+02
598             	3.00277544e+02
599             	3.00277545e+02
600             	3.00277546e+02
601             	3.00277547e+02
602             	3.00277549e+02
603             	3.00277550e+02
604             	3.00277552e+02
605             	3.00277553e+02
606             	3.00277554e+02
607             	3.00277555e+02
608             	3.00277557e+02
609             	3.00277559e+02
610             	3.00277560e+02
611             	3.00277561e+02
612             	3.00277563e+02
613             	3.00277564e+02
614             	3.00277565e+02
615             	3.00277566e+02
616             	3.00277568e+02
617             	3.00277569e+02
618             	3.00277570e+02
619             	3.00277571e+02
620             	3.00277573e+02
621             	3.00277574e+02
