# Region        : cellZone pcb
# Cells         : 518
# Volume        : 8.76374582e-01
# Time          	volAverage(T)
1               	3.00007659e+02
2               	3.00022303e+02
3               	3.00042984e+02
4               	3.00069195e+02
5               	3.00099934e+02
6               	3.00135130e+02
7               	3.00174351e+02
8               	3.00217236e+02
9               	3.00263907e+02
10              	3.00313701e+02
11              	3.00366497e+02
12              	3.00421975e+02
13              	3.00479721e+02
14              	3.00539599e+02
15              	3.00601436e+02
16              	3.00664551e+02
17              	3.00729361e+02
18              	3.00796243e+02
19              	3.00864958e+02
20              	3.00934718e+02
21              	3.01005665e+02
22              	3.01077758e+02
23              	3.01150827e+02
24              	3.01224029e+02
25              	3.01297432e+02
26              	3.01371348e+02
27              	3.01446291e+02
28              	3.01520957e+02
29              	3.01596566e+02
30              	3.01672438e+02
31              	3.01749147e+02
32              	3.01825207e+02
33              	3.01901192e+02
34              	3.01977882e+02
35              	3.02054602e+02
36              	3.02130719e+02
37              	3.02206719e+02
38              	3.02282957e+02
39              	3.02359296e+02
40              	3.02435545e+02
41              	3.02512408e+02
42              	3.02589326e+02
43              	3.02665275e+02
44              	3.02740987e+02
45              	3.02814896e+02
46              	3.02887158e+02
47              	3.02959097e+02
48              	3.03030310e+02
49              	3.03101221e+02
50              	3.03171305e+02
51              	3.03240117e+02
52              	3.03308198e+02
53              	3.03375030e+02
54              	3.03442946e+02
55              	3.03510207e+02
56              	3.03576928e+02
57              	3.03642224e+02
58              	3.03706108e+02
59              	3.03768612e+02
60              	3.03830550e+02
61              	3.03893351e+02
62              	3.03955272e+02
63              	3.04015164e+02
64              	3.04072319e+02
65              	3.04128288e+02
66              	3.04182883e+02
67              	3.04236272e+02
68              	3.04291340e+02
69              	3.04344399e+02
70              	3.04394973e+02
71              	3.04444379e+02
72              	3.04494195e+02
73              	3.04543014e+02
74              	3.04591793e+02
75              	3.04640316e+02
76              	3.04688336e+02
77              	3.04736299e+02
78              	3.04783073e+02
79              	3.04828282e+02
80              	3.04872498e+02
81              	3.04916110e+02
82              	3.04959088e+02
83              	3.04999416e+02
84              	3.05037491e+02
85              	3.05073652e+02
86              	3.05110829e+02
87              	3.05147516e+02
88              	3.05184084e+02
89              	3.05221484e+02
90              	3.05258439e+02
91              	3.05294810e+02
92              	3.05330957e+02
93              	3.05365211e+02
94              	3.05397117e+02
95              	3.05427036e+02
96              	3.05456031e+02
97              	3.05484638e+02
98              	3.05512261e+02
99              	3.05539504e+02
100             	3.05567009e+02
101             	3.05594496e+02
102             	3.05621218e+02
103             	3.05647310e+02
104             	3.05672881e+02
105             	3.05697519e+02
106             	3.05721467e+02
107             	3.05743836e+02
108             	3.05765623e+02
109             	3.05787167e+02
110             	3.05808881e+02
111             	3.05830861e+02
112             	3.05853217e+02
113             	3.05875812e+02
114             	3.05898612e+02
115             	3.05922405e+02
116             	3.05945696e+02
117             	3.05967435e+02
118             	3.05987282e+02
119             	3.06006004e+02
120             	3.06025923e+02
121             	3.06045590e+02
122             	3.06064280e+02
123             	3.06082025e+02
124             	3.06099028e+02
125             	3.06115834e+02
126             	3.06131425e+02
127             	3.06146843e+02
128             	3.06161462e+02
129             	3.06175827e+02
130             	3.06190489e+02
131             	3.06205164e+02
132             	3.06220313e+02
133             	3.06235385e+02
134             	3.06250325e+02
135             	3.06264376e+02
136             	3.06278680e+02
137             	3.06293572e+02
138             	3.06308361e+02
139             	3.06321962e+02
140             	3.06334454e+02
141             	3.06346380e+02
142             	3.06357892e+02
143             	3.06369029e+02
144             	3.06379107e+02
145             	3.06388803e+02
146             	3.06398770e+02
147             	3.06408887e+02
148             	3.06419083e+02
149             	3.06429591e+02
150             	3.06439974e+02
151             	3.06450720e+02
152             	3.06461424e+02
153             	3.06471984e+02
154             	3.06482487e+02
155             	3.06492988e+02
156             	3.06503007e+02
157             	3.06513052e+02
158             	3.06523190e+02
159             	3.06533054e+02
160             	3.06543191e+02
161             	3.06553322e+02
162             	3.06562847e+02
163             	3.06571926e+02
164             	3.06580572e+02
165             	3.06587887e+02
166             	3.06594452e+02
167             	3.06600812e+02
168             	3.06606651e+02
169             	3.06612896e+02
170             	3.06619141e+02
171             	3.06625676e+02
172             	3.06632449e+02
173             	3.06639098e+02
174             	3.06645821e+02
175             	3.06652377e+02
176             	3.06659133e+02
177             	3.06665673e+02
178             	3.06672418e+02
179             	3.06678577e+02
180             	3.06685076e+02
181             	3.06691442e+02
182             	3.06697913e+02
183             	3.06703903e+02
184             	3.06709920e+02
185             	3.06715561e+02
186             	3.06721221e+02
187             	3.06726473e+02
188             	3.06731724e+02
189             	3.06736622e+02
190             	3.06741667e+02
191             	3.06746449e+02
192             	3.06751361e+02
193             	3.06756138e+02
194             	3.06760438e+02
195             	3.06764760e+02
196             	3.06769154e+02
197             	3.06773300e+02
198             	3.06777594e+02
199             	3.06781791e+02
200             	3.06786023e+02
201             	3.06789991e+02
202             	3.06794206e+02
203             	3.06798241e+02
204             	3.06802536e+02
205             	3.06806654e+02
206             	3.06810963e+02
207             	3.06815075e+02
208             	3.06819337e+02
209             	3.06823216e+02
210             	3.06827352e+02
211             	3.06831244e+02
212             	3.06835218e+02
213             	3.06838836e+02
214             	3.06842525e+02
215             	3.06845900e+02
216             	3.06849384e+02
217             	3.06852567e+02
218             	3.06855853e+02
219             	3.06858925e+02
220             	3.06862213e+02
221             	3.06864861e+02
222             	3.06867409e+02
223             	3.06870202e+02
224             	3.06872651e+02
225             	3.06875408e+02
226             	3.06878048e+02
227             	3.06880446e+02
228             	3.06883118e+02
229             	3.06886036e+02
230             	3.06888252e+02
231             	3.06890906e+02
232             	3.06893802e+02
233             	3.06896283e+02
234             	3.06899009e+02
235             	3.06901669e+02
236             	3.06904627e+02
237             	3.06906612e+02
238             	3.06909003e+02
239             	3.06911550e+02
240             	3.06913716e+02
241             	3.06916133e+02
242             	3.06918081e+02
243             	3.06919869e+02
244             	3.06921869e+02
245             	3.06923597e+02
246             	3.06925568e+02
247             	3.06927139e+02
248             	3.06929064e+02
249             	3.06930719e+02
250             	3.06932208e+02
251             	3.06934052e+02
252             	3.06935836e+02
253             	3.06937875e+02
254             	3.06939790e+02
255             	3.06941338e+02
256             	3.06943212e+02
257             	3.06944871e+02
258             	3.06946328e+02
259             	3.06948083e+02
260             	3.06949612e+02
261             	3.06951365e+02
262             	3.06952823e+02
263             	3.06954036e+02
264             	3.06955482e+02
265             	3.06957148e+02
266             	3.06958405e+02
267             	3.06959304e+02
268             	3.06960574e+02
269             	3.06961545e+02
270             	3.06962866e+02
271             	3.06963844e+02
272             	3.06964759e+02
273             	3.06966003e+02
274             	3.06967551e+02
275             	3.06968269e+02
276             	3.06969437e+02
277             	3.06970816e+02
278             	3.06972090e+02
279             	3.06972952e+02
280             	3.06974179e+02
281             	3.06975238e+02
282             	3.06976131e+02
283             	3.06977285e+02
284             	3.06978640e+02
285             	3.06979201e+02
286             	3.06980141e+02
287             	3.06981268e+02
288             	3.06981760e+02
289             	3.06982619e+02
290             	3.06983641e+02
291             	3.06984655e+02
292             	3.06985088e+02
293             	3.06985866e+02
294             	3.06986501e+02
295             	3.06987565e+02
296             	3.06988107e+02
297             	3.06988656e+02
298             	3.06989519e+02
299             	3.06990155e+02
300             	3.06990780e+02
301             	3.06991692e+02
302             	3.06992383e+02
303             	3.06993026e+02
304             	3.06993928e+02
305             	3.06994560e+02
306             	3.06995151e+02
307             	3.06995989e+02
308             	3.06996502e+02
309             	3.06996987e+02
310             	3.06997719e+02
311             	3.06998170e+02
312             	3.06998584e+02
313             	3.06999255e+02
314             	3.06999661e+02
315             	3.07000421e+02
316             	3.07000832e+02
317             	3.07001085e+02
318             	3.07001636e+02
319             	3.07002468e+02
320             	3.07002538e+02
321             	3.07003049e+02
322             	3.07003771e+02
323             	3.07003943e+02
324             	3.07004533e+02
325             	3.07005381e+02
326             	3.07005741e+02
327             	3.07006027e+02
328             	3.07006600e+02
329             	3.07006852e+02
330             	3.07007125e+02
331             	3.07007659e+02
332             	3.07007935e+02
333             	3.07008548e+02
334             	3.07008854e+02
335             	3.07009003e+02
336             	3.07009482e+02
337             	3.07010242e+02
338             	3.07010190e+02
339             	3.07010572e+02
340             	3.07011182e+02
341             	3.07011444e+02
342             	3.07012100e+02
343             	3.07012383e+02
344             	3.07012440e+02
345             	3.07012843e+02
346             	3.07013477e+02
347             	3.07013366e+02
348             	3.07013675e+02
349             	3.07014204e+02
350             	3.07014379e+02
351             	3.07014463e+02
352             	3.07014864e+02
353             	3.07014936e+02
354             	3.07015358e+02
355             	3.07015537e+02
356             	3.07015542e+02
357             	3.07015879e+02
358             	3.07016536e+02
359             	3.07016352e+02
360             	3.07016610e+02
361             	3.07017084e+02
362             	3.07016977e+02
363             	3.07017271e+02
364             	3.07017765e+02
365             	3.07017995e+02
366             	3.07018048e+02
367             	3.07018428e+02
368             	3.07018496e+02
369             	3.07018900e+02
370             	3.07019058e+02
371             	3.07019032e+02
372             	3.07019330e+02
373             	3.07019873e+02
374             	3.07019640e+02
375             	3.07019825e+02
376             	3.07020217e+02
377             	3.07020423e+02
378             	3.07020364e+02
379             	3.07020654e+02
380             	3.07020609e+02
381             	3.07020896e+02
382             	3.07021002e+02
383             	3.07020923e+02
384             	3.07021175e+02
385             	3.07021662e+02
386             	3.07021418e+02
387             	3.07021598e+02
388             	3.07022001e+02
389             	3.07022069e+02
390             	3.07022050e+02
391             	3.07022367e+02
392             	3.07022345e+02
393             	3.07022650e+02
394             	3.07022774e+02
395             	3.07022678e+02
396             	3.07022903e+02
397             	3.07023354e+02
398             	3.07023075e+02
399             	3.07023220e+02
400             	3.07023578e+02
401             	3.07023656e+02
402             	3.07023584e+02
403             	3.07023848e+02
404             	3.07023782e+02
405             	3.07024044e+02
406             	3.07024116e+02
407             	3.07023971e+02
408             	3.07024151e+02
409             	3.07024551e+02
410             	3.07024235e+02
411             	3.07024347e+02
412             	3.07024679e+02
413             	3.07024753e+02
414             	3.07024673e+02
415             	3.07024930e+02
416             	3.07024866e+02
417             	3.07025129e+02
418             	3.07025208e+02
419             	3.07025067e+02
420             	3.07025249e+02
421             	3.07025661e+02
422             	3.07025341e+02
423             	3.07025448e+02
424             	3.07025771e+02
425             	3.07025849e+02
426             	3.07025740e+02
427             	3.07025962e+02
428             	3.07025878e+02
429             	3.07026121e+02
430             	3.07026155e+02
431             	3.07025982e+02
432             	3.07026130e+02
433             	3.07026504e+02
434             	3.07026157e+02
435             	3.07026235e+02
436             	3.07026541e+02
437             	3.07026532e+02
438             	3.07026415e+02
439             	3.07026630e+02
440             	3.07026515e+02
441             	3.07026727e+02
442             	3.07026758e+02
443             	3.07026571e+02
444             	3.07026708e+02
445             	3.07027072e+02
446             	3.07026718e+02
447             	3.07026791e+02
448             	3.07027087e+02
449             	3.07027086e+02
450             	3.07026974e+02
451             	3.07027199e+02
452             	3.07027085e+02
453             	3.07027295e+02
454             	3.07027333e+02
455             	3.07027144e+02
456             	3.07027280e+02
457             	3.07027641e+02
458             	3.07027283e+02
459             	3.07027350e+02
460             	3.07027639e+02
461             	3.07027639e+02
462             	3.07027506e+02
463             	3.07027706e+02
464             	3.07027585e+02
465             	3.07027792e+02
466             	3.07027803e+02
467             	3.07027601e+02
468             	3.07027722e+02
469             	3.07028069e+02
470             	3.07027696e+02
471             	3.07027748e+02
472             	3.07028025e+02
473             	3.07027991e+02
474             	3.07027854e+02
475             	3.07028054e+02
476             	3.07027915e+02
477             	3.07028102e+02
478             	3.07028116e+02
479             	3.07027907e+02
480             	3.07028021e+02
481             	3.07028360e+02
482             	3.07027984e+02
483             	3.07028035e+02
484             	3.07028308e+02
485             	3.07028283e+02
486             	3.07028137e+02
487             	3.07028326e+02
488             	3.07028188e+02
489             	3.07028375e+02
490             	3.07028382e+02
491             	3.07028169e+02
492             	3.07028282e+02
493             	3.07028619e+02
494             	3.07028239e+02
495             	3.07028286e+02
496             	3.07028560e+02
497             	3.07028521e+02
498             	3.07028376e+02
499             	3.07028569e+02
500             	3.07028423e+02
501             	3.07028604e+02
502             	3.07028611e+02
503             	3.07028393e+02
504             	3.07028502e+02
505             	3.07028836e+02
506             	3.07028450e+02
507             	3.07028491e+02
508             	3.07028756e+02
509             	3.07028714e+02
510             	3.07028563e+02
511             	3.07028749e+02
512             	3.07028600e+02
513             	3.07028777e+02
514             	3.07028778e+02
515             	3.07028556e+02
516             	3.07028659e+02
517             	3.07028986e+02
518             	3.07028596e+02
519             	3.07028633e+02
520             	3.07028896e+02
521             	3.07028851e+02
522             	3.07028697e+02
523             	3.07028879e+02
524             	3.07028728e+02
525             	3.07028904e+02
526             	3.07028905e+02
527             	3.07028680e+02
528             	3.07028784e+02
529             	3.07029110e+02
530             	3.07028718e+02
531             	3.07028756e+02
532             	3.07029017e+02
533             	3.07028973e+02
534             	3.07028815e+02
535             	3.07028994e+02
536             	3.07028842e+02
537             	3.07029020e+02
538             	3.07029012e+02
539             	3.07028787e+02
540             	3.07028889e+02
541             	3.07029218e+02
542             	3.07028822e+02
543             	3.07028856e+02
544             	3.07029115e+02
545             	3.07029070e+02
546             	3.07028911e+02
547             	3.07029089e+02
548             	3.07028933e+02
549             	3.07029103e+02
550             	3.07029100e+02
551             	3.07028871e+02
552             	3.07028970e+02
553             	3.07029291e+02
554             	3.07028896e+02
555             	3.07028930e+02
556             	3.07029190e+02
557             	3.07029136e+02
558             	3.07028978e+02
559             	3.07029155e+02
560             	3.07028998e+02
561             	3.07029164e+02
562             	3.07029158e+02
563             	3.07028930e+02
564             	3.07029027e+02
565             	3.07029350e+02
566             	3.07028953e+02
567             	3.07028984e+02
568             	3.07029239e+02
569             	3.07029186e+02
570             	3.07029026e+02
571             	3.07029202e+02
572             	3.07029045e+02
573             	3.07029214e+02
574             	3.07029206e+02
575             	3.07028975e+02
576             	3.07029071e+02
577             	3.07029390e+02
578             	3.07028992e+02
579             	3.07029023e+02
580             	3.07029277e+02
581             	3.07029228e+02
582             	3.07029065e+02
583             	3.07029237e+02
584             	3.07029079e+02
585             	3.07029244e+02
586             	3.07029237e+02
587             	3.07029008e+02
588             	3.07029104e+02
589             	3.07029425e+02
590             	3.07029028e+02
591             	3.07029058e+02
592             	3.07029313e+02
593             	3.07029260e+02
594             	3.07029101e+02
595             	3.07029278e+02
596             	3.07029121e+02
597             	3.07029292e+02
598             	3.07029283e+02
599             	3.07029053e+02
600             	3.07029149e+02
601             	3.07029470e+02
602             	3.07029073e+02
603             	3.07029103e+02
604             	3.07029356e+02
605             	3.07029309e+02
606             	3.07029147e+02
607             	3.07029320e+02
608             	3.07029163e+02
609             	3.07029332e+02
610             	3.07029322e+02
611             	3.07029091e+02
612             	3.07029187e+02
613             	3.07029507e+02
614             	3.07029107e+02
615             	3.07029136e+02
616             	3.07029389e+02
617             	3.07029337e+02
618             	3.07029174e+02
619             	3.07029348e+02
620             	3.07029188e+02
621             	3.07029354e+02
