# Region        : cellZone component_3
# Cells         : 264
# Volume        : 5.07350124e-01
# Time          	volAverage(T)
1               	3.00198976e+02
2               	3.00396102e+02
3               	3.00581587e+02
4               	3.00759774e+02
5               	3.00933847e+02
6               	3.01104944e+02
7               	3.01273614e+02
8               	3.01440642e+02
9               	3.01606530e+02
10              	3.01770979e+02
11              	3.01933640e+02
12              	3.02095472e+02
13              	3.02256127e+02
14              	3.02416033e+02
15              	3.02573888e+02
16              	3.02730359e+02
17              	3.02884803e+02
18              	3.03036798e+02
19              	3.03186647e+02
20              	3.03334288e+02
21              	3.03480508e+02
22              	3.03625456e+02
23              	3.03769622e+02
24              	3.03912365e+02
25              	3.04053256e+02
26              	3.04192097e+02
27              	3.04328466e+02
28              	3.04462734e+02
29              	3.04594335e+02
30              	3.04723495e+02
31              	3.04850498e+02
32              	3.04977262e+02
33              	3.05102598e+02
34              	3.05226526e+02
35              	3.05348141e+02
36              	3.05468885e+02
37              	3.05586641e+02
38              	3.05701089e+02
39              	3.05812750e+02
40              	3.05921074e+02
41              	3.06027274e+02
42              	3.06131529e+02
43              	3.06232733e+02
44              	3.06330582e+02
45              	3.06426291e+02
46              	3.06517494e+02
47              	3.06611996e+02
48              	3.06706526e+02
49              	3.06800672e+02
50              	3.06893390e+02
51              	3.06984546e+02
52              	3.07074975e+02
53              	3.07162143e+02
54              	3.07247417e+02
55              	3.07330145e+02
56              	3.07409114e+02
57              	3.07484449e+02
58              	3.07555034e+02
59              	3.07624283e+02
60              	3.07692598e+02
61              	3.07760932e+02
62              	3.07828802e+02
63              	3.07897396e+02
64              	3.07963944e+02
65              	3.08030516e+02
66              	3.08095751e+02
67              	3.08158458e+02
68              	3.08218069e+02
69              	3.08275381e+02
70              	3.08331177e+02
71              	3.08386702e+02
72              	3.08441718e+02
73              	3.08498267e+02
74              	3.08555014e+02
75              	3.08612560e+02
76              	3.08669653e+02
77              	3.08724419e+02
78              	3.08777888e+02
79              	3.08828462e+02
80              	3.08876644e+02
81              	3.08921870e+02
82              	3.08964199e+02
83              	3.09004495e+02
84              	3.09043578e+02
85              	3.09081676e+02
86              	3.09119671e+02
87              	3.09158986e+02
88              	3.09199614e+02
89              	3.09240879e+02
90              	3.09283138e+02
91              	3.09324805e+02
92              	3.09365845e+02
93              	3.09405749e+02
94              	3.09443735e+02
95              	3.09479712e+02
96              	3.09513342e+02
97              	3.09544171e+02
98              	3.09573269e+02
99              	3.09601378e+02
100             	3.09629681e+02
101             	3.09658442e+02
102             	3.09688015e+02
103             	3.09717565e+02
104             	3.09747498e+02
105             	3.09776871e+02
106             	3.09805798e+02
107             	3.09834182e+02
108             	3.09860981e+02
109             	3.09886375e+02
110             	3.09910991e+02
111             	3.09936457e+02
112             	3.09961221e+02
113             	3.09986519e+02
114             	3.10012428e+02
115             	3.10038772e+02
116             	3.10066068e+02
117             	3.10092026e+02
118             	3.10116908e+02
119             	3.10140528e+02
120             	3.10162182e+02
121             	3.10181662e+02
122             	3.10199774e+02
123             	3.10216881e+02
124             	3.10233874e+02
125             	3.10251307e+02
126             	3.10269426e+02
127             	3.10288491e+02
128             	3.10308586e+02
129             	3.10328484e+02
130             	3.10348408e+02
131             	3.10368476e+02
132             	3.10388272e+02
133             	3.10407517e+02
134             	3.10426429e+02
135             	3.10444811e+02
136             	3.10462538e+02
137             	3.10479297e+02
138             	3.10495565e+02
139             	3.10511039e+02
140             	3.10526176e+02
141             	3.10540839e+02
142             	3.10555036e+02
143             	3.10569027e+02
144             	3.10582988e+02
145             	3.10596829e+02
146             	3.10610290e+02
147             	3.10623338e+02
148             	3.10636224e+02
149             	3.10648967e+02
150             	3.10661653e+02
151             	3.10674393e+02
152             	3.10687186e+02
153             	3.10700016e+02
154             	3.10712930e+02
155             	3.10725938e+02
156             	3.10739138e+02
157             	3.10752349e+02
158             	3.10765296e+02
159             	3.10777495e+02
160             	3.10788777e+02
161             	3.10799107e+02
162             	3.10808476e+02
163             	3.10817109e+02
164             	3.10825666e+02
165             	3.10834610e+02
166             	3.10844556e+02
167             	3.10855427e+02
168             	3.10867127e+02
169             	3.10879218e+02
170             	3.10891109e+02
171             	3.10902396e+02
172             	3.10912140e+02
173             	3.10920384e+02
174             	3.10927451e+02
175             	3.10934347e+02
176             	3.10941015e+02
177             	3.10948018e+02
178             	3.10955369e+02
179             	3.10963292e+02
180             	3.10971470e+02
181             	3.10979837e+02
182             	3.10988334e+02
183             	3.10996991e+02
184             	3.11005897e+02
185             	3.11015057e+02
186             	3.11024401e+02
187             	3.11033559e+02
188             	3.11042405e+02
189             	3.11050825e+02
190             	3.11058395e+02
191             	3.11065334e+02
192             	3.11071527e+02
193             	3.11077083e+02
194             	3.11082247e+02
195             	3.11087566e+02
196             	3.11093337e+02
197             	3.11099819e+02
198             	3.11106778e+02
199             	3.11114527e+02
200             	3.11122706e+02
201             	3.11130901e+02
202             	3.11139134e+02
203             	3.11147056e+02
204             	3.11154718e+02
205             	3.11161870e+02
206             	3.11168694e+02
207             	3.11175089e+02
208             	3.11180915e+02
209             	3.11186272e+02
210             	3.11190979e+02
211             	3.11195287e+02
212             	3.11199223e+02
213             	3.11202921e+02
214             	3.11206619e+02
215             	3.11210619e+02
216             	3.11215095e+02
217             	3.11220114e+02
218             	3.11225654e+02
219             	3.11231514e+02
220             	3.11237789e+02
221             	3.11244364e+02
222             	3.11251209e+02
223             	3.11257882e+02
224             	3.11264257e+02
225             	3.11270037e+02
226             	3.11275137e+02
227             	3.11279584e+02
228             	3.11283610e+02
229             	3.11287477e+02
230             	3.11291416e+02
231             	3.11295594e+02
232             	3.11299993e+02
233             	3.11304566e+02
234             	3.11309201e+02
235             	3.11313814e+02
236             	3.11318293e+02
237             	3.11322623e+02
238             	3.11326809e+02
239             	3.11330902e+02
240             	3.11335033e+02
241             	3.11339250e+02
242             	3.11343650e+02
243             	3.11348196e+02
244             	3.11352917e+02
245             	3.11357757e+02
246             	3.11362569e+02
247             	3.11367319e+02
248             	3.11371969e+02
249             	3.11376452e+02
250             	3.11380731e+02
251             	3.11384881e+02
252             	3.11388867e+02
253             	3.11392720e+02
254             	3.11396487e+02
255             	3.11400195e+02
256             	3.11403859e+02
257             	3.11407438e+02
258             	3.11410926e+02
259             	3.11414323e+02
260             	3.11417599e+02
261             	3.11420780e+02
262             	3.11423982e+02
263             	3.11427254e+02
264             	3.11430649e+02
265             	3.11434167e+02
266             	3.11437803e+02
267             	3.11441486e+02
268             	3.11445193e+02
269             	3.11448861e+02
270             	3.11452368e+02
271             	3.11455626e+02
272             	3.11458626e+02
273             	3.11461402e+02
274             	3.11463962e+02
275             	3.11466433e+02
276             	3.11468943e+02
277             	3.11471573e+02
278             	3.11474334e+02
279             	3.11477139e+02
280             	3.11479980e+02
281             	3.11482755e+02
282             	3.11485417e+02
283             	3.11488030e+02
284             	3.11490592e+02
285             	3.11493111e+02
286             	3.11495622e+02
287             	3.11498121e+02
288             	3.11500640e+02
289             	3.11503151e+02
290             	3.11505650e+02
291             	3.11508143e+02
292             	3.11510632e+02
293             	3.11513118e+02
294             	3.11515559e+02
295             	3.11518014e+02
296             	3.11520409e+02
297             	3.11522719e+02
298             	3.11524976e+02
299             	3.11527162e+02
300             	3.11529255e+02
301             	3.11531306e+02
302             	3.11533289e+02
303             	3.11535216e+02
304             	3.11537113e+02
305             	3.11538952e+02
306             	3.11540737e+02
307             	3.11542535e+02
308             	3.11544345e+02
309             	3.11546194e+02
310             	3.11548061e+02
311             	3.11549999e+02
312             	3.11551953e+02
313             	3.11553881e+02
314             	3.11555789e+02
315             	3.11557614e+02
316             	3.11559363e+02
317             	3.11560999e+02
318             	3.11562575e+02
319             	3.11564106e+02
320             	3.11565619e+02
321             	3.11567129e+02
322             	3.11568626e+02
323             	3.11570161e+02
324             	3.11571674e+02
325             	3.11573163e+02
326             	3.11574632e+02
327             	3.11576059e+02
328             	3.11577454e+02
329             	3.11578834e+02
330             	3.11580188e+02
331             	3.11581578e+02
332             	3.11582977e+02
333             	3.11584378e+02
334             	3.11585772e+02
335             	3.11587129e+02
336             	3.11588428e+02
337             	3.11589717e+02
338             	3.11590950e+02
339             	3.11592133e+02
340             	3.11593292e+02
341             	3.11594464e+02
342             	3.11595635e+02
343             	3.11596813e+02
344             	3.11597993e+02
345             	3.11599199e+02
346             	3.11600394e+02
347             	3.11601580e+02
348             	3.11602746e+02
349             	3.11603872e+02
350             	3.11604948e+02
351             	3.11606017e+02
352             	3.11607030e+02
353             	3.11608016e+02
354             	3.11608965e+02
355             	3.11609885e+02
356             	3.11610784e+02
357             	3.11611673e+02
358             	3.11612581e+02
359             	3.11613483e+02
360             	3.11614384e+02
361             	3.11615279e+02
362             	3.11616164e+02
363             	3.11617076e+02
364             	3.11617978e+02
365             	3.11618872e+02
366             	3.11619766e+02
367             	3.11620687e+02
368             	3.11621588e+02
369             	3.11622482e+02
370             	3.11623359e+02
371             	3.11624199e+02
372             	3.11624994e+02
373             	3.11625749e+02
374             	3.11626485e+02
375             	3.11627183e+02
376             	3.11627860e+02
377             	3.11628527e+02
378             	3.11629202e+02
379             	3.11629920e+02
380             	3.11630642e+02
381             	3.11631378e+02
382             	3.11632111e+02
383             	3.11632822e+02
384             	3.11633499e+02
385             	3.11634146e+02
386             	3.11634788e+02
387             	3.11635410e+02
388             	3.11636020e+02
389             	3.11636630e+02
390             	3.11637260e+02
391             	3.11637893e+02
392             	3.11638523e+02
393             	3.11639150e+02
394             	3.11639785e+02
395             	3.11640397e+02
396             	3.11640982e+02
397             	3.11641542e+02
398             	3.11642095e+02
399             	3.11642629e+02
400             	3.11643145e+02
401             	3.11643653e+02
402             	3.11644169e+02
403             	3.11644674e+02
404             	3.11645174e+02
405             	3.11645673e+02
406             	3.11646160e+02
407             	3.11646635e+02
408             	3.11647101e+02
409             	3.11647573e+02
410             	3.11648039e+02
411             	3.11648498e+02
412             	3.11648952e+02
413             	3.11649417e+02
414             	3.11649877e+02
415             	3.11650327e+02
416             	3.11650768e+02
417             	3.11651214e+02
418             	3.11651647e+02
419             	3.11652062e+02
420             	3.11652463e+02
421             	3.11652862e+02
422             	3.11653247e+02
423             	3.11653618e+02
424             	3.11653978e+02
425             	3.11654343e+02
426             	3.11654703e+02
427             	3.11655058e+02
428             	3.11655409e+02
429             	3.11655768e+02
430             	3.11656122e+02
431             	3.11656468e+02
432             	3.11656806e+02
433             	3.11657146e+02
434             	3.11657479e+02
435             	3.11657802e+02
436             	3.11658118e+02
437             	3.11658438e+02
438             	3.11658754e+02
439             	3.11659065e+02
440             	3.11659370e+02
441             	3.11659681e+02
442             	3.11659987e+02
443             	3.11660287e+02
444             	3.11660576e+02
445             	3.11660867e+02
446             	3.11661150e+02
447             	3.11661422e+02
448             	3.11661684e+02
449             	3.11661947e+02
450             	3.11662204e+02
451             	3.11662455e+02
452             	3.11662700e+02
453             	3.11662949e+02
454             	3.11663195e+02
455             	3.11663436e+02
456             	3.11663670e+02
457             	3.11663906e+02
458             	3.11664138e+02
459             	3.11664363e+02
460             	3.11664583e+02
461             	3.11664807e+02
462             	3.11665029e+02
463             	3.11665248e+02
464             	3.11665462e+02
465             	3.11665681e+02
466             	3.11665896e+02
467             	3.11666107e+02
468             	3.11666310e+02
469             	3.11666514e+02
470             	3.11666714e+02
471             	3.11666909e+02
472             	3.11667097e+02
473             	3.11667286e+02
474             	3.11667471e+02
475             	3.11667652e+02
476             	3.11667827e+02
477             	3.11668004e+02
478             	3.11668179e+02
479             	3.11668351e+02
480             	3.11668517e+02
481             	3.11668685e+02
482             	3.11668852e+02
483             	3.11669015e+02
484             	3.11669172e+02
485             	3.11669332e+02
486             	3.11669490e+02
487             	3.11669645e+02
488             	3.11669794e+02
489             	3.11669946e+02
490             	3.11670097e+02
491             	3.11670246e+02
492             	3.11670390e+02
493             	3.11670536e+02
494             	3.11670681e+02
495             	3.11670823e+02
496             	3.11670960e+02
497             	3.11671097e+02
498             	3.11671232e+02
499             	3.11671362e+02
500             	3.11671488e+02
501             	3.11671614e+02
502             	3.11671739e+02
503             	3.11671862e+02
504             	3.11671982e+02
505             	3.11672103e+02
506             	3.11672223e+02
507             	3.11672341e+02
508             	3.11672455e+02
509             	3.11672569e+02
510             	3.11672682e+02
511             	3.11672792e+02
512             	3.11672898e+02
513             	3.11673005e+02
514             	3.11673112e+02
515             	3.11673218e+02
516             	3.11673321e+02
517             	3.11673425e+02
518             	3.11673528e+02
519             	3.11673630e+02
520             	3.11673728e+02
521             	3.11673826e+02
522             	3.11673924e+02
523             	3.11674019e+02
524             	3.11674110e+02
525             	3.11674202e+02
526             	3.11674293e+02
527             	3.11674382e+02
528             	3.11674467e+02
529             	3.11674554e+02
530             	3.11674640e+02
531             	3.11674724e+02
532             	3.11674806e+02
533             	3.11674888e+02
534             	3.11674970e+02
535             	3.11675050e+02
536             	3.11675127e+02
537             	3.11675205e+02
538             	3.11675282e+02
539             	3.11675358e+02
540             	3.11675432e+02
541             	3.11675506e+02
542             	3.11675580e+02
543             	3.11675653e+02
544             	3.11675724e+02
545             	3.11675795e+02
546             	3.11675866e+02
547             	3.11675935e+02
548             	3.11676002e+02
549             	3.11676068e+02
550             	3.11676134e+02
551             	3.11676198e+02
552             	3.11676260e+02
553             	3.11676322e+02
554             	3.11676383e+02
555             	3.11676443e+02
556             	3.11676502e+02
557             	3.11676560e+02
558             	3.11676618e+02
559             	3.11676676e+02
560             	3.11676731e+02
561             	3.11676788e+02
562             	3.11676844e+02
563             	3.11676899e+02
564             	3.11676953e+02
565             	3.11677008e+02
566             	3.11677062e+02
567             	3.11677115e+02
568             	3.11677166e+02
569             	3.11677217e+02
570             	3.11677268e+02
571             	3.11677317e+02
572             	3.11677365e+02
573             	3.11677413e+02
574             	3.11677459e+02
575             	3.11677506e+02
576             	3.11677550e+02
577             	3.11677595e+02
578             	3.11677639e+02
579             	3.11677682e+02
580             	3.11677725e+02
581             	3.11677767e+02
582             	3.11677810e+02
583             	3.11677851e+02
584             	3.11677892e+02
585             	3.11677933e+02
586             	3.11677973e+02
587             	3.11678012e+02
588             	3.11678050e+02
589             	3.11678087e+02
590             	3.11678125e+02
591             	3.11678161e+02
592             	3.11678197e+02
593             	3.11678232e+02
594             	3.11678268e+02
595             	3.11678303e+02
596             	3.11678337e+02
597             	3.11678372e+02
598             	3.11678406e+02
599             	3.11678441e+02
600             	3.11678474e+02
601             	3.11678507e+02
602             	3.11678541e+02
603             	3.11678573e+02
604             	3.11678605e+02
605             	3.11678636e+02
606             	3.11678668e+02
607             	3.11678698e+02
608             	3.11678727e+02
609             	3.11678756e+02
610             	3.11678785e+02
611             	3.11678813e+02
612             	3.11678840e+02
613             	3.11678868e+02
614             	3.11678896e+02
615             	3.11678923e+02
616             	3.11678950e+02
617             	3.11678977e+02
618             	3.11679004e+02
619             	3.11679030e+02
620             	3.11679054e+02
621             	3.11679079e+02
