# Region        : cellZone component_2
# Cells         : 56
# Volume        : 8.67505976e-02
# Time          	volAverage(T)
1               	3.01806545e+02
2               	3.03585964e+02
3               	3.05153705e+02
4               	3.06549185e+02
5               	3.07816287e+02
6               	3.08973792e+02
7               	3.10030328e+02
8               	3.11012514e+02
9               	3.11918105e+02
10              	3.12759531e+02
11              	3.13551433e+02
12              	3.14311459e+02
13              	3.15061175e+02
14              	3.15808317e+02
15              	3.16542469e+02
16              	3.17268501e+02
17              	3.17975421e+02
18              	3.18678987e+02
19              	3.19373958e+02
20              	3.20044102e+02
21              	3.20720793e+02
22              	3.21378287e+02
23              	3.22028441e+02
24              	3.22676443e+02
25              	3.23299998e+02
26              	3.23885032e+02
27              	3.24425701e+02
28              	3.24943110e+02
29              	3.25416573e+02
30              	3.25849581e+02
31              	3.26230276e+02
32              	3.26576882e+02
33              	3.26891875e+02
34              	3.27176047e+02
35              	3.27446197e+02
36              	3.27720281e+02
37              	3.27994116e+02
38              	3.28259394e+02
39              	3.28517792e+02
40              	3.28766463e+02
41              	3.29018335e+02
42              	3.29267626e+02
43              	3.29508384e+02
44              	3.29739370e+02
45              	3.29962762e+02
46              	3.30188988e+02
47              	3.30419251e+02
48              	3.30669314e+02
49              	3.30923726e+02
50              	3.31161079e+02
51              	3.31393905e+02
52              	3.31611053e+02
53              	3.31818788e+02
54              	3.32008384e+02
55              	3.32181079e+02
56              	3.32325657e+02
57              	3.32452221e+02
58              	3.32565646e+02
59              	3.32664519e+02
60              	3.32749725e+02
61              	3.32833069e+02
62              	3.32912284e+02
63              	3.32993393e+02
64              	3.33074129e+02
65              	3.33158009e+02
66              	3.33248800e+02
67              	3.33350360e+02
68              	3.33465505e+02
69              	3.33585862e+02
70              	3.33706196e+02
71              	3.33818795e+02
72              	3.33920588e+02
73              	3.33998695e+02
74              	3.34055354e+02
75              	3.34100416e+02
76              	3.34141213e+02
77              	3.34165912e+02
78              	3.34186850e+02
79              	3.34220244e+02
80              	3.34274537e+02
81              	3.34354688e+02
82              	3.34455420e+02
83              	3.34555212e+02
84              	3.34628561e+02
85              	3.34685063e+02
86              	3.34716587e+02
87              	3.34731255e+02
88              	3.34742715e+02
89              	3.34743259e+02
90              	3.34735179e+02
91              	3.34722062e+02
92              	3.34711700e+02
93              	3.34706813e+02
94              	3.34718975e+02
95              	3.34748420e+02
96              	3.34806516e+02
97              	3.34885606e+02
98              	3.34963543e+02
99              	3.35031108e+02
100             	3.35083224e+02
101             	3.35117762e+02
102             	3.35133758e+02
103             	3.35143873e+02
104             	3.35149282e+02
105             	3.35159005e+02
106             	3.35173104e+02
107             	3.35190965e+02
108             	3.35213618e+02
109             	3.35250594e+02
110             	3.35288855e+02
111             	3.35323468e+02
112             	3.35348438e+02
113             	3.35357740e+02
114             	3.35360041e+02
115             	3.35339867e+02
116             	3.35330803e+02
117             	3.35318614e+02
118             	3.35315034e+02
119             	3.35325056e+02
120             	3.35364169e+02
121             	3.35424796e+02
122             	3.35492784e+02
123             	3.35555246e+02
124             	3.35615627e+02
125             	3.35660894e+02
126             	3.35686479e+02
127             	3.35690684e+02
128             	3.35674125e+02
129             	3.35645803e+02
130             	3.35594735e+02
131             	3.35534546e+02
132             	3.35473420e+02
133             	3.35422496e+02
134             	3.35392901e+02
135             	3.35380469e+02
136             	3.35372877e+02
137             	3.35374060e+02
138             	3.35373046e+02
139             	3.35378311e+02
140             	3.35379162e+02
141             	3.35371691e+02
142             	3.35359306e+02
143             	3.35350151e+02
144             	3.35331065e+02
145             	3.35318064e+02
146             	3.35303373e+02
147             	3.35300924e+02
148             	3.35320524e+02
149             	3.35360450e+02
150             	3.35411116e+02
151             	3.35457457e+02
152             	3.35495026e+02
153             	3.35521966e+02
154             	3.35547382e+02
155             	3.35556510e+02
156             	3.35559068e+02
157             	3.35562153e+02
158             	3.35560796e+02
159             	3.35557288e+02
160             	3.35550266e+02
161             	3.35548474e+02
162             	3.35547505e+02
163             	3.35548003e+02
164             	3.35552811e+02
165             	3.35564191e+02
166             	3.35580986e+02
167             	3.35599264e+02
168             	3.35626751e+02
169             	3.35656595e+02
170             	3.35692785e+02
171             	3.35721298e+02
172             	3.35754333e+02
173             	3.35781333e+02
174             	3.35809848e+02
175             	3.35830659e+02
176             	3.35845796e+02
177             	3.35854073e+02
178             	3.35856851e+02
179             	3.35854973e+02
180             	3.35849489e+02
181             	3.35843911e+02
182             	3.35843977e+02
183             	3.35843292e+02
184             	3.35845866e+02
185             	3.35850363e+02
186             	3.35859670e+02
187             	3.35867283e+02
188             	3.35869093e+02
189             	3.35870604e+02
190             	3.35869456e+02
191             	3.35867520e+02
192             	3.35865513e+02
193             	3.35862166e+02
194             	3.35860655e+02
195             	3.35856880e+02
196             	3.35850791e+02
197             	3.35839464e+02
198             	3.35829161e+02
199             	3.35817631e+02
200             	3.35807044e+02
201             	3.35794953e+02
202             	3.35785510e+02
203             	3.35777189e+02
204             	3.35765697e+02
205             	3.35754841e+02
206             	3.35743740e+02
207             	3.35734096e+02
208             	3.35725423e+02
209             	3.35719075e+02
210             	3.35711779e+02
211             	3.35705768e+02
212             	3.35699988e+02
213             	3.35696500e+02
214             	3.35695117e+02
215             	3.35697138e+02
216             	3.35698644e+02
217             	3.35703147e+02
218             	3.35707265e+02
219             	3.35714799e+02
220             	3.35722384e+02
221             	3.35730277e+02
222             	3.35737541e+02
223             	3.35742848e+02
224             	3.35746615e+02
225             	3.35749897e+02
226             	3.35753302e+02
227             	3.35753855e+02
228             	3.35755290e+02
229             	3.35758466e+02
230             	3.35758400e+02
231             	3.35758750e+02
232             	3.35757020e+02
233             	3.35754708e+02
234             	3.35750901e+02
235             	3.35747724e+02
236             	3.35743939e+02
237             	3.35738877e+02
238             	3.35732406e+02
239             	3.35725281e+02
240             	3.35716327e+02
241             	3.35708039e+02
242             	3.35699493e+02
243             	3.35692857e+02
244             	3.35686476e+02
245             	3.35681300e+02
246             	3.35675446e+02
247             	3.35669593e+02
248             	3.35660914e+02
249             	3.35653924e+02
250             	3.35647886e+02
251             	3.35643957e+02
252             	3.35638093e+02
253             	3.35636211e+02
254             	3.35635770e+02
255             	3.35637292e+02
256             	3.35639698e+02
257             	3.35638038e+02
258             	3.35637893e+02
259             	3.35634180e+02
260             	3.35631840e+02
261             	3.35626781e+02
262             	3.35621739e+02
263             	3.35617047e+02
264             	3.35608436e+02
265             	3.35600721e+02
266             	3.35594257e+02
267             	3.35590733e+02
268             	3.35587708e+02
269             	3.35582907e+02
270             	3.35578826e+02
271             	3.35576764e+02
272             	3.35579191e+02
273             	3.35585420e+02
274             	3.35593952e+02
275             	3.35603116e+02
276             	3.35606965e+02
277             	3.35612417e+02
278             	3.35614928e+02
279             	3.35618562e+02
280             	3.35622007e+02
281             	3.35621276e+02
282             	3.35619760e+02
283             	3.35617863e+02
284             	3.35615687e+02
285             	3.35611597e+02
286             	3.35608208e+02
287             	3.35606079e+02
288             	3.35602896e+02
289             	3.35602225e+02
290             	3.35603856e+02
291             	3.35607870e+02
292             	3.35612343e+02
293             	3.35615729e+02
294             	3.35616370e+02
295             	3.35619068e+02
296             	3.35622132e+02
297             	3.35626126e+02
298             	3.35630016e+02
299             	3.35629083e+02
300             	3.35627490e+02
301             	3.35624351e+02
302             	3.35620511e+02
303             	3.35616707e+02
304             	3.35611062e+02
305             	3.35606217e+02
306             	3.35600268e+02
307             	3.35595756e+02
308             	3.35592573e+02
309             	3.35590663e+02
310             	3.35588341e+02
311             	3.35588245e+02
312             	3.35588492e+02
313             	3.35591357e+02
314             	3.35596714e+02
315             	3.35598684e+02
316             	3.35600701e+02
317             	3.35604582e+02
318             	3.35608986e+02
319             	3.35615076e+02
320             	3.35618870e+02
321             	3.35623632e+02
322             	3.35627545e+02
323             	3.35631210e+02
324             	3.35630488e+02
325             	3.35630428e+02
326             	3.35629683e+02
327             	3.35627953e+02
328             	3.35625585e+02
329             	3.35620632e+02
330             	3.35619183e+02
331             	3.35614447e+02
332             	3.35610848e+02
333             	3.35606358e+02
334             	3.35604876e+02
335             	3.35603598e+02
336             	3.35604928e+02
337             	3.35606167e+02
338             	3.35608504e+02
339             	3.35608527e+02
340             	3.35608943e+02
341             	3.35607945e+02
342             	3.35607055e+02
343             	3.35606776e+02
344             	3.35608631e+02
345             	3.35612192e+02
346             	3.35613187e+02
347             	3.35616392e+02
348             	3.35616603e+02
349             	3.35617046e+02
350             	3.35613913e+02
351             	3.35612417e+02
352             	3.35610422e+02
353             	3.35606700e+02
354             	3.35602825e+02
355             	3.35598178e+02
356             	3.35593775e+02
357             	3.35588448e+02
358             	3.35586533e+02
359             	3.35584799e+02
360             	3.35582919e+02
361             	3.35581459e+02
362             	3.35578237e+02
363             	3.35576042e+02
364             	3.35574093e+02
365             	3.35574735e+02
366             	3.35576461e+02
367             	3.35579462e+02
368             	3.35582943e+02
369             	3.35587914e+02
370             	3.35590829e+02
371             	3.35590918e+02
372             	3.35591195e+02
373             	3.35592461e+02
374             	3.35594388e+02
375             	3.35595698e+02
376             	3.35597076e+02
377             	3.35593265e+02
378             	3.35588642e+02
379             	3.35583026e+02
380             	3.35579383e+02
381             	3.35574314e+02
382             	3.35571932e+02
383             	3.35571030e+02
384             	3.35568425e+02
385             	3.35566183e+02
386             	3.35563944e+02
387             	3.35564130e+02
388             	3.35564652e+02
389             	3.35568995e+02
390             	3.35571623e+02
391             	3.35577960e+02
392             	3.35581342e+02
393             	3.35585964e+02
394             	3.35586518e+02
395             	3.35587636e+02
396             	3.35584700e+02
397             	3.35579883e+02
398             	3.35576397e+02
399             	3.35572715e+02
400             	3.35568272e+02
401             	3.35562068e+02
402             	3.35555885e+02
403             	3.35550010e+02
404             	3.35547570e+02
405             	3.35547834e+02
406             	3.35551310e+02
407             	3.35555068e+02
408             	3.35559027e+02
409             	3.35563651e+02
410             	3.35568516e+02
411             	3.35576542e+02
412             	3.35578488e+02
413             	3.35583819e+02
414             	3.35583223e+02
415             	3.35583314e+02
416             	3.35581497e+02
417             	3.35578299e+02
418             	3.35573353e+02
419             	3.35570125e+02
420             	3.35565807e+02
421             	3.35556535e+02
422             	3.35549640e+02
423             	3.35542645e+02
424             	3.35542271e+02
425             	3.35545069e+02
426             	3.35547289e+02
427             	3.35550847e+02
428             	3.35555788e+02
429             	3.35562728e+02
430             	3.35571318e+02
431             	3.35577155e+02
432             	3.35581810e+02
433             	3.35589383e+02
434             	3.35598796e+02
435             	3.35611817e+02
436             	3.35626447e+02
437             	3.35636649e+02
438             	3.35646628e+02
439             	3.35652894e+02
440             	3.35659920e+02
441             	3.35666692e+02
442             	3.35668281e+02
443             	3.35668798e+02
444             	3.35664906e+02
445             	3.35661100e+02
446             	3.35657066e+02
447             	3.35652577e+02
448             	3.35647855e+02
449             	3.35645424e+02
450             	3.35641161e+02
451             	3.35639515e+02
452             	3.35639000e+02
453             	3.35638799e+02
454             	3.35639632e+02
455             	3.35638332e+02
456             	3.35639769e+02
457             	3.35641603e+02
458             	3.35647735e+02
459             	3.35651409e+02
460             	3.35650324e+02
461             	3.35649086e+02
462             	3.35644356e+02
463             	3.35638694e+02
464             	3.35631462e+02
465             	3.35627315e+02
466             	3.35618623e+02
467             	3.35609135e+02
468             	3.35599877e+02
469             	3.35590047e+02
470             	3.35582183e+02
471             	3.35576733e+02
472             	3.35572084e+02
473             	3.35571257e+02
474             	3.35572164e+02
475             	3.35575820e+02
476             	3.35581485e+02
477             	3.35589089e+02
478             	3.35598905e+02
479             	3.35605188e+02
480             	3.35606801e+02
481             	3.35612067e+02
482             	3.35617484e+02
483             	3.35624703e+02
484             	3.35626959e+02
485             	3.35628699e+02
486             	3.35631985e+02
487             	3.35632073e+02
488             	3.35633214e+02
489             	3.35633168e+02
490             	3.35633768e+02
491             	3.35633039e+02
492             	3.35633301e+02
493             	3.35633964e+02
494             	3.35634302e+02
495             	3.35633623e+02
496             	3.35630466e+02
497             	3.35628582e+02
498             	3.35626677e+02
499             	3.35628830e+02
500             	3.35633365e+02
501             	3.35641272e+02
502             	3.35649271e+02
503             	3.35657934e+02
504             	3.35665597e+02
505             	3.35671318e+02
506             	3.35674698e+02
507             	3.35676423e+02
508             	3.35677379e+02
509             	3.35675458e+02
510             	3.35674095e+02
511             	3.35672885e+02
512             	3.35672269e+02
513             	3.35674158e+02
514             	3.35673582e+02
515             	3.35672349e+02
516             	3.35668480e+02
517             	3.35665119e+02
518             	3.35660914e+02
519             	3.35657456e+02
520             	3.35651543e+02
521             	3.35648468e+02
522             	3.35645507e+02
523             	3.35644961e+02
524             	3.35646571e+02
525             	3.35646613e+02
526             	3.35649136e+02
527             	3.35650942e+02
528             	3.35655086e+02
529             	3.35657775e+02
530             	3.35662397e+02
531             	3.35663771e+02
532             	3.35663900e+02
533             	3.35661836e+02
534             	3.35658552e+02
535             	3.35654436e+02
536             	3.35650269e+02
537             	3.35643312e+02
538             	3.35636797e+02
539             	3.35631389e+02
540             	3.35626798e+02
541             	3.35623924e+02
542             	3.35618860e+02
543             	3.35617165e+02
544             	3.35615794e+02
545             	3.35616762e+02
546             	3.35618675e+02
547             	3.35616847e+02
548             	3.35616292e+02
549             	3.35613083e+02
550             	3.35611829e+02
551             	3.35607643e+02
552             	3.35605618e+02
553             	3.35602430e+02
554             	3.35599952e+02
555             	3.35598640e+02
556             	3.35596019e+02
557             	3.35594280e+02
558             	3.35592203e+02
559             	3.35590236e+02
560             	3.35584952e+02
561             	3.35580731e+02
562             	3.35576422e+02
563             	3.35573806e+02
564             	3.35569340e+02
565             	3.35566458e+02
566             	3.35561817e+02
567             	3.35558622e+02
568             	3.35557401e+02
569             	3.35553233e+02
570             	3.35551171e+02
571             	3.35550304e+02
572             	3.35551173e+02
573             	3.35550503e+02
574             	3.35551195e+02
575             	3.35550764e+02
576             	3.35551651e+02
577             	3.35552752e+02
578             	3.35555873e+02
579             	3.35559574e+02
580             	3.35562985e+02
581             	3.35566896e+02
582             	3.35571306e+02
583             	3.35578220e+02
584             	3.35587814e+02
585             	3.35593491e+02
586             	3.35599236e+02
587             	3.35603493e+02
588             	3.35607501e+02
589             	3.35608202e+02
590             	3.35609692e+02
591             	3.35608538e+02
592             	3.35610108e+02
593             	3.35614236e+02
594             	3.35615538e+02
595             	3.35618286e+02
596             	3.35619438e+02
597             	3.35621678e+02
598             	3.35622733e+02
599             	3.35626459e+02
600             	3.35631556e+02
601             	3.35635198e+02
602             	3.35636955e+02
603             	3.35637917e+02
604             	3.35638673e+02
605             	3.35635760e+02
606             	3.35632586e+02
607             	3.35627063e+02
608             	3.35621872e+02
609             	3.35617080e+02
610             	3.35613099e+02
611             	3.35607829e+02
612             	3.35602318e+02
613             	3.35596841e+02
614             	3.35593692e+02
615             	3.35592851e+02
616             	3.35588787e+02
617             	3.35587207e+02
618             	3.35583420e+02
619             	3.35583020e+02
620             	3.35582153e+02
621             	3.35582157e+02
