# Region        : cellZone component_2
# Cells         : 136
# Volume        : 2.57267882e-01
# Time          	volAverage(T)
1               	3.00675368e+02
2               	3.01342124e+02
3               	3.01953024e+02
4               	3.02530517e+02
5               	3.03093082e+02
6               	3.03645609e+02
7               	3.04189938e+02
8               	3.04728312e+02
9               	3.05261935e+02
10              	3.05793186e+02
11              	3.06318346e+02
12              	3.06836479e+02
13              	3.07347642e+02
14              	3.07853493e+02
15              	3.08357443e+02
16              	3.08853328e+02
17              	3.09341071e+02
18              	3.09820337e+02
19              	3.10297124e+02
20              	3.10770077e+02
21              	3.11240411e+02
22              	3.11708341e+02
23              	3.12174969e+02
24              	3.12638553e+02
25              	3.13097340e+02
26              	3.13548344e+02
27              	3.13991208e+02
28              	3.14423066e+02
29              	3.14846311e+02
30              	3.15259273e+02
31              	3.15661991e+02
32              	3.16058417e+02
33              	3.16450603e+02
34              	3.16839923e+02
35              	3.17206783e+02
36              	3.17552123e+02
37              	3.17884706e+02
38              	3.18211950e+02
39              	3.18534133e+02
40              	3.18850152e+02
41              	3.19159845e+02
42              	3.19465267e+02
43              	3.19768792e+02
44              	3.20066122e+02
45              	3.20356723e+02
46              	3.20641003e+02
47              	3.20916281e+02
48              	3.21182816e+02
49              	3.21440825e+02
50              	3.21686877e+02
51              	3.21923291e+02
52              	3.22152993e+02
53              	3.22380135e+02
54              	3.22604579e+02
55              	3.22822855e+02
56              	3.23025675e+02
57              	3.23220771e+02
58              	3.23406357e+02
59              	3.23576973e+02
60              	3.23733014e+02
61              	3.23881164e+02
62              	3.24022980e+02
63              	3.24163069e+02
64              	3.24303655e+02
65              	3.24441944e+02
66              	3.24576963e+02
67              	3.24709788e+02
68              	3.24839019e+02
69              	3.24963570e+02
70              	3.25086824e+02
71              	3.25205182e+02
72              	3.25315811e+02
73              	3.25419350e+02
74              	3.25515827e+02
75              	3.25608085e+02
76              	3.25696202e+02
77              	3.25780776e+02
78              	3.25863251e+02
79              	3.25944406e+02
80              	3.26024030e+02
81              	3.26099897e+02
82              	3.26174423e+02
83              	3.26247788e+02
84              	3.26317228e+02
85              	3.26382850e+02
86              	3.26443558e+02
87              	3.26500925e+02
88              	3.26552979e+02
89              	3.26602610e+02
90              	3.26650054e+02
91              	3.26694744e+02
92              	3.26735881e+02
93              	3.26775201e+02
94              	3.26814860e+02
95              	3.26853144e+02
96              	3.26889376e+02
97              	3.26924804e+02
98              	3.26960349e+02
99              	3.26997285e+02
100             	3.27033238e+02
101             	3.27067463e+02
102             	3.27100261e+02
103             	3.27131218e+02
104             	3.27159079e+02
105             	3.27183567e+02
106             	3.27205486e+02
107             	3.27225097e+02
108             	3.27242996e+02
109             	3.27259368e+02
110             	3.27275706e+02
111             	3.27291555e+02
112             	3.27307539e+02
113             	3.27324280e+02
114             	3.27340872e+02
115             	3.27357875e+02
116             	3.27374925e+02
117             	3.27391396e+02
118             	3.27407097e+02
119             	3.27421566e+02
120             	3.27433464e+02
121             	3.27443714e+02
122             	3.27452301e+02
123             	3.27460088e+02
124             	3.27466334e+02
125             	3.27471651e+02
126             	3.27476916e+02
127             	3.27482442e+02
128             	3.27488252e+02
129             	3.27494379e+02
130             	3.27501196e+02
131             	3.27508282e+02
132             	3.27514959e+02
133             	3.27520870e+02
134             	3.27526054e+02
135             	3.27529670e+02
136             	3.27531930e+02
137             	3.27533128e+02
138             	3.27533458e+02
139             	3.27532923e+02
140             	3.27531721e+02
141             	3.27530341e+02
142             	3.27528987e+02
143             	3.27527745e+02
144             	3.27526567e+02
145             	3.27525495e+02
146             	3.27524472e+02
147             	3.27523594e+02
148             	3.27522811e+02
149             	3.27522107e+02
150             	3.27521460e+02
151             	3.27520850e+02
152             	3.27520098e+02
153             	3.27519219e+02
154             	3.27517873e+02
155             	3.27515907e+02
156             	3.27513495e+02
157             	3.27510120e+02
158             	3.27506066e+02
159             	3.27501735e+02
160             	3.27497803e+02
161             	3.27494548e+02
162             	3.27492063e+02
163             	3.27490251e+02
164             	3.27488290e+02
165             	3.27486180e+02
166             	3.27483746e+02
167             	3.27480855e+02
168             	3.27476807e+02
169             	3.27471762e+02
170             	3.27465982e+02
171             	3.27460053e+02
172             	3.27454050e+02
173             	3.27449032e+02
174             	3.27444480e+02
175             	3.27440657e+02
176             	3.27436716e+02
177             	3.27433057e+02
178             	3.27429786e+02
179             	3.27426348e+02
180             	3.27423015e+02
181             	3.27419204e+02
182             	3.27414955e+02
183             	3.27410569e+02
184             	3.27405700e+02
185             	3.27400586e+02
186             	3.27395498e+02
187             	3.27390252e+02
188             	3.27385177e+02
189             	3.27380309e+02
190             	3.27375495e+02
191             	3.27370813e+02
192             	3.27366353e+02
193             	3.27362154e+02
194             	3.27358158e+02
195             	3.27354081e+02
196             	3.27349901e+02
197             	3.27345563e+02
198             	3.27340942e+02
199             	3.27336267e+02
200             	3.27331224e+02
201             	3.27326283e+02
202             	3.27321310e+02
203             	3.27316285e+02
204             	3.27311394e+02
205             	3.27306720e+02
206             	3.27302542e+02
207             	3.27298735e+02
208             	3.27295323e+02
209             	3.27292152e+02
210             	3.27288990e+02
211             	3.27285760e+02
212             	3.27282412e+02
213             	3.27278851e+02
214             	3.27275025e+02
215             	3.27270925e+02
216             	3.27266620e+02
217             	3.27262277e+02
218             	3.27258022e+02
219             	3.27253995e+02
220             	3.27250096e+02
221             	3.27246302e+02
222             	3.27242597e+02
223             	3.27238989e+02
224             	3.27235307e+02
225             	3.27231622e+02
226             	3.27227938e+02
227             	3.27224250e+02
228             	3.27220594e+02
229             	3.27217003e+02
230             	3.27213658e+02
231             	3.27210385e+02
232             	3.27207247e+02
233             	3.27204166e+02
234             	3.27201159e+02
235             	3.27198219e+02
236             	3.27195173e+02
237             	3.27192115e+02
238             	3.27188981e+02
239             	3.27185830e+02
240             	3.27182693e+02
241             	3.27179642e+02
242             	3.27176647e+02
243             	3.27173721e+02
244             	3.27170907e+02
245             	3.27168184e+02
246             	3.27165470e+02
247             	3.27162795e+02
248             	3.27160121e+02
249             	3.27157450e+02
250             	3.27154810e+02
251             	3.27152230e+02
252             	3.27149741e+02
253             	3.27147325e+02
254             	3.27145016e+02
255             	3.27142828e+02
256             	3.27140751e+02
257             	3.27138778e+02
258             	3.27136867e+02
259             	3.27134952e+02
260             	3.27133008e+02
261             	3.27131028e+02
262             	3.27129035e+02
263             	3.27127001e+02
264             	3.27124997e+02
265             	3.27123033e+02
266             	3.27121145e+02
267             	3.27119323e+02
268             	3.27117569e+02
269             	3.27115912e+02
270             	3.27114353e+02
271             	3.27112866e+02
272             	3.27111450e+02
273             	3.27110048e+02
274             	3.27108686e+02
275             	3.27107365e+02
276             	3.27106071e+02
277             	3.27104761e+02
278             	3.27103480e+02
279             	3.27102243e+02
280             	3.27101064e+02
281             	3.27099893e+02
282             	3.27098757e+02
283             	3.27097650e+02
284             	3.27096561e+02
285             	3.27095462e+02
286             	3.27094380e+02
287             	3.27093288e+02
288             	3.27092201e+02
289             	3.27091122e+02
290             	3.27090051e+02
291             	3.27089044e+02
292             	3.27088142e+02
293             	3.27087352e+02
294             	3.27086644e+02
295             	3.27086032e+02
296             	3.27085516e+02
297             	3.27085054e+02
298             	3.27084590e+02
299             	3.27084065e+02
300             	3.27083544e+02
301             	3.27083030e+02
302             	3.27082483e+02
303             	3.27081895e+02
304             	3.27081273e+02
305             	3.27080647e+02
306             	3.27080069e+02
307             	3.27079538e+02
308             	3.27079068e+02
309             	3.27078673e+02
310             	3.27078342e+02
311             	3.27078025e+02
312             	3.27077756e+02
313             	3.27077484e+02
314             	3.27077210e+02
315             	3.27076926e+02
316             	3.27076618e+02
317             	3.27076352e+02
318             	3.27076121e+02
319             	3.27075939e+02
320             	3.27075804e+02
321             	3.27075718e+02
322             	3.27075689e+02
323             	3.27075702e+02
324             	3.27075710e+02
325             	3.27075713e+02
326             	3.27075705e+02
327             	3.27075678e+02
328             	3.27075635e+02
329             	3.27075589e+02
330             	3.27075562e+02
331             	3.27075575e+02
332             	3.27075616e+02
333             	3.27075701e+02
334             	3.27075835e+02
335             	3.27076009e+02
336             	3.27076168e+02
337             	3.27076337e+02
338             	3.27076508e+02
339             	3.27076684e+02
340             	3.27076855e+02
341             	3.27077024e+02
342             	3.27077194e+02
343             	3.27077373e+02
344             	3.27077555e+02
345             	3.27077758e+02
346             	3.27077982e+02
347             	3.27078226e+02
348             	3.27078491e+02
349             	3.27078776e+02
350             	3.27079082e+02
351             	3.27079402e+02
352             	3.27079736e+02
353             	3.27080086e+02
354             	3.27080449e+02
355             	3.27080823e+02
356             	3.27081208e+02
357             	3.27081603e+02
358             	3.27082005e+02
359             	3.27082415e+02
360             	3.27082832e+02
361             	3.27083233e+02
362             	3.27083637e+02
363             	3.27084040e+02
364             	3.27084441e+02
365             	3.27084848e+02
366             	3.27085295e+02
367             	3.27085745e+02
368             	3.27086213e+02
369             	3.27086704e+02
370             	3.27087219e+02
371             	3.27087743e+02
372             	3.27088287e+02
373             	3.27088841e+02
374             	3.27089409e+02
375             	3.27089987e+02
376             	3.27090573e+02
377             	3.27091163e+02
378             	3.27091757e+02
379             	3.27092358e+02
380             	3.27092958e+02
381             	3.27093565e+02
382             	3.27094175e+02
383             	3.27094793e+02
384             	3.27095416e+02
385             	3.27096045e+02
386             	3.27096677e+02
387             	3.27097313e+02
388             	3.27097953e+02
389             	3.27098595e+02
390             	3.27099240e+02
391             	3.27099885e+02
392             	3.27100531e+02
393             	3.27101177e+02
394             	3.27101826e+02
395             	3.27102478e+02
396             	3.27103133e+02
397             	3.27103797e+02
398             	3.27104467e+02
399             	3.27105143e+02
400             	3.27105828e+02
401             	3.27106520e+02
402             	3.27107223e+02
403             	3.27107933e+02
404             	3.27108649e+02
405             	3.27109372e+02
406             	3.27110098e+02
407             	3.27110824e+02
408             	3.27111541e+02
409             	3.27112256e+02
410             	3.27112965e+02
411             	3.27113670e+02
412             	3.27114372e+02
413             	3.27115079e+02
414             	3.27115788e+02
415             	3.27116502e+02
416             	3.27117221e+02
417             	3.27117946e+02
418             	3.27118675e+02
419             	3.27119413e+02
420             	3.27120161e+02
421             	3.27120919e+02
422             	3.27121685e+02
423             	3.27122458e+02
424             	3.27123229e+02
425             	3.27124001e+02
426             	3.27124769e+02
427             	3.27125536e+02
428             	3.27126303e+02
429             	3.27127064e+02
430             	3.27127820e+02
431             	3.27128572e+02
432             	3.27129323e+02
433             	3.27130074e+02
434             	3.27130826e+02
435             	3.27131578e+02
436             	3.27132334e+02
437             	3.27133095e+02
438             	3.27133860e+02
439             	3.27134630e+02
440             	3.27135401e+02
441             	3.27136174e+02
442             	3.27136950e+02
443             	3.27137728e+02
444             	3.27138505e+02
445             	3.27139284e+02
446             	3.27140061e+02
447             	3.27140836e+02
448             	3.27141609e+02
449             	3.27142381e+02
450             	3.27143153e+02
451             	3.27143923e+02
452             	3.27144695e+02
453             	3.27145466e+02
454             	3.27146236e+02
455             	3.27147005e+02
456             	3.27147772e+02
457             	3.27148536e+02
458             	3.27149294e+02
459             	3.27150049e+02
460             	3.27150802e+02
461             	3.27151551e+02
462             	3.27152298e+02
463             	3.27153043e+02
464             	3.27153787e+02
465             	3.27154530e+02
466             	3.27155273e+02
467             	3.27156011e+02
468             	3.27156751e+02
469             	3.27157491e+02
470             	3.27158228e+02
471             	3.27158962e+02
472             	3.27159693e+02
473             	3.27160422e+02
474             	3.27161148e+02
475             	3.27161874e+02
476             	3.27162598e+02
477             	3.27163323e+02
478             	3.27164049e+02
479             	3.27164775e+02
480             	3.27165503e+02
481             	3.27166231e+02
482             	3.27166962e+02
483             	3.27167692e+02
484             	3.27168424e+02
485             	3.27169156e+02
486             	3.27169889e+02
487             	3.27170621e+02
488             	3.27171354e+02
489             	3.27172085e+02
490             	3.27172817e+02
491             	3.27173548e+02
492             	3.27174282e+02
493             	3.27175017e+02
494             	3.27175754e+02
495             	3.27176494e+02
496             	3.27177233e+02
497             	3.27177999e+02
498             	3.27178770e+02
499             	3.27179541e+02
500             	3.27180308e+02
501             	3.27180951e+02
502             	3.27181672e+02
503             	3.27182425e+02
504             	3.27183184e+02
505             	3.27183921e+02
506             	3.27184675e+02
507             	3.27185358e+02
508             	3.27186105e+02
509             	3.27186877e+02
510             	3.27187662e+02
511             	3.27188458e+02
512             	3.27189259e+02
513             	3.27190066e+02
514             	3.27190867e+02
515             	3.27191667e+02
516             	3.27192444e+02
517             	3.27193228e+02
518             	3.27194018e+02
519             	3.27194803e+02
520             	3.27195579e+02
521             	3.27196344e+02
522             	3.27197099e+02
523             	3.27197806e+02
524             	3.27198548e+02
525             	3.27199300e+02
526             	3.27200036e+02
527             	3.27200780e+02
528             	3.27201508e+02
529             	3.27202242e+02
530             	3.27202979e+02
531             	3.27203713e+02
532             	3.27204458e+02
533             	3.27205202e+02
534             	3.27205942e+02
535             	3.27206682e+02
536             	3.27207422e+02
537             	3.27208155e+02
538             	3.27208886e+02
539             	3.27209613e+02
540             	3.27210335e+02
541             	3.27211054e+02
542             	3.27211771e+02
543             	3.27212486e+02
544             	3.27213199e+02
545             	3.27213910e+02
546             	3.27214621e+02
547             	3.27215332e+02
548             	3.27216044e+02
549             	3.27216756e+02
550             	3.27217468e+02
551             	3.27218179e+02
552             	3.27218890e+02
553             	3.27219599e+02
554             	3.27220310e+02
555             	3.27221022e+02
556             	3.27221736e+02
557             	3.27222450e+02
558             	3.27223164e+02
559             	3.27223866e+02
560             	3.27224577e+02
561             	3.27225291e+02
562             	3.27226007e+02
563             	3.27226724e+02
564             	3.27227441e+02
565             	3.27228160e+02
566             	3.27228879e+02
567             	3.27229598e+02
568             	3.27230315e+02
569             	3.27231030e+02
570             	3.27231745e+02
571             	3.27232459e+02
572             	3.27233172e+02
573             	3.27233884e+02
574             	3.27234597e+02
575             	3.27235311e+02
576             	3.27236024e+02
577             	3.27236738e+02
578             	3.27237450e+02
579             	3.27238162e+02
580             	3.27238874e+02
581             	3.27239585e+02
582             	3.27240292e+02
583             	3.27241008e+02
584             	3.27241729e+02
585             	3.27242454e+02
586             	3.27243184e+02
587             	3.27243919e+02
588             	3.27244653e+02
589             	3.27245389e+02
590             	3.27245984e+02
591             	3.27246656e+02
592             	3.27247352e+02
593             	3.27248046e+02
594             	3.27248695e+02
595             	3.27249356e+02
596             	3.27250028e+02
597             	3.27250622e+02
598             	3.27251268e+02
599             	3.27251926e+02
600             	3.27252588e+02
601             	3.27253256e+02
602             	3.27253932e+02
603             	3.27254612e+02
604             	3.27255298e+02
605             	3.27255988e+02
606             	3.27256678e+02
607             	3.27257368e+02
608             	3.27258034e+02
609             	3.27258712e+02
610             	3.27259324e+02
611             	3.27259976e+02
612             	3.27260637e+02
613             	3.27261297e+02
614             	3.27261920e+02
615             	3.27262564e+02
616             	3.27263216e+02
617             	3.27263861e+02
618             	3.27264506e+02
619             	3.27265122e+02
620             	3.27265761e+02
621             	3.27266406e+02
