# Region        : cellZone component_4
# Cells         : 125
# Volume        : 2.10344825e-01
# Time          	volAverage(T)
1               	3.00452888e+02
2               	3.00900423e+02
3               	3.01323788e+02
4               	3.01734953e+02
5               	3.02141098e+02
6               	3.02544059e+02
7               	3.02944908e+02
8               	3.03344781e+02
9               	3.03742982e+02
10              	3.04139494e+02
11              	3.04534088e+02
12              	3.04926798e+02
13              	3.05317439e+02
14              	3.05707332e+02
15              	3.06095657e+02
16              	3.06481160e+02
17              	3.06863106e+02
18              	3.07241363e+02
19              	3.07616037e+02
20              	3.07987888e+02
21              	3.08358369e+02
22              	3.08727981e+02
23              	3.09094189e+02
24              	3.09456094e+02
25              	3.09811168e+02
26              	3.10161507e+02
27              	3.10510374e+02
28              	3.10859840e+02
29              	3.11208314e+02
30              	3.11553862e+02
31              	3.11897321e+02
32              	3.12239009e+02
33              	3.12579769e+02
34              	3.12920434e+02
35              	3.13261701e+02
36              	3.13602796e+02
37              	3.13942980e+02
38              	3.14281199e+02
39              	3.14619066e+02
40              	3.14954401e+02
41              	3.15286529e+02
42              	3.15615113e+02
43              	3.15939505e+02
44              	3.16258837e+02
45              	3.16573847e+02
46              	3.16884476e+02
47              	3.17191383e+02
48              	3.17495105e+02
49              	3.17796458e+02
50              	3.18098139e+02
51              	3.18395829e+02
52              	3.18690918e+02
53              	3.18982087e+02
54              	3.19267795e+02
55              	3.19548936e+02
56              	3.19826610e+02
57              	3.20102923e+02
58              	3.20378418e+02
59              	3.20652254e+02
60              	3.20925242e+02
61              	3.21197275e+02
62              	3.21466679e+02
63              	3.21734042e+02
64              	3.21999661e+02
65              	3.22263597e+02
66              	3.22526246e+02
67              	3.22787415e+02
68              	3.23047215e+02
69              	3.23305610e+02
70              	3.23562305e+02
71              	3.23816665e+02
72              	3.24067691e+02
73              	3.24316362e+02
74              	3.24562632e+02
75              	3.24806816e+02
76              	3.25052617e+02
77              	3.25295111e+02
78              	3.25532896e+02
79              	3.25763661e+02
80              	3.25986473e+02
81              	3.26203226e+02
82              	3.26419139e+02
83              	3.26634277e+02
84              	3.26846412e+02
85              	3.27056832e+02
86              	3.27266416e+02
87              	3.27475237e+02
88              	3.27683731e+02
89              	3.27892090e+02
90              	3.28100512e+02
91              	3.28309724e+02
92              	3.28520089e+02
93              	3.28731349e+02
94              	3.28942179e+02
95              	3.29151583e+02
96              	3.29360528e+02
97              	3.29567958e+02
98              	3.29773098e+02
99              	3.29976019e+02
100             	3.30176627e+02
101             	3.30375016e+02
102             	3.30571232e+02
103             	3.30764916e+02
104             	3.30956020e+02
105             	3.31144580e+02
106             	3.31330328e+02
107             	3.31512930e+02
108             	3.31693803e+02
109             	3.31871928e+02
110             	3.32047198e+02
111             	3.32220520e+02
112             	3.32392064e+02
113             	3.32562706e+02
114             	3.32732445e+02
115             	3.32901636e+02
116             	3.33069794e+02
117             	3.33236933e+02
118             	3.33404142e+02
119             	3.33570800e+02
120             	3.33737043e+02
121             	3.33902589e+02
122             	3.34067178e+02
123             	3.34228176e+02
124             	3.34388663e+02
125             	3.34547582e+02
126             	3.34704464e+02
127             	3.34859733e+02
128             	3.35012821e+02
129             	3.35164134e+02
130             	3.35313194e+02
131             	3.35461957e+02
132             	3.35611497e+02
133             	3.35760784e+02
134             	3.35909622e+02
135             	3.36057733e+02
136             	3.36204459e+02
137             	3.36348233e+02
138             	3.36488837e+02
139             	3.36626100e+02
140             	3.36762392e+02
141             	3.36896165e+02
142             	3.37027930e+02
143             	3.37158941e+02
144             	3.37289549e+02
145             	3.37419552e+02
146             	3.37549082e+02
147             	3.37677784e+02
148             	3.37806245e+02
149             	3.37936631e+02
150             	3.38067310e+02
151             	3.38198651e+02
152             	3.38329824e+02
153             	3.38459028e+02
154             	3.38586767e+02
155             	3.38713379e+02
156             	3.38836936e+02
157             	3.38959285e+02
158             	3.39080856e+02
159             	3.39201113e+02
160             	3.39319877e+02
161             	3.39437776e+02
162             	3.39554613e+02
163             	3.39672046e+02
164             	3.39788435e+02
165             	3.39904875e+02
166             	3.40021296e+02
167             	3.40137121e+02
168             	3.40252166e+02
169             	3.40365555e+02
170             	3.40477938e+02
171             	3.40589053e+02
172             	3.40698922e+02
173             	3.40807945e+02
174             	3.40916047e+02
175             	3.41023659e+02
176             	3.41130942e+02
177             	3.41237379e+02
178             	3.41343437e+02
179             	3.41449006e+02
180             	3.41554160e+02
181             	3.41658501e+02
182             	3.41760055e+02
183             	3.41860435e+02
184             	3.41958809e+02
185             	3.42055614e+02
186             	3.42150938e+02
187             	3.42244810e+02
188             	3.42337813e+02
189             	3.42430481e+02
190             	3.42522890e+02
191             	3.42615088e+02
192             	3.42707173e+02
193             	3.42799852e+02
194             	3.42892749e+02
195             	3.42984760e+02
196             	3.43075944e+02
197             	3.43166852e+02
198             	3.43257519e+02
199             	3.43347177e+02
200             	3.43435840e+02
201             	3.43523234e+02
202             	3.43609134e+02
203             	3.43693680e+02
204             	3.43776944e+02
205             	3.43859085e+02
206             	3.43940314e+02
207             	3.44020796e+02
208             	3.44100731e+02
209             	3.44180545e+02
210             	3.44259538e+02
211             	3.44338317e+02
212             	3.44416535e+02
213             	3.44493763e+02
214             	3.44569574e+02
215             	3.44644552e+02
216             	3.44718018e+02
217             	3.44790408e+02
218             	3.44861926e+02
219             	3.44932613e+02
220             	3.45002500e+02
221             	3.45071833e+02
222             	3.45140937e+02
223             	3.45210087e+02
224             	3.45279345e+02
225             	3.45348727e+02
226             	3.45418415e+02
227             	3.45488174e+02
228             	3.45558108e+02
229             	3.45627985e+02
230             	3.45697486e+02
231             	3.45766444e+02
232             	3.45834426e+02
233             	3.45901795e+02
234             	3.45968281e+02
235             	3.46033922e+02
236             	3.46098691e+02
237             	3.46162036e+02
238             	3.46224407e+02
239             	3.46285837e+02
240             	3.46346418e+02
241             	3.46406258e+02
242             	3.46465430e+02
243             	3.46524027e+02
244             	3.46582152e+02
245             	3.46639819e+02
246             	3.46697088e+02
247             	3.46753841e+02
248             	3.46810123e+02
249             	3.46865387e+02
250             	3.46919966e+02
251             	3.46974000e+02
252             	3.47027414e+02
253             	3.47080273e+02
254             	3.47132639e+02
255             	3.47184593e+02
256             	3.47236239e+02
257             	3.47287692e+02
258             	3.47338998e+02
259             	3.47390169e+02
260             	3.47441247e+02
261             	3.47492081e+02
262             	3.47542794e+02
263             	3.47593378e+02
264             	3.47643761e+02
265             	3.47693854e+02
266             	3.47743575e+02
267             	3.47792948e+02
268             	3.47841982e+02
269             	3.47890577e+02
270             	3.47938734e+02
271             	3.47986466e+02
272             	3.48033695e+02
273             	3.48080383e+02
274             	3.48126511e+02
275             	3.48172138e+02
276             	3.48217240e+02
277             	3.48261796e+02
278             	3.48305810e+02
279             	3.48349393e+02
280             	3.48392464e+02
281             	3.48435013e+02
282             	3.48477067e+02
283             	3.48518632e+02
284             	3.48559720e+02
285             	3.48600337e+02
286             	3.48640492e+02
287             	3.48680243e+02
288             	3.48719591e+02
289             	3.48758566e+02
290             	3.48797201e+02
291             	3.48835534e+02
292             	3.48873617e+02
293             	3.48911265e+02
294             	3.48948650e+02
295             	3.48985798e+02
296             	3.49022771e+02
297             	3.49059606e+02
298             	3.49096279e+02
299             	3.49132809e+02
300             	3.49169161e+02
301             	3.49205320e+02
302             	3.49241279e+02
303             	3.49277073e+02
304             	3.49312669e+02
305             	3.49348033e+02
306             	3.49383146e+02
307             	3.49417994e+02
308             	3.49452561e+02
309             	3.49486857e+02
310             	3.49520836e+02
311             	3.49554548e+02
312             	3.49587968e+02
313             	3.49621072e+02
314             	3.49653845e+02
315             	3.49686292e+02
316             	3.49718412e+02
317             	3.49750232e+02
318             	3.49781831e+02
319             	3.49813311e+02
320             	3.49844482e+02
321             	3.49875385e+02
322             	3.49906043e+02
323             	3.49936438e+02
324             	3.49966551e+02
325             	3.49996363e+02
326             	3.50025848e+02
327             	3.50055019e+02
328             	3.50083703e+02
329             	3.50112118e+02
330             	3.50140273e+02
331             	3.50168071e+02
332             	3.50195614e+02
333             	3.50222896e+02
334             	3.50249973e+02
335             	3.50276899e+02
336             	3.50303698e+02
337             	3.50330374e+02
338             	3.50356942e+02
339             	3.50383406e+02
340             	3.50409751e+02
341             	3.50435965e+02
342             	3.50462024e+02
343             	3.50487967e+02
344             	3.50513771e+02
345             	3.50539396e+02
346             	3.50564827e+02
347             	3.50590078e+02
348             	3.50615149e+02
349             	3.50640031e+02
350             	3.50664724e+02
351             	3.50689234e+02
352             	3.50713574e+02
353             	3.50737760e+02
354             	3.50761846e+02
355             	3.50785752e+02
356             	3.50809541e+02
357             	3.50833162e+02
358             	3.50856596e+02
359             	3.50879830e+02
360             	3.50902852e+02
361             	3.50925632e+02
362             	3.50948163e+02
363             	3.50970419e+02
364             	3.50992456e+02
365             	3.51014241e+02
366             	3.51035735e+02
367             	3.51057002e+02
368             	3.51078057e+02
369             	3.51098893e+02
370             	3.51119529e+02
371             	3.51139965e+02
372             	3.51160217e+02
373             	3.51180291e+02
374             	3.51200204e+02
375             	3.51219977e+02
376             	3.51239622e+02
377             	3.51259157e+02
378             	3.51278536e+02
379             	3.51297853e+02
380             	3.51317095e+02
381             	3.51336272e+02
382             	3.51355370e+02
383             	3.51374400e+02
384             	3.51393367e+02
385             	3.51412266e+02
386             	3.51431081e+02
387             	3.51449830e+02
388             	3.51468497e+02
389             	3.51487058e+02
390             	3.51505515e+02
391             	3.51523864e+02
392             	3.51542092e+02
393             	3.51560187e+02
394             	3.51578140e+02
395             	3.51595946e+02
396             	3.51613604e+02
397             	3.51631109e+02
398             	3.51648436e+02
399             	3.51665618e+02
400             	3.51682662e+02
401             	3.51699560e+02
402             	3.51716306e+02
403             	3.51732906e+02
404             	3.51749352e+02
405             	3.51765657e+02
406             	3.51781825e+02
407             	3.51797881e+02
408             	3.51813826e+02
409             	3.51829675e+02
410             	3.51845455e+02
411             	3.51861164e+02
412             	3.51876834e+02
413             	3.51892413e+02
414             	3.51907903e+02
415             	3.51923315e+02
416             	3.51938623e+02
417             	3.51953822e+02
418             	3.51968895e+02
419             	3.51983844e+02
420             	3.51998671e+02
421             	3.52013361e+02
422             	3.52027935e+02
423             	3.52042386e+02
424             	3.52056722e+02
425             	3.52070959e+02
426             	3.52085113e+02
427             	3.52099194e+02
428             	3.52113209e+02
429             	3.52127147e+02
430             	3.52140984e+02
431             	3.52154712e+02
432             	3.52168339e+02
433             	3.52181882e+02
434             	3.52195328e+02
435             	3.52208676e+02
436             	3.52221930e+02
437             	3.52235037e+02
438             	3.52248068e+02
439             	3.52261023e+02
440             	3.52273902e+02
441             	3.52286716e+02
442             	3.52299475e+02
443             	3.52312179e+02
444             	3.52324839e+02
445             	3.52337459e+02
446             	3.52350060e+02
447             	3.52362608e+02
448             	3.52375104e+02
449             	3.52387554e+02
450             	3.52399947e+02
451             	3.52412313e+02
452             	3.52424635e+02
453             	3.52436904e+02
454             	3.52449106e+02
455             	3.52461233e+02
456             	3.52473267e+02
457             	3.52485196e+02
458             	3.52497013e+02
459             	3.52508742e+02
460             	3.52520377e+02
461             	3.52531921e+02
462             	3.52543375e+02
463             	3.52554738e+02
464             	3.52566012e+02
465             	3.52577197e+02
466             	3.52588367e+02
467             	3.52599453e+02
468             	3.52610444e+02
469             	3.52621342e+02
470             	3.52632119e+02
471             	3.52642790e+02
472             	3.52653366e+02
473             	3.52663849e+02
474             	3.52674233e+02
475             	3.52684524e+02
476             	3.52694713e+02
477             	3.52704808e+02
478             	3.52714818e+02
479             	3.52724757e+02
480             	3.52734627e+02
481             	3.52744443e+02
482             	3.52754238e+02
483             	3.52764003e+02
484             	3.52773752e+02
485             	3.52783478e+02
486             	3.52793196e+02
487             	3.52802900e+02
488             	3.52812557e+02
489             	3.52822188e+02
490             	3.52831798e+02
491             	3.52841374e+02
492             	3.52850911e+02
493             	3.52860361e+02
494             	3.52869777e+02
495             	3.52879156e+02
496             	3.52888492e+02
497             	3.52897795e+02
498             	3.52907085e+02
499             	3.52916365e+02
500             	3.52925622e+02
501             	3.52934860e+02
502             	3.52944082e+02
503             	3.52953286e+02
504             	3.52962469e+02
505             	3.52971633e+02
506             	3.52980774e+02
507             	3.52989891e+02
508             	3.52998984e+02
509             	3.53008048e+02
510             	3.53017080e+02
511             	3.53026077e+02
512             	3.53035038e+02
513             	3.53043963e+02
514             	3.53052850e+02
515             	3.53061707e+02
516             	3.53070519e+02
517             	3.53079287e+02
518             	3.53088073e+02
519             	3.53096810e+02
520             	3.53105493e+02
521             	3.53114123e+02
522             	3.53122688e+02
523             	3.53131176e+02
524             	3.53139572e+02
525             	3.53147884e+02
526             	3.53156112e+02
527             	3.53164259e+02
528             	3.53172340e+02
529             	3.53180361e+02
530             	3.53188286e+02
531             	3.53196148e+02
532             	3.53203964e+02
533             	3.53211738e+02
534             	3.53219452e+02
535             	3.53227152e+02
536             	3.53234840e+02
537             	3.53242521e+02
538             	3.53250203e+02
539             	3.53257896e+02
540             	3.53265609e+02
541             	3.53273360e+02
542             	3.53281119e+02
543             	3.53288910e+02
544             	3.53296710e+02
545             	3.53304536e+02
546             	3.53312379e+02
547             	3.53320237e+02
548             	3.53328097e+02
549             	3.53335976e+02
550             	3.53343885e+02
551             	3.53351792e+02
552             	3.53359724e+02
553             	3.53367673e+02
554             	3.53375612e+02
555             	3.53383535e+02
556             	3.53391447e+02
557             	3.53399327e+02
558             	3.53407169e+02
559             	3.53414983e+02
560             	3.53422751e+02
561             	3.53430461e+02
562             	3.53438127e+02
563             	3.53445741e+02
564             	3.53453307e+02
565             	3.53460827e+02
566             	3.53468338e+02
567             	3.53475795e+02
568             	3.53483214e+02
569             	3.53490597e+02
570             	3.53497877e+02
571             	3.53505130e+02
572             	3.53512350e+02
573             	3.53519541e+02
574             	3.53526711e+02
575             	3.53533851e+02
576             	3.53540992e+02
577             	3.53548140e+02
578             	3.53555308e+02
579             	3.53562522e+02
580             	3.53569793e+02
581             	3.53577089e+02
582             	3.53584421e+02
583             	3.53591790e+02
584             	3.53599185e+02
585             	3.53606603e+02
586             	3.53614042e+02
587             	3.53621478e+02
588             	3.53628933e+02
589             	3.53636388e+02
590             	3.53643835e+02
591             	3.53651251e+02
592             	3.53658642e+02
593             	3.53666002e+02
594             	3.53673338e+02
595             	3.53680653e+02
596             	3.53687951e+02
597             	3.53695226e+02
598             	3.53702476e+02
599             	3.53709708e+02
600             	3.53716928e+02
601             	3.53724128e+02
602             	3.53731314e+02
603             	3.53738491e+02
604             	3.53745665e+02
605             	3.53752832e+02
606             	3.53759989e+02
607             	3.53767132e+02
608             	3.53774255e+02
609             	3.53781343e+02
610             	3.53788409e+02
611             	3.53795456e+02
612             	3.53802476e+02
613             	3.53809471e+02
614             	3.53816448e+02
615             	3.53823428e+02
616             	3.53830397e+02
617             	3.53837356e+02
618             	3.53844294e+02
619             	3.53851211e+02
620             	3.53858113e+02
621             	3.53865001e+02
