# Region        : cellZone component_0
# Cells         : 96
# Volume        : 1.62690524e-01
# Time          	volAverage(T)
1               	3.00693577e+02
2               	3.01377624e+02
3               	3.01983155e+02
4               	3.02534098e+02
5               	3.03062465e+02
6               	3.03577615e+02
7               	3.04083198e+02
8               	3.04578233e+02
9               	3.05073137e+02
10              	3.05520159e+02
11              	3.05929023e+02
12              	3.06308781e+02
13              	3.06670586e+02
14              	3.07025062e+02
15              	3.07370108e+02
16              	3.07723892e+02
17              	3.08095271e+02
18              	3.08461018e+02
19              	3.08831197e+02
20              	3.09188759e+02
21              	3.09518705e+02
22              	3.09850009e+02
23              	3.10190473e+02
24              	3.10538220e+02
25              	3.10870961e+02
26              	3.11165362e+02
27              	3.11436701e+02
28              	3.11710992e+02
29              	3.11982842e+02
30              	3.12226870e+02
31              	3.12442955e+02
32              	3.12610551e+02
33              	3.12746097e+02
34              	3.12875702e+02
35              	3.13000032e+02
36              	3.13140617e+02
37              	3.13323057e+02
38              	3.13533924e+02
39              	3.13744743e+02
40              	3.13945710e+02
41              	3.14150628e+02
42              	3.14349490e+02
43              	3.14553184e+02
44              	3.14740149e+02
45              	3.14939260e+02
46              	3.15125510e+02
47              	3.15290918e+02
48              	3.15415793e+02
49              	3.15530249e+02
50              	3.15660235e+02
51              	3.15809486e+02
52              	3.15944453e+02
53              	3.16084462e+02
54              	3.16229302e+02
55              	3.16375719e+02
56              	3.16524790e+02
57              	3.16677637e+02
58              	3.16841887e+02
59              	3.17013524e+02
60              	3.17192931e+02
61              	3.17384934e+02
62              	3.17573161e+02
63              	3.17773463e+02
64              	3.17978806e+02
65              	3.18177488e+02
66              	3.18389122e+02
67              	3.18598681e+02
68              	3.18814015e+02
69              	3.19033343e+02
70              	3.19245064e+02
71              	3.19441841e+02
72              	3.19640354e+02
73              	3.19815915e+02
74              	3.19979229e+02
75              	3.20127206e+02
76              	3.20263077e+02
77              	3.20380666e+02
78              	3.20507269e+02
79              	3.20660396e+02
80              	3.20804161e+02
81              	3.20897755e+02
82              	3.21003941e+02
83              	3.21101777e+02
84              	3.21173267e+02
85              	3.21227139e+02
86              	3.21292210e+02
87              	3.21377485e+02
88              	3.21473595e+02
89              	3.21570595e+02
90              	3.21667961e+02
91              	3.21758506e+02
92              	3.21851200e+02
93              	3.21968505e+02
94              	3.22076132e+02
95              	3.22151922e+02
96              	3.22219692e+02
97              	3.22273573e+02
98              	3.22327673e+02
99              	3.22412060e+02
100             	3.22504618e+02
101             	3.22588065e+02
102             	3.22667958e+02
103             	3.22750314e+02
104             	3.22833423e+02
105             	3.22927329e+02
106             	3.22999621e+02
107             	3.23041017e+02
108             	3.23077778e+02
109             	3.23116492e+02
110             	3.23186860e+02
111             	3.23241535e+02
112             	3.23279679e+02
113             	3.23350815e+02
114             	3.23421083e+02
115             	3.23485348e+02
116             	3.23557480e+02
117             	3.23629732e+02
118             	3.23705394e+02
119             	3.23798259e+02
120             	3.23888014e+02
121             	3.23961013e+02
122             	3.24018255e+02
123             	3.24057739e+02
124             	3.24079584e+02
125             	3.24113453e+02
126             	3.24160340e+02
127             	3.24208889e+02
128             	3.24248388e+02
129             	3.24277711e+02
130             	3.24297287e+02
131             	3.24307936e+02
132             	3.24316086e+02
133             	3.24323946e+02
134             	3.24335226e+02
135             	3.24351560e+02
136             	3.24345547e+02
137             	3.24324402e+02
138             	3.24247440e+02
139             	3.24196454e+02
140             	3.24140515e+02
141             	3.24152496e+02
142             	3.24169419e+02
143             	3.24193711e+02
144             	3.24218593e+02
145             	3.24246451e+02
146             	3.24287044e+02
147             	3.24328366e+02
148             	3.24381002e+02
149             	3.24439245e+02
150             	3.24461646e+02
151             	3.24483131e+02
152             	3.24518367e+02
153             	3.24564964e+02
154             	3.24593228e+02
155             	3.24648626e+02
156             	3.24715064e+02
157             	3.24789175e+02
158             	3.24857870e+02
159             	3.24917576e+02
160             	3.24970256e+02
161             	3.25021451e+02
162             	3.25066602e+02
163             	3.25115308e+02
164             	3.25169880e+02
165             	3.25228624e+02
166             	3.25304285e+02
167             	3.25376904e+02
168             	3.25463621e+02
169             	3.25551885e+02
170             	3.25643283e+02
171             	3.25717783e+02
172             	3.25799801e+02
173             	3.25858943e+02
174             	3.25923605e+02
175             	3.25972553e+02
176             	3.26009060e+02
177             	3.26045245e+02
178             	3.26080055e+02
179             	3.26107944e+02
180             	3.26130327e+02
181             	3.26163475e+02
182             	3.26202470e+02
183             	3.26255349e+02
184             	3.26320952e+02
185             	3.26385625e+02
186             	3.26464913e+02
187             	3.26537554e+02
188             	3.26546501e+02
189             	3.26580887e+02
190             	3.26618412e+02
191             	3.26640424e+02
192             	3.26649499e+02
193             	3.26656557e+02
194             	3.26670360e+02
195             	3.26707029e+02
196             	3.26736115e+02
197             	3.26720010e+02
198             	3.26736047e+02
199             	3.26776924e+02
200             	3.26799305e+02
201             	3.26828873e+02
202             	3.26856958e+02
203             	3.26887919e+02
204             	3.26917014e+02
205             	3.26934923e+02
206             	3.26955932e+02
207             	3.26976086e+02
208             	3.27002179e+02
209             	3.27038072e+02
210             	3.27075137e+02
211             	3.27118276e+02
212             	3.27165588e+02
213             	3.27216160e+02
214             	3.27266255e+02
215             	3.27279729e+02
216             	3.27306807e+02
217             	3.27346534e+02
218             	3.27378804e+02
219             	3.27405922e+02
220             	3.27415747e+02
221             	3.27423172e+02
222             	3.27431512e+02
223             	3.27447882e+02
224             	3.27480908e+02
225             	3.27523980e+02
226             	3.27575628e+02
227             	3.27607917e+02
228             	3.27613039e+02
229             	3.27649642e+02
230             	3.27707833e+02
231             	3.27769337e+02
232             	3.27831173e+02
233             	3.27872714e+02
234             	3.27917394e+02
235             	3.27973884e+02
236             	3.28052495e+02
237             	3.28136877e+02
238             	3.28199604e+02
239             	3.28236445e+02
240             	3.28260640e+02
241             	3.28265240e+02
242             	3.28270054e+02
243             	3.28274446e+02
244             	3.28273135e+02
245             	3.28272167e+02
246             	3.28269424e+02
247             	3.28275017e+02
248             	3.28283596e+02
249             	3.28292064e+02
250             	3.28314771e+02
251             	3.28349739e+02
252             	3.28381688e+02
253             	3.28369476e+02
254             	3.28381336e+02
255             	3.28416138e+02
256             	3.28451865e+02
257             	3.28480725e+02
258             	3.28500812e+02
259             	3.28516703e+02
260             	3.28527854e+02
261             	3.28539846e+02
262             	3.28554712e+02
263             	3.28580087e+02
264             	3.28615590e+02
265             	3.28660476e+02
266             	3.28698366e+02
267             	3.28733586e+02
268             	3.28769787e+02
269             	3.28807277e+02
270             	3.28842294e+02
271             	3.28885483e+02
272             	3.28908295e+02
273             	3.28932488e+02
274             	3.28954554e+02
275             	3.28979914e+02
276             	3.28995569e+02
277             	3.29016684e+02
278             	3.29041491e+02
279             	3.29067317e+02
280             	3.29102560e+02
281             	3.29131896e+02
282             	3.29171480e+02
283             	3.29208122e+02
284             	3.29237247e+02
285             	3.29266465e+02
286             	3.29286138e+02
287             	3.29298942e+02
288             	3.29313701e+02
289             	3.29328156e+02
290             	3.29330730e+02
291             	3.29343138e+02
292             	3.29352816e+02
293             	3.29374427e+02
294             	3.29403525e+02
295             	3.29426374e+02
296             	3.29462841e+02
297             	3.29488946e+02
298             	3.29513292e+02
299             	3.29542593e+02
300             	3.29559777e+02
301             	3.29578689e+02
302             	3.29596648e+02
303             	3.29612756e+02
304             	3.29616235e+02
305             	3.29626056e+02
306             	3.29647427e+02
307             	3.29657131e+02
308             	3.29677481e+02
309             	3.29708738e+02
310             	3.29741600e+02
311             	3.29771386e+02
312             	3.29787140e+02
313             	3.29808937e+02
314             	3.29830753e+02
315             	3.29846294e+02
316             	3.29855508e+02
317             	3.29868277e+02
318             	3.29868933e+02
319             	3.29874666e+02
320             	3.29883984e+02
321             	3.29884655e+02
322             	3.29895367e+02
323             	3.29912323e+02
324             	3.29930609e+02
325             	3.29955155e+02
326             	3.29970093e+02
327             	3.29992657e+02
328             	3.30008909e+02
329             	3.30021919e+02
330             	3.30041495e+02
331             	3.30043149e+02
332             	3.30048691e+02
333             	3.30057567e+02
334             	3.30066762e+02
335             	3.30072207e+02
336             	3.30072022e+02
337             	3.30075658e+02
338             	3.30076656e+02
339             	3.30083874e+02
340             	3.30096185e+02
341             	3.30114256e+02
342             	3.30119577e+02
343             	3.30132476e+02
344             	3.30138755e+02
345             	3.30155167e+02
346             	3.30164778e+02
347             	3.30168655e+02
348             	3.30172696e+02
349             	3.30175653e+02
350             	3.30168390e+02
351             	3.30162445e+02
352             	3.30157919e+02
353             	3.30169532e+02
354             	3.30172047e+02
355             	3.30177350e+02
356             	3.30189256e+02
357             	3.30199842e+02
358             	3.30224024e+02
359             	3.30235012e+02
360             	3.30236598e+02
361             	3.30238378e+02
362             	3.30246281e+02
363             	3.30251133e+02
364             	3.30255144e+02
365             	3.30243396e+02
366             	3.30247960e+02
367             	3.30242728e+02
368             	3.30244481e+02
369             	3.30254053e+02
370             	3.30262465e+02
371             	3.30267399e+02
372             	3.30273432e+02
373             	3.30282884e+02
374             	3.30289611e+02
375             	3.30297470e+02
376             	3.30295181e+02
377             	3.30295737e+02
378             	3.30285135e+02
379             	3.30281736e+02
380             	3.30285488e+02
381             	3.30294110e+02
382             	3.30306943e+02
383             	3.30312351e+02
384             	3.30323056e+02
385             	3.30330581e+02
386             	3.30333718e+02
387             	3.30338984e+02
388             	3.30352473e+02
389             	3.30347635e+02
390             	3.30347515e+02
391             	3.30354774e+02
392             	3.30349141e+02
393             	3.30350459e+02
394             	3.30347711e+02
395             	3.30352511e+02
396             	3.30359677e+02
397             	3.30368939e+02
398             	3.30381963e+02
399             	3.30380053e+02
400             	3.30385223e+02
401             	3.30384560e+02
402             	3.30394386e+02
403             	3.30395163e+02
404             	3.30402049e+02
405             	3.30414507e+02
406             	3.30411620e+02
407             	3.30411633e+02
408             	3.30406919e+02
409             	3.30397826e+02
410             	3.30388928e+02
411             	3.30380867e+02
412             	3.30372162e+02
413             	3.30352779e+02
414             	3.30342234e+02
415             	3.30345569e+02
416             	3.30351361e+02
417             	3.30365052e+02
418             	3.30385333e+02
419             	3.30400174e+02
420             	3.30413239e+02
421             	3.30418762e+02
422             	3.30428707e+02
423             	3.30433723e+02
424             	3.30428222e+02
425             	3.30427959e+02
426             	3.30412396e+02
427             	3.30406855e+02
428             	3.30403622e+02
429             	3.30400421e+02
430             	3.30399835e+02
431             	3.30403233e+02
432             	3.30411599e+02
433             	3.30418353e+02
434             	3.30417506e+02
435             	3.30412950e+02
436             	3.30419056e+02
437             	3.30414306e+02
438             	3.30416415e+02
439             	3.30410202e+02
440             	3.30413082e+02
441             	3.30410670e+02
442             	3.30415608e+02
443             	3.30425126e+02
444             	3.30425542e+02
445             	3.30433778e+02
446             	3.30447024e+02
447             	3.30460719e+02
448             	3.30458807e+02
449             	3.30460361e+02
450             	3.30461723e+02
451             	3.30456323e+02
452             	3.30448366e+02
453             	3.30438557e+02
454             	3.30427431e+02
455             	3.30415914e+02
456             	3.30395939e+02
457             	3.30387810e+02
458             	3.30373698e+02
459             	3.30376323e+02
460             	3.30380467e+02
461             	3.30391544e+02
462             	3.30404158e+02
463             	3.30413400e+02
464             	3.30422980e+02
465             	3.30428693e+02
466             	3.30432144e+02
467             	3.30440227e+02
468             	3.30437335e+02
469             	3.30443042e+02
470             	3.30440944e+02
471             	3.30449083e+02
472             	3.30464621e+02
473             	3.30468583e+02
474             	3.30474363e+02
475             	3.30477851e+02
476             	3.30476283e+02
477             	3.30467034e+02
478             	3.30453498e+02
479             	3.30434702e+02
480             	3.30423462e+02
481             	3.30420666e+02
482             	3.30427417e+02
483             	3.30429026e+02
484             	3.30439913e+02
485             	3.30450548e+02
486             	3.30450350e+02
487             	3.30448199e+02
488             	3.30449773e+02
489             	3.30451725e+02
490             	3.30449120e+02
491             	3.30441648e+02
492             	3.30436543e+02
493             	3.30423771e+02
494             	3.30424774e+02
495             	3.30425081e+02
496             	3.30428902e+02
497             	3.30440350e+02
498             	3.30441694e+02
499             	3.30450583e+02
500             	3.30462828e+02
501             	3.30465370e+02
502             	3.30467993e+02
503             	3.30477718e+02
504             	3.30475155e+02
505             	3.30477792e+02
506             	3.30486101e+02
507             	3.30478176e+02
508             	3.30475570e+02
509             	3.30475477e+02
510             	3.30468946e+02
511             	3.30463409e+02
512             	3.30459024e+02
513             	3.30458347e+02
514             	3.30447130e+02
515             	3.30449696e+02
516             	3.30445485e+02
517             	3.30455808e+02
518             	3.30463927e+02
519             	3.30483373e+02
520             	3.30512826e+02
521             	3.30535120e+02
522             	3.30549379e+02
523             	3.30545916e+02
524             	3.30536811e+02
525             	3.30532802e+02
526             	3.30521503e+02
527             	3.30495511e+02
528             	3.30475393e+02
529             	3.30459630e+02
530             	3.30437927e+02
531             	3.30438507e+02
532             	3.30439923e+02
533             	3.30448252e+02
534             	3.30461267e+02
535             	3.30479450e+02
536             	3.30503708e+02
537             	3.30511747e+02
538             	3.30524511e+02
539             	3.30523458e+02
540             	3.30516065e+02
541             	3.30504962e+02
542             	3.30487315e+02
543             	3.30476331e+02
544             	3.30464576e+02
545             	3.30454118e+02
546             	3.30448261e+02
547             	3.30443934e+02
548             	3.30441369e+02
549             	3.30439619e+02
550             	3.30433845e+02
551             	3.30437870e+02
552             	3.30433402e+02
553             	3.30436459e+02
554             	3.30432792e+02
555             	3.30445084e+02
556             	3.30452556e+02
557             	3.30449127e+02
558             	3.30446745e+02
559             	3.30446460e+02
560             	3.30446811e+02
561             	3.30438822e+02
562             	3.30432184e+02
563             	3.30420122e+02
564             	3.30421067e+02
565             	3.30422109e+02
566             	3.30428010e+02
567             	3.30424695e+02
568             	3.30431230e+02
569             	3.30432444e+02
570             	3.30441841e+02
571             	3.30456635e+02
572             	3.30459135e+02
573             	3.30467213e+02
574             	3.30461171e+02
575             	3.30460110e+02
576             	3.30461590e+02
577             	3.30463464e+02
578             	3.30464421e+02
579             	3.30464374e+02
580             	3.30464137e+02
581             	3.30466042e+02
582             	3.30475215e+02
583             	3.30478134e+02
584             	3.30487047e+02
585             	3.30483692e+02
586             	3.30488443e+02
587             	3.30499574e+02
588             	3.30495957e+02
589             	3.30505065e+02
590             	3.30502978e+02
591             	3.30508174e+02
592             	3.30506619e+02
593             	3.30513290e+02
594             	3.30513692e+02
595             	3.30521907e+02
596             	3.30533871e+02
597             	3.30544834e+02
598             	3.30543669e+02
599             	3.30549123e+02
600             	3.30557841e+02
601             	3.30566347e+02
602             	3.30572669e+02
603             	3.30578315e+02
604             	3.30580133e+02
605             	3.30576382e+02
606             	3.30573014e+02
607             	3.30560309e+02
608             	3.30552572e+02
609             	3.30541988e+02
610             	3.30537569e+02
611             	3.30537047e+02
612             	3.30540363e+02
613             	3.30531743e+02
614             	3.30530579e+02
615             	3.30534871e+02
616             	3.30528737e+02
617             	3.30529881e+02
618             	3.30535807e+02
619             	3.30530144e+02
620             	3.30530062e+02
621             	3.30533506e+02
