# Region        : cellZone component_4
# Cells         : 95
# Volume        : 1.52950295e-01
# Time          	volAverage(T)
1               	3.00447189e+02
2               	3.00885654e+02
3               	3.01282599e+02
4               	3.01655977e+02
5               	3.02019387e+02
6               	3.02377382e+02
7               	3.02729969e+02
8               	3.03077369e+02
9               	3.03422229e+02
10              	3.03763678e+02
11              	3.04104119e+02
12              	3.04439851e+02
13              	3.04770583e+02
14              	3.05096518e+02
15              	3.05415420e+02
16              	3.05724958e+02
17              	3.06019716e+02
18              	3.06304813e+02
19              	3.06574068e+02
20              	3.06837746e+02
21              	3.07118374e+02
22              	3.07391699e+02
23              	3.07657134e+02
24              	3.07916547e+02
25              	3.08171574e+02
26              	3.08422583e+02
27              	3.08670133e+02
28              	3.08912239e+02
29              	3.09150156e+02
30              	3.09368467e+02
31              	3.09564692e+02
32              	3.09747028e+02
33              	3.09912834e+02
34              	3.10058553e+02
35              	3.10189518e+02
36              	3.10330542e+02
37              	3.10487106e+02
38              	3.10652471e+02
39              	3.10826030e+02
40              	3.11004714e+02
41              	3.11186661e+02
42              	3.11370729e+02
43              	3.11554614e+02
44              	3.11737529e+02
45              	3.11914943e+02
46              	3.12086578e+02
47              	3.12252878e+02
48              	3.12411513e+02
49              	3.12566343e+02
50              	3.12717070e+02
51              	3.12867501e+02
52              	3.13020059e+02
53              	3.13171734e+02
54              	3.13331305e+02
55              	3.13486244e+02
56              	3.13620502e+02
57              	3.13730826e+02
58              	3.13824448e+02
59              	3.13898552e+02
60              	3.13949869e+02
61              	3.14013279e+02
62              	3.14106239e+02
63              	3.14204104e+02
64              	3.14295737e+02
65              	3.14383489e+02
66              	3.14469617e+02
67              	3.14557349e+02
68              	3.14653701e+02
69              	3.14750839e+02
70              	3.14851927e+02
71              	3.14964993e+02
72              	3.15068893e+02
73              	3.15146888e+02
74              	3.15210192e+02
75              	3.15259486e+02
76              	3.15307492e+02
77              	3.15358122e+02
78              	3.15411617e+02
79              	3.15469249e+02
80              	3.15541734e+02
81              	3.15623180e+02
82              	3.15699838e+02
83              	3.15779356e+02
84              	3.15856815e+02
85              	3.15936297e+02
86              	3.16019939e+02
87              	3.16094048e+02
88              	3.16152454e+02
89              	3.16198136e+02
90              	3.16231229e+02
91              	3.16260442e+02
92              	3.16305578e+02
93              	3.16365826e+02
94              	3.16424134e+02
95              	3.16475375e+02
96              	3.16502434e+02
97              	3.16517246e+02
98              	3.16542994e+02
99              	3.16575698e+02
100             	3.16595415e+02
101             	3.16611333e+02
102             	3.16624538e+02
103             	3.16645935e+02
104             	3.16676385e+02
105             	3.16703298e+02
106             	3.16735930e+02
107             	3.16770672e+02
108             	3.16815609e+02
109             	3.16866864e+02
110             	3.16922038e+02
111             	3.16966949e+02
112             	3.17000895e+02
113             	3.17023273e+02
114             	3.17040949e+02
115             	3.17054719e+02
116             	3.17066249e+02
117             	3.17088348e+02
118             	3.17119624e+02
119             	3.17145755e+02
120             	3.17136515e+02
121             	3.17111638e+02
122             	3.17091074e+02
123             	3.17082903e+02
124             	3.17081335e+02
125             	3.17081858e+02
126             	3.17075116e+02
127             	3.17059757e+02
128             	3.17038020e+02
129             	3.17018890e+02
130             	3.17006594e+02
131             	3.17002331e+02
132             	3.17004909e+02
133             	3.17016218e+02
134             	3.17032177e+02
135             	3.17053020e+02
136             	3.17072777e+02
137             	3.17093120e+02
138             	3.17104990e+02
139             	3.17107681e+02
140             	3.17103896e+02
141             	3.17098055e+02
142             	3.17093452e+02
143             	3.17094130e+02
144             	3.17101802e+02
145             	3.17115062e+02
146             	3.17134974e+02
147             	3.17160243e+02
148             	3.17191169e+02
149             	3.17223674e+02
150             	3.17253747e+02
151             	3.17278569e+02
152             	3.17303533e+02
153             	3.17323090e+02
154             	3.17338160e+02
155             	3.17349755e+02
156             	3.17358266e+02
157             	3.17364656e+02
158             	3.17371086e+02
159             	3.17381425e+02
160             	3.17397212e+02
161             	3.17418776e+02
162             	3.17445031e+02
163             	3.17474331e+02
164             	3.17501943e+02
165             	3.17530162e+02
166             	3.17553863e+02
167             	3.17575578e+02
168             	3.17594333e+02
169             	3.17609314e+02
170             	3.17621492e+02
171             	3.17632758e+02
172             	3.17644244e+02
173             	3.17657117e+02
174             	3.17671724e+02
175             	3.17688354e+02
176             	3.17707493e+02
177             	3.17729333e+02
178             	3.17753069e+02
179             	3.17776374e+02
180             	3.17799375e+02
181             	3.17821184e+02
182             	3.17839799e+02
183             	3.17857249e+02
184             	3.17872784e+02
185             	3.17885694e+02
186             	3.17897874e+02
187             	3.17908379e+02
188             	3.17917553e+02
189             	3.17926205e+02
190             	3.17934705e+02
191             	3.17944090e+02
192             	3.17954714e+02
193             	3.17966477e+02
194             	3.17979255e+02
195             	3.17992579e+02
196             	3.18006359e+02
197             	3.18019695e+02
198             	3.18032032e+02
199             	3.18043287e+02
200             	3.18053847e+02
201             	3.18064073e+02
202             	3.18073900e+02
203             	3.18083807e+02
204             	3.18093834e+02
205             	3.18103762e+02
206             	3.18112433e+02
207             	3.18121244e+02
208             	3.18129096e+02
209             	3.18135607e+02
210             	3.18140736e+02
211             	3.18145809e+02
212             	3.18151537e+02
213             	3.18158284e+02
214             	3.18165994e+02
215             	3.18175342e+02
216             	3.18185419e+02
217             	3.18195669e+02
218             	3.18205515e+02
219             	3.18214638e+02
220             	3.18222691e+02
221             	3.18229542e+02
222             	3.18235521e+02
223             	3.18240613e+02
224             	3.18245245e+02
225             	3.18249395e+02
226             	3.18253692e+02
227             	3.18258042e+02
228             	3.18263522e+02
229             	3.18269364e+02
230             	3.18275783e+02
231             	3.18282773e+02
232             	3.18290156e+02
233             	3.18298042e+02
234             	3.18306076e+02
235             	3.18313250e+02
236             	3.18318779e+02
237             	3.18324099e+02
238             	3.18328839e+02
239             	3.18332990e+02
240             	3.18336626e+02
241             	3.18340151e+02
242             	3.18344022e+02
243             	3.18347867e+02
244             	3.18351901e+02
245             	3.18356494e+02
246             	3.18361763e+02
247             	3.18367397e+02
248             	3.18372846e+02
249             	3.18378493e+02
250             	3.18383693e+02
251             	3.18388606e+02
252             	3.18393070e+02
253             	3.18397037e+02
254             	3.18400666e+02
255             	3.18403997e+02
256             	3.18407659e+02
257             	3.18411201e+02
258             	3.18414878e+02
259             	3.18418880e+02
260             	3.18423234e+02
261             	3.18427837e+02
262             	3.18432582e+02
263             	3.18437028e+02
264             	3.18441462e+02
265             	3.18445394e+02
266             	3.18449034e+02
267             	3.18452190e+02
268             	3.18454907e+02
269             	3.18457497e+02
270             	3.18459810e+02
271             	3.18462191e+02
272             	3.18464869e+02
273             	3.18467832e+02
274             	3.18471056e+02
275             	3.18474649e+02
276             	3.18478443e+02
277             	3.18482243e+02
278             	3.18485958e+02
279             	3.18489584e+02
280             	3.18492908e+02
281             	3.18495752e+02
282             	3.18498252e+02
283             	3.18500525e+02
284             	3.18502561e+02
285             	3.18504502e+02
286             	3.18506484e+02
287             	3.18508565e+02
288             	3.18510835e+02
289             	3.18513139e+02
290             	3.18515702e+02
291             	3.18518231e+02
292             	3.18520827e+02
293             	3.18523430e+02
294             	3.18525890e+02
295             	3.18528307e+02
296             	3.18530313e+02
297             	3.18532181e+02
298             	3.18533819e+02
299             	3.18535178e+02
300             	3.18536282e+02
301             	3.18537325e+02
302             	3.18538513e+02
303             	3.18539638e+02
304             	3.18540888e+02
305             	3.18542364e+02
306             	3.18544022e+02
307             	3.18545829e+02
308             	3.18547668e+02
309             	3.18549506e+02
310             	3.18551219e+02
311             	3.18552413e+02
312             	3.18553518e+02
313             	3.18554395e+02
314             	3.18555008e+02
315             	3.18555407e+02
316             	3.18555694e+02
317             	3.18555992e+02
318             	3.18556414e+02
319             	3.18556999e+02
320             	3.18557719e+02
321             	3.18558556e+02
322             	3.18559540e+02
323             	3.18560577e+02
324             	3.18561548e+02
325             	3.18562431e+02
326             	3.18563187e+02
327             	3.18563867e+02
328             	3.18564449e+02
329             	3.18564860e+02
330             	3.18565281e+02
331             	3.18565673e+02
332             	3.18566003e+02
333             	3.18566261e+02
334             	3.18566505e+02
335             	3.18566753e+02
336             	3.18567229e+02
337             	3.18567689e+02
338             	3.18568259e+02
339             	3.18569044e+02
340             	3.18569985e+02
341             	3.18570990e+02
342             	3.18572006e+02
343             	3.18572982e+02
344             	3.18573921e+02
345             	3.18574626e+02
346             	3.18575233e+02
347             	3.18575690e+02
348             	3.18575997e+02
349             	3.18576215e+02
350             	3.18576443e+02
351             	3.18576727e+02
352             	3.18577093e+02
353             	3.18577626e+02
354             	3.18578218e+02
355             	3.18579010e+02
356             	3.18579873e+02
357             	3.18580731e+02
358             	3.18581662e+02
359             	3.18582588e+02
360             	3.18583437e+02
361             	3.18584176e+02
362             	3.18584804e+02
363             	3.18585297e+02
364             	3.18585682e+02
365             	3.18586002e+02
366             	3.18586293e+02
367             	3.18586645e+02
368             	3.18587107e+02
369             	3.18587647e+02
370             	3.18588273e+02
371             	3.18589000e+02
372             	3.18589822e+02
373             	3.18590692e+02
374             	3.18591562e+02
375             	3.18592330e+02
376             	3.18593018e+02
377             	3.18593607e+02
378             	3.18594070e+02
379             	3.18594419e+02
380             	3.18594727e+02
381             	3.18595092e+02
382             	3.18595404e+02
383             	3.18595767e+02
384             	3.18596226e+02
385             	3.18596771e+02
386             	3.18597412e+02
387             	3.18598078e+02
388             	3.18598743e+02
389             	3.18599407e+02
390             	3.18600043e+02
391             	3.18600626e+02
392             	3.18601129e+02
393             	3.18601586e+02
394             	3.18602005e+02
395             	3.18602363e+02
396             	3.18602673e+02
397             	3.18602964e+02
398             	3.18603249e+02
399             	3.18603550e+02
400             	3.18603894e+02
401             	3.18604293e+02
402             	3.18604739e+02
403             	3.18605215e+02
404             	3.18605714e+02
405             	3.18606214e+02
406             	3.18606701e+02
407             	3.18607161e+02
408             	3.18607601e+02
409             	3.18608035e+02
410             	3.18608451e+02
411             	3.18608842e+02
412             	3.18609232e+02
413             	3.18609618e+02
414             	3.18609939e+02
415             	3.18610260e+02
416             	3.18610570e+02
417             	3.18610880e+02
418             	3.18611201e+02
419             	3.18611507e+02
420             	3.18611826e+02
421             	3.18612187e+02
422             	3.18612589e+02
423             	3.18613013e+02
424             	3.18613448e+02
425             	3.18613890e+02
426             	3.18614336e+02
427             	3.18614770e+02
428             	3.18615173e+02
429             	3.18615529e+02
430             	3.18615860e+02
431             	3.18616171e+02
432             	3.18616454e+02
433             	3.18616714e+02
434             	3.18616964e+02
435             	3.18617210e+02
436             	3.18617453e+02
437             	3.18617740e+02
438             	3.18618030e+02
439             	3.18618336e+02
440             	3.18618662e+02
441             	3.18619003e+02
442             	3.18619348e+02
443             	3.18619687e+02
444             	3.18620014e+02
445             	3.18620334e+02
446             	3.18620637e+02
447             	3.18620913e+02
448             	3.18621168e+02
449             	3.18621409e+02
450             	3.18621647e+02
451             	3.18621897e+02
452             	3.18622154e+02
453             	3.18622427e+02
454             	3.18622704e+02
455             	3.18622986e+02
456             	3.18623267e+02
457             	3.18623543e+02
458             	3.18623800e+02
459             	3.18624041e+02
460             	3.18624265e+02
461             	3.18624473e+02
462             	3.18624668e+02
463             	3.18624850e+02
464             	3.18625030e+02
465             	3.18625219e+02
466             	3.18625401e+02
467             	3.18625586e+02
468             	3.18625781e+02
469             	3.18625984e+02
470             	3.18626187e+02
471             	3.18626394e+02
472             	3.18626595e+02
473             	3.18626797e+02
474             	3.18626989e+02
475             	3.18627171e+02
476             	3.18627346e+02
477             	3.18627515e+02
478             	3.18627677e+02
479             	3.18627840e+02
480             	3.18628002e+02
481             	3.18628166e+02
482             	3.18628336e+02
483             	3.18628514e+02
484             	3.18628694e+02
485             	3.18628879e+02
486             	3.18629065e+02
487             	3.18629252e+02
488             	3.18629436e+02
489             	3.18629617e+02
490             	3.18629793e+02
491             	3.18629962e+02
492             	3.18630126e+02
493             	3.18630285e+02
494             	3.18630441e+02
495             	3.18630594e+02
496             	3.18630745e+02
497             	3.18630895e+02
498             	3.18631040e+02
499             	3.18631186e+02
500             	3.18631329e+02
501             	3.18631472e+02
502             	3.18631612e+02
503             	3.18631750e+02
504             	3.18631889e+02
505             	3.18632027e+02
506             	3.18632164e+02
507             	3.18632300e+02
508             	3.18632436e+02
509             	3.18632570e+02
510             	3.18632700e+02
511             	3.18632828e+02
512             	3.18632956e+02
513             	3.18633081e+02
514             	3.18633204e+02
515             	3.18633327e+02
516             	3.18633450e+02
517             	3.18633573e+02
518             	3.18633697e+02
519             	3.18633821e+02
520             	3.18633946e+02
521             	3.18634070e+02
522             	3.18634194e+02
523             	3.18634317e+02
524             	3.18634438e+02
525             	3.18634558e+02
526             	3.18634675e+02
527             	3.18634789e+02
528             	3.18634899e+02
529             	3.18635008e+02
530             	3.18635119e+02
531             	3.18635229e+02
532             	3.18635339e+02
533             	3.18635451e+02
534             	3.18635564e+02
535             	3.18635678e+02
536             	3.18635792e+02
537             	3.18635905e+02
538             	3.18636017e+02
539             	3.18636127e+02
540             	3.18636237e+02
541             	3.18636344e+02
542             	3.18636449e+02
543             	3.18636553e+02
544             	3.18636654e+02
545             	3.18636754e+02
546             	3.18636853e+02
547             	3.18636952e+02
548             	3.18637050e+02
549             	3.18637147e+02
550             	3.18637245e+02
551             	3.18637342e+02
552             	3.18637438e+02
553             	3.18637534e+02
554             	3.18637628e+02
555             	3.18637721e+02
556             	3.18637813e+02
557             	3.18637903e+02
558             	3.18637992e+02
559             	3.18638079e+02
560             	3.18638166e+02
561             	3.18638253e+02
562             	3.18638339e+02
563             	3.18638423e+02
564             	3.18638508e+02
565             	3.18638591e+02
566             	3.18638674e+02
567             	3.18638757e+02
568             	3.18638838e+02
569             	3.18638920e+02
570             	3.18639002e+02
571             	3.18639083e+02
572             	3.18639164e+02
573             	3.18639244e+02
574             	3.18639323e+02
575             	3.18639403e+02
576             	3.18639482e+02
577             	3.18639561e+02
578             	3.18639640e+02
579             	3.18639720e+02
580             	3.18639801e+02
581             	3.18639880e+02
582             	3.18639959e+02
583             	3.18640035e+02
584             	3.18640112e+02
585             	3.18640188e+02
586             	3.18640261e+02
587             	3.18640333e+02
588             	3.18640404e+02
589             	3.18640476e+02
590             	3.18640549e+02
591             	3.18640620e+02
592             	3.18640692e+02
593             	3.18640765e+02
594             	3.18640839e+02
595             	3.18640912e+02
596             	3.18640984e+02
597             	3.18641055e+02
598             	3.18641124e+02
599             	3.18641193e+02
600             	3.18641260e+02
601             	3.18641327e+02
602             	3.18641392e+02
603             	3.18641456e+02
604             	3.18641521e+02
605             	3.18641586e+02
606             	3.18641651e+02
607             	3.18641717e+02
608             	3.18641783e+02
609             	3.18641849e+02
610             	3.18641916e+02
611             	3.18641981e+02
612             	3.18642046e+02
613             	3.18642111e+02
614             	3.18642175e+02
615             	3.18642238e+02
616             	3.18642300e+02
617             	3.18642361e+02
618             	3.18642421e+02
619             	3.18642480e+02
620             	3.18642539e+02
621             	3.18642597e+02
