# Region        : cellZone component_1
# Cells         : 262
# Volume        : 5.20633816e-01
# Time          	volAverage(T)
1               	3.00105279e+02
2               	3.00209478e+02
3               	3.00308579e+02
4               	3.00404095e+02
5               	3.00497626e+02
6               	3.00589647e+02
7               	3.00680415e+02
8               	3.00770341e+02
9               	3.00859815e+02
10              	3.00948577e+02
11              	3.01036366e+02
12              	3.01123694e+02
13              	3.01209672e+02
14              	3.01294715e+02
15              	3.01379171e+02
16              	3.01462474e+02
17              	3.01544451e+02
18              	3.01625175e+02
19              	3.01704441e+02
20              	3.01782827e+02
21              	3.01860154e+02
22              	3.01937032e+02
23              	3.02013627e+02
24              	3.02090529e+02
25              	3.02166305e+02
26              	3.02241532e+02
27              	3.02315597e+02
28              	3.02388798e+02
29              	3.02461039e+02
30              	3.02532153e+02
31              	3.02602256e+02
32              	3.02671313e+02
33              	3.02739107e+02
34              	3.02806399e+02
35              	3.02872837e+02
36              	3.02938349e+02
37              	3.03003727e+02
38              	3.03068962e+02
39              	3.03134715e+02
40              	3.03200302e+02
41              	3.03265429e+02
42              	3.03330439e+02
43              	3.03394761e+02
44              	3.03457814e+02
45              	3.03519215e+02
46              	3.03579375e+02
47              	3.03638115e+02
48              	3.03696111e+02
49              	3.03753706e+02
50              	3.03811188e+02
51              	3.03868912e+02
52              	3.03926852e+02
53              	3.03984494e+02
54              	3.04041325e+02
55              	3.04097283e+02
56              	3.04152095e+02
57              	3.04204950e+02
58              	3.04257294e+02
59              	3.04308679e+02
60              	3.04359284e+02
61              	3.04409128e+02
62              	3.04459065e+02
63              	3.04508770e+02
64              	3.04558373e+02
65              	3.04607562e+02
66              	3.04656614e+02
67              	3.04705239e+02
68              	3.04753142e+02
69              	3.04800511e+02
70              	3.04847241e+02
71              	3.04893744e+02
72              	3.04939553e+02
73              	3.04984699e+02
74              	3.05029457e+02
75              	3.05073954e+02
76              	3.05117980e+02
77              	3.05161482e+02
78              	3.05204550e+02
79              	3.05246726e+02
80              	3.05288611e+02
81              	3.05329723e+02
82              	3.05370692e+02
83              	3.05411093e+02
84              	3.05451365e+02
85              	3.05491342e+02
86              	3.05530812e+02
87              	3.05569953e+02
88              	3.05608766e+02
89              	3.05647175e+02
90              	3.05684961e+02
91              	3.05722574e+02
92              	3.05759456e+02
93              	3.05796139e+02
94              	3.05832516e+02
95              	3.05868296e+02
96              	3.05903681e+02
97              	3.05938635e+02
98              	3.05973124e+02
99              	3.06007154e+02
100             	3.06040787e+02
101             	3.06074219e+02
102             	3.06107183e+02
103             	3.06140266e+02
104             	3.06173359e+02
105             	3.06206086e+02
106             	3.06238820e+02
107             	3.06271375e+02
108             	3.06303799e+02
109             	3.06335827e+02
110             	3.06367073e+02
111             	3.06398095e+02
112             	3.06428719e+02
113             	3.06458808e+02
114             	3.06488395e+02
115             	3.06517551e+02
116             	3.06546262e+02
117             	3.06574776e+02
118             	3.06602641e+02
119             	3.06630476e+02
120             	3.06658538e+02
121             	3.06686297e+02
122             	3.06713967e+02
123             	3.06741139e+02
124             	3.06767928e+02
125             	3.06794394e+02
126             	3.06820586e+02
127             	3.06846311e+02
128             	3.06871532e+02
129             	3.06896348e+02
130             	3.06920956e+02
131             	3.06945321e+02
132             	3.06969409e+02
133             	3.06993451e+02
134             	3.07017536e+02
135             	3.07041077e+02
136             	3.07064757e+02
137             	3.07088330e+02
138             	3.07111784e+02
139             	3.07134923e+02
140             	3.07157399e+02
141             	3.07179837e+02
142             	3.07202371e+02
143             	3.07224635e+02
144             	3.07246598e+02
145             	3.07268004e+02
146             	3.07288755e+02
147             	3.07309629e+02
148             	3.07330237e+02
149             	3.07350735e+02
150             	3.07370992e+02
151             	3.07390917e+02
152             	3.07410445e+02
153             	3.07429654e+02
154             	3.07448716e+02
155             	3.07467532e+02
156             	3.07486221e+02
157             	3.07505017e+02
158             	3.07523586e+02
159             	3.07542080e+02
160             	3.07560009e+02
161             	3.07578216e+02
162             	3.07596423e+02
163             	3.07614549e+02
164             	3.07632032e+02
165             	3.07649169e+02
166             	3.07666022e+02
167             	3.07682589e+02
168             	3.07699038e+02
169             	3.07715271e+02
170             	3.07731171e+02
171             	3.07746872e+02
172             	3.07762420e+02
173             	3.07777697e+02
174             	3.07792938e+02
175             	3.07808259e+02
176             	3.07823532e+02
177             	3.07838789e+02
178             	3.07854023e+02
179             	3.07869212e+02
180             	3.07884239e+02
181             	3.07898632e+02
182             	3.07913032e+02
183             	3.07927364e+02
184             	3.07941581e+02
185             	3.07955640e+02
186             	3.07969400e+02
187             	3.07982962e+02
188             	3.07996357e+02
189             	3.08009513e+02
190             	3.08022461e+02
191             	3.08035362e+02
192             	3.08048167e+02
193             	3.08060882e+02
194             	3.08073549e+02
195             	3.08086171e+02
196             	3.08098717e+02
197             	3.08110952e+02
198             	3.08122832e+02
199             	3.08134746e+02
200             	3.08146453e+02
201             	3.08158109e+02
202             	3.08169599e+02
203             	3.08180874e+02
204             	3.08191947e+02
205             	3.08202928e+02
206             	3.08213825e+02
207             	3.08224633e+02
208             	3.08235413e+02
209             	3.08246191e+02
210             	3.08256923e+02
211             	3.08267257e+02
212             	3.08277590e+02
213             	3.08287973e+02
214             	3.08298070e+02
215             	3.08308133e+02
216             	3.08318081e+02
217             	3.08327883e+02
218             	3.08337626e+02
219             	3.08347252e+02
220             	3.08356707e+02
221             	3.08366047e+02
222             	3.08375254e+02
223             	3.08384397e+02
224             	3.08393317e+02
225             	3.08402127e+02
226             	3.08410835e+02
227             	3.08419490e+02
228             	3.08428064e+02
229             	3.08436581e+02
230             	3.08445050e+02
231             	3.08453449e+02
232             	3.08461793e+02
233             	3.08470080e+02
234             	3.08478323e+02
235             	3.08486529e+02
236             	3.08494695e+02
237             	3.08502807e+02
238             	3.08510845e+02
239             	3.08518783e+02
240             	3.08526468e+02
241             	3.08534180e+02
242             	3.08541798e+02
243             	3.08549195e+02
244             	3.08556659e+02
245             	3.08564046e+02
246             	3.08571359e+02
247             	3.08578563e+02
248             	3.08585664e+02
249             	3.08592676e+02
250             	3.08599607e+02
251             	3.08606502e+02
252             	3.08613353e+02
253             	3.08620098e+02
254             	3.08626867e+02
255             	3.08633614e+02
256             	3.08640306e+02
257             	3.08646919e+02
258             	3.08653296e+02
259             	3.08659679e+02
260             	3.08666038e+02
261             	3.08672310e+02
262             	3.08678487e+02
263             	3.08684560e+02
264             	3.08690561e+02
265             	3.08696423e+02
266             	3.08702219e+02
267             	3.08707949e+02
268             	3.08713764e+02
269             	3.08719375e+02
270             	3.08724949e+02
271             	3.08730463e+02
272             	3.08736015e+02
273             	3.08741395e+02
274             	3.08746830e+02
275             	3.08752231e+02
276             	3.08757581e+02
277             	3.08762814e+02
278             	3.08767985e+02
279             	3.08773133e+02
280             	3.08778210e+02
281             	3.08783188e+02
282             	3.08788048e+02
283             	3.08792833e+02
284             	3.08797532e+02
285             	3.08802217e+02
286             	3.08806940e+02
287             	3.08811664e+02
288             	3.08816379e+02
289             	3.08821071e+02
290             	3.08825744e+02
291             	3.08830387e+02
292             	3.08834996e+02
293             	3.08839546e+02
294             	3.08843989e+02
295             	3.08848358e+02
296             	3.08852718e+02
297             	3.08857016e+02
298             	3.08861245e+02
299             	3.08865383e+02
300             	3.08869443e+02
301             	3.08873456e+02
302             	3.08877384e+02
303             	3.08881269e+02
304             	3.08885142e+02
305             	3.08889011e+02
306             	3.08892861e+02
307             	3.08896695e+02
308             	3.08900534e+02
309             	3.08904306e+02
310             	3.08908075e+02
311             	3.08911785e+02
312             	3.08915431e+02
313             	3.08919047e+02
314             	3.08922557e+02
315             	3.08926010e+02
316             	3.08929434e+02
317             	3.08932803e+02
318             	3.08936160e+02
319             	3.08939439e+02
320             	3.08942746e+02
321             	3.08945967e+02
322             	3.08949148e+02
323             	3.08952311e+02
324             	3.08955366e+02
325             	3.08958408e+02
326             	3.08961430e+02
327             	3.08964428e+02
328             	3.08967429e+02
329             	3.08970430e+02
330             	3.08973378e+02
331             	3.08976334e+02
332             	3.08979290e+02
333             	3.08982251e+02
334             	3.08985174e+02
335             	3.08987970e+02
336             	3.08990744e+02
337             	3.08993506e+02
338             	3.08996232e+02
339             	3.08998918e+02
340             	3.09001554e+02
341             	3.09004150e+02
342             	3.09006722e+02
343             	3.09009275e+02
344             	3.09011791e+02
345             	3.09014290e+02
346             	3.09016747e+02
347             	3.09019172e+02
348             	3.09021554e+02
349             	3.09023965e+02
350             	3.09026351e+02
351             	3.09028738e+02
352             	3.09031107e+02
353             	3.09033461e+02
354             	3.09035808e+02
355             	3.09038147e+02
356             	3.09040485e+02
357             	3.09042811e+02
358             	3.09045075e+02
359             	3.09047278e+02
360             	3.09049480e+02
361             	3.09051659e+02
362             	3.09053799e+02
363             	3.09055900e+02
364             	3.09057958e+02
365             	3.09059990e+02
366             	3.09061985e+02
367             	3.09063998e+02
368             	3.09066008e+02
369             	3.09067996e+02
370             	3.09069944e+02
371             	3.09071878e+02
372             	3.09073804e+02
373             	3.09075730e+02
374             	3.09077630e+02
375             	3.09079526e+02
376             	3.09081395e+02
377             	3.09083232e+02
378             	3.09085054e+02
379             	3.09086851e+02
380             	3.09088624e+02
381             	3.09090370e+02
382             	3.09092087e+02
383             	3.09093771e+02
384             	3.09095439e+02
385             	3.09097087e+02
386             	3.09098714e+02
387             	3.09100321e+02
388             	3.09101894e+02
389             	3.09103455e+02
390             	3.09105010e+02
391             	3.09106571e+02
392             	3.09108120e+02
393             	3.09109663e+02
394             	3.09111204e+02
395             	3.09112742e+02
396             	3.09114227e+02
397             	3.09115685e+02
398             	3.09117138e+02
399             	3.09118565e+02
400             	3.09119982e+02
401             	3.09121359e+02
402             	3.09122723e+02
403             	3.09124069e+02
404             	3.09125420e+02
405             	3.09126782e+02
406             	3.09128089e+02
407             	3.09129391e+02
408             	3.09130687e+02
409             	3.09131971e+02
410             	3.09133247e+02
411             	3.09134517e+02
412             	3.09135759e+02
413             	3.09137001e+02
414             	3.09138231e+02
415             	3.09139445e+02
416             	3.09140663e+02
417             	3.09141870e+02
418             	3.09143055e+02
419             	3.09144215e+02
420             	3.09145361e+02
421             	3.09146487e+02
422             	3.09147594e+02
423             	3.09148693e+02
424             	3.09149772e+02
425             	3.09150856e+02
426             	3.09151936e+02
427             	3.09153014e+02
428             	3.09154080e+02
429             	3.09155143e+02
430             	3.09156185e+02
431             	3.09157227e+02
432             	3.09158246e+02
433             	3.09159261e+02
434             	3.09160259e+02
435             	3.09161239e+02
436             	3.09162215e+02
437             	3.09163182e+02
438             	3.09164133e+02
439             	3.09165075e+02
440             	3.09166002e+02
441             	3.09166916e+02
442             	3.09167813e+02
443             	3.09168708e+02
444             	3.09169597e+02
445             	3.09170467e+02
446             	3.09171321e+02
447             	3.09172166e+02
448             	3.09173003e+02
449             	3.09173826e+02
450             	3.09174645e+02
451             	3.09175463e+02
452             	3.09176278e+02
453             	3.09177086e+02
454             	3.09177885e+02
455             	3.09178675e+02
456             	3.09179455e+02
457             	3.09180226e+02
458             	3.09180987e+02
459             	3.09181744e+02
460             	3.09182481e+02
461             	3.09183219e+02
462             	3.09183947e+02
463             	3.09184677e+02
464             	3.09185399e+02
465             	3.09186107e+02
466             	3.09186803e+02
467             	3.09187489e+02
468             	3.09188171e+02
469             	3.09188850e+02
470             	3.09189518e+02
471             	3.09190182e+02
472             	3.09190839e+02
473             	3.09191488e+02
474             	3.09192128e+02
475             	3.09192764e+02
476             	3.09193393e+02
477             	3.09194017e+02
478             	3.09194634e+02
479             	3.09195251e+02
480             	3.09195869e+02
481             	3.09196481e+02
482             	3.09197082e+02
483             	3.09197678e+02
484             	3.09198267e+02
485             	3.09198843e+02
486             	3.09199405e+02
487             	3.09199963e+02
488             	3.09200514e+02
489             	3.09201059e+02
490             	3.09201596e+02
491             	3.09202136e+02
492             	3.09202670e+02
493             	3.09203195e+02
494             	3.09203712e+02
495             	3.09204228e+02
496             	3.09204737e+02
497             	3.09205241e+02
498             	3.09205737e+02
499             	3.09206238e+02
500             	3.09206738e+02
501             	3.09207233e+02
502             	3.09207719e+02
503             	3.09208203e+02
504             	3.09208674e+02
505             	3.09209138e+02
506             	3.09209588e+02
507             	3.09210032e+02
508             	3.09210471e+02
509             	3.09210906e+02
510             	3.09211338e+02
511             	3.09211774e+02
512             	3.09212207e+02
513             	3.09212634e+02
514             	3.09213055e+02
515             	3.09213473e+02
516             	3.09213886e+02
517             	3.09214293e+02
518             	3.09214696e+02
519             	3.09215101e+02
520             	3.09215501e+02
521             	3.09215895e+02
522             	3.09216285e+02
523             	3.09216674e+02
524             	3.09217055e+02
525             	3.09217423e+02
526             	3.09217781e+02
527             	3.09218140e+02
528             	3.09218497e+02
529             	3.09218850e+02
530             	3.09219201e+02
531             	3.09219558e+02
532             	3.09219915e+02
533             	3.09220266e+02
534             	3.09220613e+02
535             	3.09220956e+02
536             	3.09221283e+02
537             	3.09221610e+02
538             	3.09221932e+02
539             	3.09222255e+02
540             	3.09222576e+02
541             	3.09222888e+02
542             	3.09223197e+02
543             	3.09223509e+02
544             	3.09223816e+02
545             	3.09224117e+02
546             	3.09224411e+02
547             	3.09224707e+02
548             	3.09225001e+02
549             	3.09225295e+02
550             	3.09225586e+02
551             	3.09225875e+02
552             	3.09226164e+02
553             	3.09226451e+02
554             	3.09226731e+02
555             	3.09227006e+02
556             	3.09227273e+02
557             	3.09227535e+02
558             	3.09227793e+02
559             	3.09228053e+02
560             	3.09228311e+02
561             	3.09228566e+02
562             	3.09228818e+02
563             	3.09229071e+02
564             	3.09229319e+02
565             	3.09229561e+02
566             	3.09229797e+02
567             	3.09230033e+02
568             	3.09230266e+02
569             	3.09230500e+02
570             	3.09230733e+02
571             	3.09230968e+02
572             	3.09231201e+02
573             	3.09231432e+02
574             	3.09231658e+02
575             	3.09231880e+02
576             	3.09232097e+02
577             	3.09232310e+02
578             	3.09232520e+02
579             	3.09232730e+02
580             	3.09232939e+02
581             	3.09233148e+02
582             	3.09233354e+02
583             	3.09233560e+02
584             	3.09233762e+02
585             	3.09233958e+02
586             	3.09234146e+02
587             	3.09234335e+02
588             	3.09234521e+02
589             	3.09234708e+02
590             	3.09234894e+02
591             	3.09235083e+02
592             	3.09235270e+02
593             	3.09235455e+02
594             	3.09235636e+02
595             	3.09235812e+02
596             	3.09235984e+02
597             	3.09236154e+02
598             	3.09236323e+02
599             	3.09236493e+02
600             	3.09236664e+02
601             	3.09236835e+02
602             	3.09237004e+02
603             	3.09237172e+02
604             	3.09237336e+02
605             	3.09237471e+02
606             	3.09237623e+02
607             	3.09237776e+02
608             	3.09237928e+02
609             	3.09238057e+02
610             	3.09238182e+02
611             	3.09238327e+02
612             	3.09238469e+02
613             	3.09238599e+02
614             	3.09238721e+02
615             	3.09238854e+02
616             	3.09238980e+02
617             	3.09239096e+02
618             	3.09239208e+02
619             	3.09239337e+02
620             	3.09239466e+02
621             	3.09239586e+02
