# Region        : cellZone component_3
# Cells         : 45
# Volume        : 5.39116502e-02
# Time          	volAverage(T)
1               	3.00906484e+02
2               	3.01795244e+02
3               	3.02590605e+02
4               	3.03331651e+02
5               	3.04040940e+02
6               	3.04710388e+02
7               	3.05358938e+02
8               	3.05977845e+02
9               	3.06583757e+02
10              	3.07172013e+02
11              	3.07727371e+02
12              	3.08266508e+02
13              	3.08779316e+02
14              	3.09276957e+02
15              	3.09771339e+02
16              	3.10246025e+02
17              	3.10706755e+02
18              	3.11158557e+02
19              	3.11590670e+02
20              	3.12014193e+02
21              	3.12415975e+02
22              	3.12784513e+02
23              	3.13137854e+02
24              	3.13449960e+02
25              	3.13778029e+02
26              	3.14131001e+02
27              	3.14448424e+02
28              	3.14733963e+02
29              	3.15013181e+02
30              	3.15278346e+02
31              	3.15539660e+02
32              	3.15805333e+02
33              	3.16076430e+02
34              	3.16338153e+02
35              	3.16598550e+02
36              	3.16818497e+02
37              	3.17034484e+02
38              	3.17240059e+02
39              	3.17422758e+02
40              	3.17590439e+02
41              	3.17759844e+02
42              	3.17929351e+02
43              	3.18078426e+02
44              	3.18233832e+02
45              	3.18376762e+02
46              	3.18520926e+02
47              	3.18648490e+02
48              	3.18756668e+02
49              	3.18829167e+02
50              	3.18907055e+02
51              	3.19014519e+02
52              	3.19119820e+02
53              	3.19219187e+02
54              	3.19333021e+02
55              	3.19458117e+02
56              	3.19573455e+02
57              	3.19672330e+02
58              	3.19784642e+02
59              	3.19900903e+02
60              	3.20011921e+02
61              	3.20134710e+02
62              	3.20251996e+02
63              	3.20322880e+02
64              	3.20360456e+02
65              	3.20389361e+02
66              	3.20428791e+02
67              	3.20468833e+02
68              	3.20503611e+02
69              	3.20542819e+02
70              	3.20591299e+02
71              	3.20627843e+02
72              	3.20682436e+02
73              	3.20748486e+02
74              	3.20815224e+02
75              	3.20880036e+02
76              	3.20931508e+02
77              	3.20980273e+02
78              	3.21029862e+02
79              	3.21073166e+02
80              	3.21112891e+02
81              	3.21154480e+02
82              	3.21199812e+02
83              	3.21247099e+02
84              	3.21292977e+02
85              	3.21343996e+02
86              	3.21397794e+02
87              	3.21436192e+02
88              	3.21469196e+02
89              	3.21496650e+02
90              	3.21530911e+02
91              	3.21567257e+02
92              	3.21608556e+02
93              	3.21651667e+02
94              	3.21703748e+02
95              	3.21759157e+02
96              	3.21816909e+02
97              	3.21871706e+02
98              	3.21922778e+02
99              	3.21955217e+02
100             	3.21985906e+02
101             	3.22022140e+02
102             	3.22033886e+02
103             	3.22054059e+02
104             	3.22072894e+02
105             	3.22090321e+02
106             	3.22107554e+02
107             	3.22124701e+02
108             	3.22140768e+02
109             	3.22168763e+02
110             	3.22194779e+02
111             	3.22219771e+02
112             	3.22253683e+02
113             	3.22268055e+02
114             	3.22288901e+02
115             	3.22305460e+02
116             	3.22323980e+02
117             	3.22346616e+02
118             	3.22369621e+02
119             	3.22395065e+02
120             	3.22382589e+02
121             	3.22373960e+02
122             	3.22349154e+02
123             	3.22330245e+02
124             	3.22313792e+02
125             	3.22299370e+02
126             	3.22287647e+02
127             	3.22279594e+02
128             	3.22266952e+02
129             	3.22278607e+02
130             	3.22306591e+02
131             	3.22343860e+02
132             	3.22393917e+02
133             	3.22466570e+02
134             	3.22531987e+02
135             	3.22597663e+02
136             	3.22654735e+02
137             	3.22705416e+02
138             	3.22759216e+02
139             	3.22807017e+02
140             	3.22837678e+02
141             	3.22858455e+02
142             	3.22862449e+02
143             	3.22857944e+02
144             	3.22854042e+02
145             	3.22859366e+02
146             	3.22876921e+02
147             	3.22905827e+02
148             	3.22937225e+02
149             	3.22988404e+02
150             	3.23052219e+02
151             	3.23131663e+02
152             	3.23188164e+02
153             	3.23259606e+02
154             	3.23311493e+02
155             	3.23379289e+02
156             	3.23418489e+02
157             	3.23460582e+02
158             	3.23488937e+02
159             	3.23522278e+02
160             	3.23554572e+02
161             	3.23579288e+02
162             	3.23607788e+02
163             	3.23643754e+02
164             	3.23694658e+02
165             	3.23754145e+02
166             	3.23818084e+02
167             	3.23862614e+02
168             	3.23916208e+02
169             	3.23954986e+02
170             	3.23998350e+02
171             	3.24025518e+02
172             	3.24061747e+02
173             	3.24079307e+02
174             	3.24101370e+02
175             	3.24121920e+02
176             	3.24128890e+02
177             	3.24144592e+02
178             	3.24163093e+02
179             	3.24184135e+02
180             	3.24207942e+02
181             	3.24236204e+02
182             	3.24252625e+02
183             	3.24284720e+02
184             	3.24307081e+02
185             	3.24343659e+02
186             	3.24361847e+02
187             	3.24392714e+02
188             	3.24407638e+02
189             	3.24436664e+02
190             	3.24449761e+02
191             	3.24472388e+02
192             	3.24485599e+02
193             	3.24507734e+02
194             	3.24518712e+02
195             	3.24539715e+02
196             	3.24547347e+02
197             	3.24564376e+02
198             	3.24568565e+02
199             	3.24583351e+02
200             	3.24580864e+02
201             	3.24586350e+02
202             	3.24579121e+02
203             	3.24580375e+02
204             	3.24568659e+02
205             	3.24563735e+02
206             	3.24563363e+02
207             	3.24548935e+02
208             	3.24544617e+02
209             	3.24548698e+02
210             	3.24539569e+02
211             	3.24541748e+02
212             	3.24558491e+02
213             	3.24554039e+02
214             	3.24562561e+02
215             	3.24563862e+02
216             	3.24582750e+02
217             	3.24586338e+02
218             	3.24604311e+02
219             	3.24612084e+02
220             	3.24633966e+02
221             	3.24649029e+02
222             	3.24672853e+02
223             	3.24703355e+02
224             	3.24720634e+02
225             	3.24752555e+02
226             	3.24772971e+02
227             	3.24807495e+02
228             	3.24846062e+02
229             	3.24870744e+02
230             	3.24912119e+02
231             	3.24940719e+02
232             	3.24978389e+02
233             	3.25008546e+02
234             	3.25053993e+02
235             	3.25077245e+02
236             	3.25112419e+02
237             	3.25130254e+02
238             	3.25159907e+02
239             	3.25169798e+02
240             	3.25188332e+02
241             	3.25195005e+02
242             	3.25210479e+02
243             	3.25231473e+02
244             	3.25251337e+02
245             	3.25266171e+02
246             	3.25281567e+02
247             	3.25272086e+02
248             	3.25274456e+02
249             	3.25264046e+02
250             	3.25265811e+02
251             	3.25250879e+02
252             	3.25248766e+02
253             	3.25233500e+02
254             	3.25230426e+02
255             	3.25216546e+02
256             	3.25215524e+02
257             	3.25204992e+02
258             	3.25208386e+02
259             	3.25203441e+02
260             	3.25215768e+02
261             	3.25211364e+02
262             	3.25219298e+02
263             	3.25216101e+02
264             	3.25231549e+02
265             	3.25229215e+02
266             	3.25239158e+02
267             	3.25237505e+02
268             	3.25247536e+02
269             	3.25263470e+02
270             	3.25258602e+02
271             	3.25267601e+02
272             	3.25264075e+02
273             	3.25274968e+02
274             	3.25269710e+02
275             	3.25277363e+02
276             	3.25271211e+02
277             	3.25278356e+02
278             	3.25271214e+02
279             	3.25277350e+02
280             	3.25269934e+02
281             	3.25274711e+02
282             	3.25268166e+02
283             	3.25274634e+02
284             	3.25270330e+02
285             	3.25279169e+02
286             	3.25277189e+02
287             	3.25289474e+02
288             	3.25289650e+02
289             	3.25304375e+02
290             	3.25306649e+02
291             	3.25323029e+02
292             	3.25326290e+02
293             	3.25342586e+02
294             	3.25344925e+02
295             	3.25359754e+02
296             	3.25360534e+02
297             	3.25373808e+02
298             	3.25373746e+02
299             	3.25385774e+02
300             	3.25385258e+02
301             	3.25394955e+02
302             	3.25395184e+02
303             	3.25408754e+02
304             	3.25408440e+02
305             	3.25422290e+02
306             	3.25421978e+02
307             	3.25435200e+02
308             	3.25436197e+02
309             	3.25451157e+02
310             	3.25453826e+02
311             	3.25471412e+02
312             	3.25474852e+02
313             	3.25491770e+02
314             	3.25495586e+02
315             	3.25510213e+02
316             	3.25513257e+02
317             	3.25529529e+02
318             	3.25529162e+02
319             	3.25541577e+02
320             	3.25538523e+02
321             	3.25547305e+02
322             	3.25542066e+02
323             	3.25548912e+02
324             	3.25542035e+02
325             	3.25546666e+02
326             	3.25538008e+02
327             	3.25540647e+02
328             	3.25530261e+02
329             	3.25531320e+02
330             	3.25519319e+02
331             	3.25519164e+02
332             	3.25505852e+02
333             	3.25505021e+02
334             	3.25490889e+02
335             	3.25490703e+02
336             	3.25478515e+02
337             	3.25480290e+02
338             	3.25472988e+02
339             	3.25479533e+02
340             	3.25477457e+02
341             	3.25500151e+02
342             	3.25497462e+02
343             	3.25509522e+02
344             	3.25510347e+02
345             	3.25526027e+02
346             	3.25528433e+02
347             	3.25544917e+02
348             	3.25546767e+02
349             	3.25561225e+02
350             	3.25561820e+02
351             	3.25574066e+02
352             	3.25573555e+02
353             	3.25583031e+02
354             	3.25583485e+02
355             	3.25597555e+02
356             	3.25596278e+02
357             	3.25608160e+02
358             	3.25605919e+02
359             	3.25618662e+02
360             	3.25615469e+02
361             	3.25627127e+02
362             	3.25624278e+02
363             	3.25634870e+02
364             	3.25632364e+02
365             	3.25644183e+02
366             	3.25643571e+02
367             	3.25655241e+02
368             	3.25653973e+02
369             	3.25665649e+02
370             	3.25662827e+02
371             	3.25673145e+02
372             	3.25668519e+02
373             	3.25676284e+02
374             	3.25671180e+02
375             	3.25678618e+02
376             	3.25673851e+02
377             	3.25679492e+02
378             	3.25673690e+02
379             	3.25680348e+02
380             	3.25671717e+02
381             	3.25676306e+02
382             	3.25665561e+02
383             	3.25667980e+02
384             	3.25657805e+02
385             	3.25660971e+02
386             	3.25652675e+02
387             	3.25658161e+02
388             	3.25652551e+02
389             	3.25662069e+02
390             	3.25658492e+02
391             	3.25670195e+02
392             	3.25667353e+02
393             	3.25680663e+02
394             	3.25677197e+02
395             	3.25687042e+02
396             	3.25683262e+02
397             	3.25692497e+02
398             	3.25687773e+02
399             	3.25694187e+02
400             	3.25687848e+02
401             	3.25693736e+02
402             	3.25684379e+02
403             	3.25687109e+02
404             	3.25674935e+02
405             	3.25674695e+02
406             	3.25660691e+02
407             	3.25658604e+02
408             	3.25642857e+02
409             	3.25639498e+02
410             	3.25622926e+02
411             	3.25618808e+02
412             	3.25602382e+02
413             	3.25598992e+02
414             	3.25583828e+02
415             	3.25582247e+02
416             	3.25569767e+02
417             	3.25571297e+02
418             	3.25561493e+02
419             	3.25565917e+02
420             	3.25558680e+02
421             	3.25565768e+02
422             	3.25560353e+02
423             	3.25569192e+02
424             	3.25564400e+02
425             	3.25573074e+02
426             	3.25569095e+02
427             	3.25578318e+02
428             	3.25575576e+02
429             	3.25585612e+02
430             	3.25583442e+02
431             	3.25594462e+02
432             	3.25592544e+02
433             	3.25603530e+02
434             	3.25601823e+02
435             	3.25614318e+02
436             	3.25612305e+02
437             	3.25624122e+02
438             	3.25622408e+02
439             	3.25632321e+02
440             	3.25631669e+02
441             	3.25645108e+02
442             	3.25643322e+02
443             	3.25654968e+02
444             	3.25653040e+02
445             	3.25664651e+02
446             	3.25662484e+02
447             	3.25673962e+02
448             	3.25670973e+02
449             	3.25681502e+02
450             	3.25676047e+02
451             	3.25682915e+02
452             	3.25675594e+02
453             	3.25681226e+02
454             	3.25671173e+02
455             	3.25671905e+02
456             	3.25660452e+02
457             	3.25660610e+02
458             	3.25646982e+02
459             	3.25644497e+02
460             	3.25630271e+02
461             	3.25628360e+02
462             	3.25613664e+02
463             	3.25611791e+02
464             	3.25596866e+02
465             	3.25595879e+02
466             	3.25581433e+02
467             	3.25581919e+02
468             	3.25569009e+02
469             	3.25571279e+02
470             	3.25560988e+02
471             	3.25564768e+02
472             	3.25558343e+02
473             	3.25565864e+02
474             	3.25561317e+02
475             	3.25570264e+02
476             	3.25566261e+02
477             	3.25576068e+02
478             	3.25571964e+02
479             	3.25582057e+02
480             	3.25577457e+02
481             	3.25586684e+02
482             	3.25583170e+02
483             	3.25593262e+02
484             	3.25590063e+02
485             	3.25599558e+02
486             	3.25595670e+02
487             	3.25603792e+02
488             	3.25599618e+02
489             	3.25608768e+02
490             	3.25604374e+02
491             	3.25611590e+02
492             	3.25607814e+02
493             	3.25618092e+02
494             	3.25613998e+02
495             	3.25623360e+02
496             	3.25618974e+02
497             	3.25628379e+02
498             	3.25623450e+02
499             	3.25632316e+02
500             	3.25627426e+02
501             	3.25635322e+02
502             	3.25630595e+02
503             	3.25638796e+02
504             	3.25634272e+02
505             	3.25641901e+02
506             	3.25637080e+02
507             	3.25645378e+02
508             	3.25640134e+02
509             	3.25647935e+02
510             	3.25642162e+02
511             	3.25650291e+02
512             	3.25644161e+02
513             	3.25651186e+02
514             	3.25645362e+02
515             	3.25652914e+02
516             	3.25647390e+02
517             	3.25654850e+02
518             	3.25649590e+02
519             	3.25657685e+02
520             	3.25652695e+02
521             	3.25661032e+02
522             	3.25655618e+02
523             	3.25663707e+02
524             	3.25657694e+02
525             	3.25665784e+02
526             	3.25659980e+02
527             	3.25667674e+02
528             	3.25662120e+02
529             	3.25670175e+02
530             	3.25664955e+02
531             	3.25672633e+02
532             	3.25667321e+02
533             	3.25675345e+02
534             	3.25669118e+02
535             	3.25675584e+02
536             	3.25668122e+02
537             	3.25673679e+02
538             	3.25665203e+02
539             	3.25669373e+02
540             	3.25659870e+02
541             	3.25663071e+02
542             	3.25653303e+02
543             	3.25656184e+02
544             	3.25646104e+02
545             	3.25648477e+02
546             	3.25638098e+02
547             	3.25640582e+02
548             	3.25630239e+02
549             	3.25633024e+02
550             	3.25622982e+02
551             	3.25626419e+02
552             	3.25616774e+02
553             	3.25620525e+02
554             	3.25611658e+02
555             	3.25616139e+02
556             	3.25608252e+02
557             	3.25613973e+02
558             	3.25607043e+02
559             	3.25613666e+02
560             	3.25607724e+02
561             	3.25615643e+02
562             	3.25610894e+02
563             	3.25619827e+02
564             	3.25616044e+02
565             	3.25625322e+02
566             	3.25622387e+02
567             	3.25632895e+02
568             	3.25629658e+02
569             	3.25639759e+02
570             	3.25636237e+02
571             	3.25645397e+02
572             	3.25642054e+02
573             	3.25652083e+02
574             	3.25647925e+02
575             	3.25656722e+02
576             	3.25652237e+02
577             	3.25660378e+02
578             	3.25655058e+02
579             	3.25662923e+02
580             	3.25656482e+02
581             	3.25662615e+02
582             	3.25655183e+02
583             	3.25659839e+02
584             	3.25651327e+02
585             	3.25655258e+02
586             	3.25646095e+02
587             	3.25649308e+02
588             	3.25639815e+02
589             	3.25642984e+02
590             	3.25633265e+02
591             	3.25636587e+02
592             	3.25627264e+02
593             	3.25631089e+02
594             	3.25622027e+02
595             	3.25626672e+02
596             	3.25618474e+02
597             	3.25624685e+02
598             	3.25616536e+02
599             	3.25621876e+02
600             	3.25614605e+02
601             	3.25620838e+02
602             	3.25613932e+02
603             	3.25620481e+02
604             	3.25613911e+02
605             	3.25620332e+02
606             	3.25613870e+02
607             	3.25620716e+02
608             	3.25614649e+02
609             	3.25621653e+02
610             	3.25615525e+02
611             	3.25622479e+02
612             	3.25616153e+02
613             	3.25623329e+02
614             	3.25617134e+02
615             	3.25624251e+02
616             	3.25618587e+02
617             	3.25626294e+02
618             	3.25621156e+02
619             	3.25629191e+02
620             	3.25624270e+02
621             	3.25632931e+02
