# Region        : cellZone component_3
# Cells         : 97
# Volume        : 4.14015506e-02
# Time          	volAverage(T)
1               	3.00527965e+02
2               	3.01049425e+02
3               	3.01557063e+02
4               	3.02055356e+02
5               	3.02546775e+02
6               	3.03032537e+02
7               	3.03513011e+02
8               	3.03989002e+02
9               	3.04461104e+02
10              	3.04929693e+02
11              	3.05395855e+02
12              	3.05859218e+02
13              	3.06316147e+02
14              	3.06768329e+02
15              	3.07218949e+02
16              	3.07666095e+02
17              	3.08109315e+02
18              	3.08548610e+02
19              	3.08984300e+02
20              	3.09413627e+02
21              	3.09839506e+02
22              	3.10263208e+02
23              	3.10684080e+02
24              	3.11101681e+02
25              	3.11516891e+02
26              	3.11931210e+02
27              	3.12348893e+02
28              	3.12760991e+02
29              	3.13163768e+02
30              	3.13565944e+02
31              	3.13965469e+02
32              	3.14361149e+02
33              	3.14752068e+02
34              	3.15139138e+02
35              	3.15521808e+02
36              	3.15900359e+02
37              	3.16275256e+02
38              	3.16645185e+02
39              	3.17013405e+02
40              	3.17379210e+02
41              	3.17742612e+02
42              	3.18105823e+02
43              	3.18469788e+02
44              	3.18836251e+02
45              	3.19202193e+02
46              	3.19567931e+02
47              	3.19932509e+02
48              	3.20294283e+02
49              	3.20654488e+02
50              	3.21012752e+02
51              	3.21370078e+02
52              	3.21727095e+02
53              	3.22085198e+02
54              	3.22442577e+02
55              	3.22799878e+02
56              	3.23155093e+02
57              	3.23508627e+02
58              	3.23859543e+02
59              	3.24207596e+02
60              	3.24551902e+02
61              	3.24892816e+02
62              	3.25228737e+02
63              	3.25561947e+02
64              	3.25892357e+02
65              	3.26223273e+02
66              	3.26555385e+02
67              	3.26889240e+02
68              	3.27215238e+02
69              	3.27538123e+02
70              	3.27860663e+02
71              	3.28178612e+02
72              	3.28490777e+02
73              	3.28793156e+02
74              	3.29093735e+02
75              	3.29398634e+02
76              	3.29702188e+02
77              	3.30000388e+02
78              	3.30298575e+02
79              	3.30595852e+02
80              	3.30892355e+02
81              	3.31186523e+02
82              	3.31481643e+02
83              	3.31778004e+02
84              	3.32074367e+02
85              	3.32373000e+02
86              	3.32679409e+02
87              	3.32975681e+02
88              	3.33260705e+02
89              	3.33542805e+02
90              	3.33825991e+02
91              	3.34102172e+02
92              	3.34371083e+02
93              	3.34634164e+02
94              	3.34893124e+02
95              	3.35152972e+02
96              	3.35415841e+02
97              	3.35679702e+02
98              	3.35943138e+02
99              	3.36209066e+02
100             	3.36477873e+02
101             	3.36746126e+02
102             	3.37015510e+02
103             	3.37281655e+02
104             	3.37541737e+02
105             	3.37793410e+02
106             	3.38038999e+02
107             	3.38281668e+02
108             	3.38518851e+02
109             	3.38752538e+02
110             	3.38985091e+02
111             	3.39219295e+02
112             	3.39454809e+02
113             	3.39696125e+02
114             	3.39941238e+02
115             	3.40190501e+02
116             	3.40441752e+02
117             	3.40691604e+02
118             	3.40938999e+02
119             	3.41183490e+02
120             	3.41424387e+02
121             	3.41661790e+02
122             	3.41894706e+02
123             	3.42124163e+02
124             	3.42351208e+02
125             	3.42575785e+02
126             	3.42798308e+02
127             	3.43019776e+02
128             	3.43241432e+02
129             	3.43464847e+02
130             	3.43690125e+02
131             	3.43916126e+02
132             	3.44143569e+02
133             	3.44374351e+02
134             	3.44606380e+02
135             	3.44838422e+02
136             	3.45070480e+02
137             	3.45301320e+02
138             	3.45528664e+02
139             	3.45751766e+02
140             	3.45970518e+02
141             	3.46185956e+02
142             	3.46398593e+02
143             	3.46609647e+02
144             	3.46819887e+02
145             	3.47029983e+02
146             	3.47244206e+02
147             	3.47460937e+02
148             	3.47679122e+02
149             	3.47898440e+02
150             	3.48118044e+02
151             	3.48339121e+02
152             	3.48557861e+02
153             	3.48775557e+02
154             	3.48991728e+02
155             	3.49205526e+02
156             	3.49415553e+02
157             	3.49621350e+02
158             	3.49824202e+02
159             	3.50024549e+02
160             	3.50222532e+02
161             	3.50421059e+02
162             	3.50621935e+02
163             	3.50824025e+02
164             	3.51028625e+02
165             	3.51235237e+02
166             	3.51441079e+02
167             	3.51646704e+02
168             	3.51852867e+02
169             	3.52058143e+02
170             	3.52260616e+02
171             	3.52460281e+02
172             	3.52656402e+02
173             	3.52849565e+02
174             	3.53040015e+02
175             	3.53229792e+02
176             	3.53418893e+02
177             	3.53609270e+02
178             	3.53799545e+02
179             	3.53987245e+02
180             	3.54176660e+02
181             	3.54367723e+02
182             	3.54558838e+02
183             	3.54745750e+02
184             	3.54933196e+02
185             	3.55119944e+02
186             	3.55305309e+02
187             	3.55489476e+02
188             	3.55672096e+02
189             	3.55852505e+02
190             	3.56030021e+02
191             	3.56204094e+02
192             	3.56377372e+02
193             	3.56549838e+02
194             	3.56722549e+02
195             	3.56897066e+02
196             	3.57072891e+02
197             	3.57249414e+02
198             	3.57427113e+02
199             	3.57605431e+02
200             	3.57783173e+02
201             	3.57957683e+02
202             	3.58133009e+02
203             	3.58306308e+02
204             	3.58478116e+02
205             	3.58647830e+02
206             	3.58816437e+02
207             	3.58983998e+02
208             	3.59150484e+02
209             	3.59315998e+02
210             	3.59480593e+02
211             	3.59644976e+02
212             	3.59810496e+02
213             	3.59976224e+02
214             	3.60142309e+02
215             	3.60308645e+02
216             	3.60473994e+02
217             	3.60641080e+02
218             	3.60808586e+02
219             	3.60974929e+02
220             	3.61139367e+02
221             	3.61302738e+02
222             	3.61464680e+02
223             	3.61624688e+02
224             	3.61783458e+02
225             	3.61941193e+02
226             	3.62098083e+02
227             	3.62253107e+02
228             	3.62408467e+02
229             	3.62563061e+02
230             	3.62717021e+02
231             	3.62870712e+02
232             	3.63024274e+02
233             	3.63176343e+02
234             	3.63327751e+02
235             	3.63477220e+02
236             	3.63626597e+02
237             	3.63775318e+02
238             	3.63922281e+02
239             	3.64068021e+02
240             	3.64212862e+02
241             	3.64357572e+02
242             	3.64501592e+02
243             	3.64644196e+02
244             	3.64784143e+02
245             	3.64923446e+02
246             	3.65061763e+02
247             	3.65199355e+02
248             	3.65337015e+02
249             	3.65475070e+02
250             	3.65613451e+02
251             	3.65752016e+02
252             	3.65890319e+02
253             	3.66027426e+02
254             	3.66164773e+02
255             	3.66301918e+02
256             	3.66438928e+02
257             	3.66575896e+02
258             	3.66712601e+02
259             	3.66849053e+02
260             	3.66985334e+02
261             	3.67121117e+02
262             	3.67256435e+02
263             	3.67391100e+02
264             	3.67523713e+02
265             	3.67653968e+02
266             	3.67782915e+02
267             	3.67911136e+02
268             	3.68038332e+02
269             	3.68164785e+02
270             	3.68290673e+02
271             	3.68416150e+02
272             	3.68541908e+02
273             	3.68668157e+02
274             	3.68794789e+02
275             	3.68919250e+02
276             	3.69043908e+02
277             	3.69168735e+02
278             	3.69294341e+02
279             	3.69418807e+02
280             	3.69542733e+02
281             	3.69666347e+02
282             	3.69788848e+02
283             	3.69910519e+02
284             	3.70030525e+02
285             	3.70149876e+02
286             	3.70268100e+02
287             	3.70384853e+02
288             	3.70500425e+02
289             	3.70614770e+02
290             	3.70728794e+02
291             	3.70842644e+02
292             	3.70956004e+02
293             	3.71068969e+02
294             	3.71181973e+02
295             	3.71295321e+02
296             	3.71408181e+02
297             	3.71521411e+02
298             	3.71634198e+02
299             	3.71746297e+02
300             	3.71858448e+02
301             	3.71969311e+02
302             	3.72079958e+02
303             	3.72189818e+02
304             	3.72299228e+02
305             	3.72408119e+02
306             	3.72516776e+02
307             	3.72623546e+02
308             	3.72729996e+02
309             	3.72836058e+02
310             	3.72942089e+02
311             	3.73047786e+02
312             	3.73153070e+02
313             	3.73257851e+02
314             	3.73362062e+02
315             	3.73465808e+02
316             	3.73569755e+02
317             	3.73672898e+02
318             	3.73776248e+02
319             	3.73879460e+02
320             	3.73981937e+02
321             	3.74083232e+02
322             	3.74183463e+02
323             	3.74282589e+02
324             	3.74381268e+02
325             	3.74479417e+02
326             	3.74577231e+02
327             	3.74674956e+02
328             	3.74772689e+02
329             	3.74870087e+02
330             	3.74965219e+02
331             	3.75060218e+02
332             	3.75154717e+02
333             	3.75248862e+02
334             	3.75342575e+02
335             	3.75435814e+02
336             	3.75528576e+02
337             	3.75620930e+02
338             	3.75713243e+02
339             	3.75805350e+02
340             	3.75897005e+02
341             	3.75988200e+02
342             	3.76078747e+02
343             	3.76168342e+02
344             	3.76257627e+02
345             	3.76346554e+02
346             	3.76435584e+02
347             	3.76524418e+02
348             	3.76612431e+02
349             	3.76699396e+02
350             	3.76784864e+02
351             	3.76870202e+02
352             	3.76955169e+02
353             	3.77039687e+02
354             	3.77123913e+02
355             	3.77207875e+02
356             	3.77291901e+02
357             	3.77376335e+02
358             	3.77461288e+02
359             	3.77546817e+02
360             	3.77632549e+02
361             	3.77718376e+02
362             	3.77804019e+02
363             	3.77888234e+02
364             	3.77971486e+02
365             	3.78053490e+02
366             	3.78134913e+02
367             	3.78215640e+02
368             	3.78295600e+02
369             	3.78374859e+02
370             	3.78453479e+02
371             	3.78531560e+02
372             	3.78609125e+02
373             	3.78686230e+02
374             	3.78762853e+02
375             	3.78840390e+02
376             	3.78917391e+02
377             	3.78994195e+02
378             	3.79070939e+02
379             	3.79147501e+02
380             	3.79224125e+02
381             	3.79300575e+02
382             	3.79376795e+02
383             	3.79451756e+02
384             	3.79526768e+02
385             	3.79600626e+02
386             	3.79673698e+02
387             	3.79745791e+02
388             	3.79816749e+02
389             	3.79887096e+02
390             	3.79956921e+02
391             	3.80026005e+02
392             	3.80095489e+02
393             	3.80164971e+02
394             	3.80234573e+02
395             	3.80304272e+02
396             	3.80374040e+02
397             	3.80443670e+02
398             	3.80513008e+02
399             	3.80581901e+02
400             	3.80650669e+02
401             	3.80718962e+02
402             	3.80786816e+02
403             	3.80853903e+02
404             	3.80921060e+02
405             	3.80987446e+02
406             	3.81052530e+02
407             	3.81117675e+02
408             	3.81182634e+02
409             	3.81247397e+02
410             	3.81311537e+02
411             	3.81375460e+02
412             	3.81439214e+02
413             	3.81503027e+02
414             	3.81566894e+02
415             	3.81630869e+02
416             	3.81694196e+02
417             	3.81756824e+02
418             	3.81819852e+02
419             	3.81882774e+02
420             	3.81945616e+02
421             	3.82007991e+02
422             	3.82069744e+02
423             	3.82130919e+02
424             	3.82192108e+02
425             	3.82252433e+02
426             	3.82312316e+02
427             	3.82371120e+02
428             	3.82429437e+02
429             	3.82487027e+02
430             	3.82544609e+02
431             	3.82601384e+02
432             	3.82658036e+02
433             	3.82715388e+02
434             	3.82773258e+02
435             	3.82831221e+02
436             	3.82888255e+02
437             	3.82943905e+02
438             	3.82999579e+02
439             	3.83055124e+02
440             	3.83110622e+02
441             	3.83165804e+02
442             	3.83220545e+02
443             	3.83275052e+02
444             	3.83329283e+02
445             	3.83383534e+02
446             	3.83438680e+02
447             	3.83493935e+02
448             	3.83548929e+02
449             	3.83604806e+02
450             	3.83661156e+02
451             	3.83717793e+02
452             	3.83774310e+02
453             	3.83830043e+02
454             	3.83885133e+02
455             	3.83937734e+02
456             	3.83991005e+02
457             	3.84043865e+02
458             	3.84095841e+02
459             	3.84147114e+02
460             	3.84198213e+02
461             	3.84249180e+02
462             	3.84300057e+02
463             	3.84350671e+02
464             	3.84400937e+02
465             	3.84450724e+02
466             	3.84500264e+02
467             	3.84549414e+02
468             	3.84597901e+02
469             	3.84646261e+02
470             	3.84694556e+02
471             	3.84741936e+02
472             	3.84788889e+02
473             	3.84835151e+02
474             	3.84880878e+02
475             	3.84926506e+02
476             	3.84971669e+02
477             	3.85016589e+02
478             	3.85061363e+02
479             	3.85106009e+02
480             	3.85150902e+02
481             	3.85195908e+02
482             	3.85240259e+02
483             	3.85285441e+02
484             	3.85330302e+02
485             	3.85375197e+02
486             	3.85420338e+02
487             	3.85465629e+02
488             	3.85510926e+02
489             	3.85556195e+02
490             	3.85601490e+02
491             	3.85646880e+02
492             	3.85691880e+02
493             	3.85737147e+02
494             	3.85781835e+02
495             	3.85826476e+02
496             	3.85870686e+02
497             	3.85914454e+02
498             	3.85957858e+02
499             	3.86000910e+02
500             	3.86043610e+02
501             	3.86086340e+02
502             	3.86128618e+02
503             	3.86170269e+02
504             	3.86211409e+02
505             	3.86251125e+02
506             	3.86291048e+02
507             	3.86330772e+02
508             	3.86370028e+02
509             	3.86408479e+02
510             	3.86446537e+02
511             	3.86483959e+02
512             	3.86521360e+02
513             	3.86558637e+02
514             	3.86595408e+02
515             	3.86632335e+02
516             	3.86669694e+02
517             	3.86707154e+02
518             	3.86744733e+02
519             	3.86782381e+02
520             	3.86820118e+02
521             	3.86857839e+02
522             	3.86895734e+02
523             	3.86933628e+02
524             	3.86971335e+02
525             	3.87008697e+02
526             	3.87045184e+02
527             	3.87081078e+02
528             	3.87116345e+02
529             	3.87151307e+02
530             	3.87185773e+02
531             	3.87220675e+02
532             	3.87255005e+02
533             	3.87289197e+02
534             	3.87323366e+02
535             	3.87357380e+02
536             	3.87391987e+02
537             	3.87426553e+02
538             	3.87461494e+02
539             	3.87496012e+02
540             	3.87530082e+02
541             	3.87563610e+02
542             	3.87596529e+02
543             	3.87628936e+02
544             	3.87661652e+02
545             	3.87693633e+02
546             	3.87724912e+02
547             	3.87755780e+02
548             	3.87786229e+02
549             	3.87815740e+02
550             	3.87844841e+02
551             	3.87874062e+02
552             	3.87903159e+02
553             	3.87932152e+02
554             	3.87961126e+02
555             	3.87990171e+02
556             	3.88019340e+02
557             	3.88048525e+02
558             	3.88077601e+02
559             	3.88106689e+02
560             	3.88136016e+02
561             	3.88165967e+02
562             	3.88196306e+02
563             	3.88227418e+02
564             	3.88259210e+02
565             	3.88291343e+02
566             	3.88323447e+02
567             	3.88355353e+02
568             	3.88386456e+02
569             	3.88417007e+02
570             	3.88447546e+02
571             	3.88477588e+02
572             	3.88507841e+02
573             	3.88537215e+02
574             	3.88566143e+02
575             	3.88593786e+02
576             	3.88621872e+02
577             	3.88649799e+02
578             	3.88677635e+02
579             	3.88705479e+02
580             	3.88733280e+02
581             	3.88760939e+02
582             	3.88788414e+02
583             	3.88815755e+02
584             	3.88843216e+02
585             	3.88870688e+02
586             	3.88897952e+02
587             	3.88924872e+02
588             	3.88951342e+02
589             	3.88977389e+02
590             	3.89002937e+02
591             	3.89028144e+02
592             	3.89052945e+02
593             	3.89077530e+02
594             	3.89101852e+02
595             	3.89125469e+02
596             	3.89148518e+02
597             	3.89171404e+02
598             	3.89194118e+02
599             	3.89216498e+02
600             	3.89238538e+02
601             	3.89260834e+02
602             	3.89282860e+02
603             	3.89304715e+02
604             	3.89326472e+02
605             	3.89348264e+02
606             	3.89370644e+02
607             	3.89393433e+02
608             	3.89416790e+02
609             	3.89440691e+02
610             	3.89464776e+02
611             	3.89488991e+02
612             	3.89513090e+02
613             	3.89535668e+02
614             	3.89557059e+02
615             	3.89577953e+02
616             	3.89599187e+02
617             	3.89620658e+02
618             	3.89642972e+02
619             	3.89665203e+02
620             	3.89687901e+02
621             	3.89710575e+02
