# Region        : cellZone component_2
# Cells         : 29
# Volume        : 4.29854037e-02
# Time          	volAverage(T)
1               	3.03088941e+02
2               	3.06013307e+02
3               	3.08102563e+02
4               	3.09666352e+02
5               	3.10974568e+02
6               	3.12097053e+02
7               	3.13093333e+02
8               	3.14008191e+02
9               	3.14897316e+02
10              	3.15728489e+02
11              	3.16401319e+02
12              	3.16961792e+02
13              	3.17505344e+02
14              	3.18078354e+02
15              	3.18608682e+02
16              	3.19075221e+02
17              	3.19570855e+02
18              	3.20060853e+02
19              	3.20547485e+02
20              	3.20993355e+02
21              	3.21419444e+02
22              	3.21856813e+02
23              	3.22227033e+02
24              	3.22633088e+02
25              	3.22864329e+02
26              	3.23137785e+02
27              	3.23425530e+02
28              	3.23666749e+02
29              	3.23807388e+02
30              	3.23905972e+02
31              	3.23983224e+02
32              	3.23963982e+02
33              	3.23863362e+02
34              	3.23659102e+02
35              	3.23367872e+02
36              	3.23131536e+02
37              	3.22971855e+02
38              	3.23013579e+02
39              	3.23089228e+02
40              	3.23268519e+02
41              	3.23486240e+02
42              	3.23697055e+02
43              	3.23836499e+02
44              	3.23883540e+02
45              	3.23841293e+02
46              	3.23825858e+02
47              	3.23843626e+02
48              	3.23853553e+02
49              	3.23861586e+02
50              	3.23781421e+02
51              	3.23660001e+02
52              	3.23565089e+02
53              	3.23519716e+02
54              	3.23520220e+02
55              	3.23576409e+02
56              	3.23701658e+02
57              	3.23884838e+02
58              	3.24080957e+02
59              	3.24234720e+02
60              	3.24325995e+02
61              	3.24358209e+02
62              	3.24355108e+02
63              	3.24300053e+02
64              	3.24188998e+02
65              	3.24046597e+02
66              	3.23902157e+02
67              	3.23716567e+02
68              	3.23522858e+02
69              	3.23304103e+02
70              	3.23121567e+02
71              	3.23010793e+02
72              	3.22998903e+02
73              	3.23110007e+02
74              	3.23294196e+02
75              	3.23485745e+02
76              	3.23704664e+02
77              	3.23898341e+02
78              	3.24030637e+02
79              	3.24097023e+02
80              	3.24113149e+02
81              	3.24102135e+02
82              	3.24060897e+02
83              	3.24004795e+02
84              	3.23912540e+02
85              	3.23789234e+02
86              	3.23684119e+02
87              	3.23599132e+02
88              	3.23525079e+02
89              	3.23480174e+02
90              	3.23484574e+02
91              	3.23548221e+02
92              	3.23675332e+02
93              	3.23857677e+02
94              	3.24113748e+02
95              	3.24409102e+02
96              	3.24716482e+02
97              	3.25005823e+02
98              	3.25224335e+02
99              	3.25372189e+02
100             	3.25439368e+02
101             	3.25476935e+02
102             	3.25466190e+02
103             	3.25416256e+02
104             	3.25322443e+02
105             	3.25189586e+02
106             	3.25016893e+02
107             	3.24875031e+02
108             	3.24747238e+02
109             	3.24660886e+02
110             	3.24623807e+02
111             	3.24661808e+02
112             	3.24795419e+02
113             	3.25005702e+02
114             	3.25261387e+02
115             	3.25479945e+02
116             	3.25698342e+02
117             	3.25842202e+02
118             	3.25975161e+02
119             	3.26072965e+02
120             	3.26121498e+02
121             	3.26114046e+02
122             	3.26043297e+02
123             	3.25916960e+02
124             	3.25773715e+02
125             	3.25640172e+02
126             	3.25520024e+02
127             	3.25426400e+02
128             	3.25380597e+02
129             	3.25397903e+02
130             	3.25480264e+02
131             	3.25562920e+02
132             	3.25704187e+02
133             	3.25892665e+02
134             	3.26114253e+02
135             	3.26277147e+02
136             	3.26418126e+02
137             	3.26506297e+02
138             	3.26581145e+02
139             	3.26591667e+02
140             	3.26593636e+02
141             	3.26580908e+02
142             	3.26485818e+02
143             	3.26395592e+02
144             	3.26319948e+02
145             	3.26211243e+02
146             	3.26131697e+02
147             	3.26093316e+02
148             	3.26094394e+02
149             	3.26148162e+02
150             	3.26243459e+02
151             	3.26369780e+02
152             	3.26468125e+02
153             	3.26608655e+02
154             	3.26703272e+02
155             	3.26823452e+02
156             	3.26837368e+02
157             	3.26872177e+02
158             	3.26852618e+02
159             	3.26842139e+02
160             	3.26774297e+02
161             	3.26719815e+02
162             	3.26633001e+02
163             	3.26569440e+02
164             	3.26491442e+02
165             	3.26446644e+02
166             	3.26436079e+02
167             	3.26454586e+02
168             	3.26502260e+02
169             	3.26580977e+02
170             	3.26628150e+02
171             	3.26717035e+02
172             	3.26774493e+02
173             	3.26870641e+02
174             	3.26927916e+02
175             	3.27018695e+02
176             	3.27043936e+02
177             	3.27093453e+02
178             	3.27092978e+02
179             	3.27122417e+02
180             	3.27088492e+02
181             	3.27082991e+02
182             	3.27051990e+02
183             	3.27063942e+02
184             	3.27040258e+02
185             	3.27055369e+02
186             	3.27069208e+02
187             	3.27099430e+02
188             	3.27101766e+02
189             	3.27136348e+02
190             	3.27201396e+02
191             	3.27296629e+02
192             	3.27337598e+02
193             	3.27414892e+02
194             	3.27447981e+02
195             	3.27521129e+02
196             	3.27555969e+02
197             	3.27569087e+02
198             	3.27568603e+02
199             	3.27608535e+02
200             	3.27612197e+02
201             	3.27649154e+02
202             	3.27637944e+02
203             	3.27667179e+02
204             	3.27643846e+02
205             	3.27647277e+02
206             	3.27664598e+02
207             	3.27662430e+02
208             	3.27697090e+02
209             	3.27748720e+02
210             	3.27805824e+02
211             	3.27847470e+02
212             	3.27933494e+02
213             	3.27979683e+02
214             	3.28068963e+02
215             	3.28112966e+02
216             	3.28204163e+02
217             	3.28226222e+02
218             	3.28213544e+02
219             	3.28237687e+02
220             	3.28221229e+02
221             	3.28232806e+02
222             	3.28183965e+02
223             	3.28169466e+02
224             	3.28155724e+02
225             	3.28081477e+02
226             	3.28032869e+02
227             	3.28017642e+02
228             	3.28034728e+02
229             	3.28032730e+02
230             	3.28077787e+02
231             	3.28092835e+02
232             	3.28152140e+02
233             	3.28172142e+02
234             	3.28234018e+02
235             	3.28251193e+02
236             	3.28304929e+02
237             	3.28308433e+02
238             	3.28344140e+02
239             	3.28303943e+02
240             	3.28294233e+02
241             	3.28256154e+02
242             	3.28257531e+02
243             	3.28220819e+02
244             	3.28222105e+02
245             	3.28190184e+02
246             	3.28198344e+02
247             	3.28180222e+02
248             	3.28212373e+02
249             	3.28224470e+02
250             	3.28277993e+02
251             	3.28299636e+02
252             	3.28363292e+02
253             	3.28405149e+02
254             	3.28491414e+02
255             	3.28526939e+02
256             	3.28597282e+02
257             	3.28617981e+02
258             	3.28675511e+02
259             	3.28685146e+02
260             	3.28735085e+02
261             	3.28715748e+02
262             	3.28689929e+02
263             	3.28715364e+02
264             	3.28677396e+02
265             	3.28673735e+02
266             	3.28638378e+02
267             	3.28639056e+02
268             	3.28603091e+02
269             	3.28596803e+02
270             	3.28556068e+02
271             	3.28543319e+02
272             	3.28539481e+02
273             	3.28503781e+02
274             	3.28508318e+02
275             	3.28478341e+02
276             	3.28493967e+02
277             	3.28492761e+02
278             	3.28544517e+02
279             	3.28570893e+02
280             	3.28654634e+02
281             	3.28706618e+02
282             	3.28817130e+02
283             	3.28883284e+02
284             	3.28988949e+02
285             	3.29034817e+02
286             	3.29118394e+02
287             	3.29152475e+02
288             	3.29222466e+02
289             	3.29223348e+02
290             	3.29253579e+02
291             	3.29219334e+02
292             	3.29212107e+02
293             	3.29137173e+02
294             	3.29088985e+02
295             	3.29006641e+02
296             	3.28968536e+02
297             	3.28886427e+02
298             	3.28847487e+02
299             	3.28775200e+02
300             	3.28749022e+02
301             	3.28699252e+02
302             	3.28693702e+02
303             	3.28660493e+02
304             	3.28670946e+02
305             	3.28712434e+02
306             	3.28706712e+02
307             	3.28743707e+02
308             	3.28754293e+02
309             	3.28811304e+02
310             	3.28820628e+02
311             	3.28871433e+02
312             	3.28879451e+02
313             	3.28937213e+02
314             	3.28941309e+02
315             	3.28990260e+02
316             	3.28986083e+02
317             	3.28965492e+02
318             	3.28981953e+02
319             	3.28960183e+02
320             	3.28968370e+02
321             	3.28924737e+02
322             	3.28910022e+02
323             	3.28922721e+02
324             	3.28878465e+02
325             	3.28863627e+02
326             	3.28830935e+02
327             	3.28846444e+02
328             	3.28846130e+02
329             	3.28906940e+02
330             	3.28913744e+02
331             	3.28979288e+02
332             	3.28998130e+02
333             	3.29066281e+02
334             	3.29077836e+02
335             	3.29125024e+02
336             	3.29108965e+02
337             	3.29116943e+02
338             	3.29064866e+02
339             	3.29043151e+02
340             	3.28958351e+02
341             	3.28901724e+02
342             	3.28866618e+02
343             	3.28781338e+02
344             	3.28702408e+02
345             	3.28670584e+02
346             	3.28687232e+02
347             	3.28700768e+02
348             	3.28772365e+02
349             	3.28805435e+02
350             	3.28823141e+02
351             	3.28886766e+02
352             	3.28911248e+02
353             	3.28971669e+02
354             	3.28978758e+02
355             	3.29024263e+02
356             	3.29006443e+02
357             	3.29015424e+02
358             	3.28984196e+02
359             	3.28984925e+02
360             	3.28935663e+02
361             	3.28923995e+02
362             	3.28879096e+02
363             	3.28873346e+02
364             	3.28836607e+02
365             	3.28839909e+02
366             	3.28807937e+02
367             	3.28809914e+02
368             	3.28836808e+02
369             	3.28804620e+02
370             	3.28799779e+02
371             	3.28771672e+02
372             	3.28783112e+02
373             	3.28748030e+02
374             	3.28755811e+02
375             	3.28727832e+02
376             	3.28743514e+02
377             	3.28723071e+02
378             	3.28750490e+02
379             	3.28742480e+02
380             	3.28777260e+02
381             	3.28774570e+02
382             	3.28810602e+02
383             	3.28809236e+02
384             	3.28842415e+02
385             	3.28840000e+02
386             	3.28878351e+02
387             	3.28874470e+02
388             	3.28914132e+02
389             	3.28909327e+02
390             	3.28899900e+02
391             	3.28926754e+02
392             	3.28920238e+02
393             	3.28949975e+02
394             	3.28931638e+02
395             	3.28945152e+02
396             	3.28913057e+02
397             	3.28914774e+02
398             	3.28866822e+02
399             	3.28848527e+02
400             	3.28851694e+02
401             	3.28804910e+02
402             	3.28799035e+02
403             	3.28762414e+02
404             	3.28766601e+02
405             	3.28754759e+02
406             	3.28793667e+02
407             	3.28796826e+02
408             	3.28848979e+02
409             	3.28866992e+02
410             	3.28935411e+02
411             	3.28956849e+02
412             	3.29026525e+02
413             	3.29041518e+02
414             	3.29096399e+02
415             	3.29092303e+02
416             	3.29119381e+02
417             	3.29092920e+02
418             	3.29098157e+02
419             	3.29054816e+02
420             	3.29047725e+02
421             	3.28997558e+02
422             	3.28988688e+02
423             	3.28938754e+02
424             	3.28927802e+02
425             	3.28886009e+02
426             	3.28891372e+02
427             	3.28871411e+02
428             	3.28898339e+02
429             	3.28893333e+02
430             	3.28930325e+02
431             	3.28930471e+02
432             	3.28968049e+02
433             	3.28963985e+02
434             	3.28999515e+02
435             	3.28990608e+02
436             	3.29020310e+02
437             	3.29006565e+02
438             	3.29032070e+02
439             	3.29025812e+02
440             	3.29062880e+02
441             	3.29053886e+02
442             	3.29085989e+02
443             	3.29083263e+02
444             	3.29123926e+02
445             	3.29122982e+02
446             	3.29168193e+02
447             	3.29160970e+02
448             	3.29197279e+02
449             	3.29182694e+02
450             	3.29208250e+02
451             	3.29185669e+02
452             	3.29200081e+02
453             	3.29171621e+02
454             	3.29197840e+02
455             	3.29160406e+02
456             	3.29159520e+02
457             	3.29124943e+02
458             	3.29128469e+02
459             	3.29096675e+02
460             	3.29104298e+02
461             	3.29077198e+02
462             	3.29082678e+02
463             	3.29063206e+02
464             	3.29088913e+02
465             	3.29077042e+02
466             	3.29119493e+02
467             	3.29112535e+02
468             	3.29148945e+02
469             	3.29142026e+02
470             	3.29176465e+02
471             	3.29166559e+02
472             	3.29193793e+02
473             	3.29169737e+02
474             	3.29181470e+02
475             	3.29140998e+02
476             	3.29149688e+02
477             	3.29092606e+02
478             	3.29072381e+02
479             	3.29008385e+02
480             	3.28951825e+02
481             	3.28946380e+02
482             	3.28907556e+02
483             	3.28913298e+02
484             	3.28890427e+02
485             	3.28909814e+02
486             	3.28897168e+02
487             	3.28926169e+02
488             	3.28966263e+02
489             	3.28967186e+02
490             	3.29012194e+02
491             	3.29018672e+02
492             	3.29064752e+02
493             	3.29066861e+02
494             	3.29110148e+02
495             	3.29106604e+02
496             	3.29152049e+02
497             	3.29136358e+02
498             	3.29110178e+02
499             	3.29072940e+02
500             	3.29073367e+02
501             	3.29034683e+02
502             	3.29032592e+02
503             	3.28984832e+02
504             	3.28972546e+02
505             	3.28924351e+02
506             	3.28913309e+02
507             	3.28872081e+02
508             	3.28870881e+02
509             	3.28898920e+02
510             	3.28881127e+02
511             	3.28906781e+02
512             	3.28899172e+02
513             	3.28934868e+02
514             	3.28936010e+02
515             	3.28980284e+02
516             	3.28988309e+02
517             	3.29039404e+02
518             	3.29054753e+02
519             	3.29122784e+02
520             	3.29131902e+02
521             	3.29131804e+02
522             	3.29181768e+02
523             	3.29185193e+02
524             	3.29231082e+02
525             	3.29214752e+02
526             	3.29232766e+02
527             	3.29215555e+02
528             	3.29231594e+02
529             	3.29201417e+02
530             	3.29200823e+02
531             	3.29160065e+02
532             	3.29148995e+02
533             	3.29102258e+02
534             	3.29087801e+02
535             	3.29080605e+02
536             	3.29043605e+02
537             	3.29052105e+02
538             	3.29028050e+02
539             	3.29051336e+02
540             	3.29043761e+02
541             	3.29083277e+02
542             	3.29078451e+02
543             	3.29116998e+02
544             	3.29105735e+02
545             	3.29133208e+02
546             	3.29106357e+02
547             	3.29060150e+02
548             	3.29048141e+02
549             	3.28986356e+02
550             	3.28957112e+02
551             	3.28935193e+02
552             	3.28917528e+02
553             	3.28903106e+02
554             	3.28890958e+02
555             	3.28882721e+02
556             	3.28878651e+02
557             	3.28877069e+02
558             	3.28878595e+02
559             	3.28881600e+02
560             	3.28885723e+02
561             	3.28890282e+02
562             	3.28894556e+02
563             	3.28898120e+02
564             	3.28901254e+02
565             	3.28901875e+02
566             	3.28899289e+02
567             	3.28858918e+02
568             	3.28865570e+02
569             	3.28826291e+02
570             	3.28830659e+02
571             	3.28783791e+02
572             	3.28780945e+02
573             	3.28735138e+02
574             	3.28728206e+02
575             	3.28695465e+02
576             	3.28703716e+02
577             	3.28741941e+02
578             	3.28783391e+02
579             	3.28778207e+02
580             	3.28812878e+02
581             	3.28815538e+02
582             	3.28856607e+02
583             	3.28867467e+02
584             	3.28927298e+02
585             	3.28926198e+02
586             	3.28966887e+02
587             	3.28956095e+02
588             	3.28934519e+02
589             	3.28961099e+02
590             	3.28934958e+02
591             	3.28949783e+02
592             	3.28910914e+02
593             	3.28908508e+02
594             	3.28876949e+02
595             	3.28880340e+02
596             	3.28836516e+02
597             	3.28824036e+02
598             	3.28806484e+02
599             	3.28807555e+02
600             	3.28840716e+02
601             	3.28846837e+02
602             	3.28907404e+02
603             	3.28917192e+02
604             	3.28973060e+02
605             	3.28969701e+02
606             	3.29002371e+02
607             	3.28998073e+02
608             	3.29018665e+02
609             	3.28987708e+02
610             	3.28982855e+02
611             	3.28977851e+02
612             	3.28940662e+02
613             	3.28930694e+02
614             	3.28931893e+02
615             	3.28918754e+02
616             	3.28959464e+02
617             	3.28971603e+02
618             	3.29034320e+02
619             	3.29068190e+02
620             	3.29165124e+02
621             	3.29190518e+02
