# Region        : cellZone component_0
# Cells         : 204
# Volume        : 3.70513332e-01
# Time          	volAverage(T)
1               	3.00147359e+02
2               	3.00293821e+02
3               	3.00432245e+02
4               	3.00565936e+02
5               	3.00697142e+02
6               	3.00826846e+02
7               	3.00956107e+02
8               	3.01085077e+02
9               	3.01214114e+02
10              	3.01342481e+02
11              	3.01469626e+02
12              	3.01594452e+02
13              	3.01718215e+02
14              	3.01840683e+02
15              	3.01962588e+02
16              	3.02084159e+02
17              	3.02203918e+02
18              	3.02322146e+02
19              	3.02438670e+02
20              	3.02552866e+02
21              	3.02668251e+02
22              	3.02781265e+02
23              	3.02890756e+02
24              	3.02995897e+02
25              	3.03098061e+02
26              	3.03199573e+02
27              	3.03302341e+02
28              	3.03403060e+02
29              	3.03498206e+02
30              	3.03593711e+02
31              	3.03688778e+02
32              	3.03786894e+02
33              	3.03882363e+02
34              	3.03967728e+02
35              	3.04042305e+02
36              	3.04115933e+02
37              	3.04191211e+02
38              	3.04268770e+02
39              	3.04344865e+02
40              	3.04417562e+02
41              	3.04491911e+02
42              	3.04568686e+02
43              	3.04645164e+02
44              	3.04721397e+02
45              	3.04789674e+02
46              	3.04848507e+02
47              	3.04903938e+02
48              	3.04955493e+02
49              	3.05011415e+02
50              	3.05068940e+02
51              	3.05125719e+02
52              	3.05180876e+02
53              	3.05236962e+02
54              	3.05294543e+02
55              	3.05359758e+02
56              	3.05414277e+02
57              	3.05460926e+02
58              	3.05501488e+02
59              	3.05541796e+02
60              	3.05587811e+02
61              	3.05636986e+02
62              	3.05683376e+02
63              	3.05726898e+02
64              	3.05772285e+02
65              	3.05821528e+02
66              	3.05879642e+02
67              	3.05926502e+02
68              	3.05963225e+02
69              	3.05993299e+02
70              	3.06024222e+02
71              	3.06061261e+02
72              	3.06097749e+02
73              	3.06133589e+02
74              	3.06167267e+02
75              	3.06199723e+02
76              	3.06232526e+02
77              	3.06268733e+02
78              	3.06309262e+02
79              	3.06352536e+02
80              	3.06394976e+02
81              	3.06432908e+02
82              	3.06471372e+02
83              	3.06507416e+02
84              	3.06545125e+02
85              	3.06582741e+02
86              	3.06617342e+02
87              	3.06648963e+02
88              	3.06679692e+02
89              	3.06712296e+02
90              	3.06746722e+02
91              	3.06783755e+02
92              	3.06823165e+02
93              	3.06863406e+02
94              	3.06901701e+02
95              	3.06935886e+02
96              	3.06971107e+02
97              	3.07004134e+02
98              	3.07035072e+02
99              	3.07063360e+02
100             	3.07089401e+02
101             	3.07115867e+02
102             	3.07143718e+02
103             	3.07173580e+02
104             	3.07206061e+02
105             	3.07240365e+02
106             	3.07274083e+02
107             	3.07305209e+02
108             	3.07335489e+02
109             	3.07366127e+02
110             	3.07395347e+02
111             	3.07422267e+02
112             	3.07446297e+02
113             	3.07469278e+02
114             	3.07493125e+02
115             	3.07517972e+02
116             	3.07544438e+02
117             	3.07573018e+02
118             	3.07601773e+02
119             	3.07629137e+02
120             	3.07654814e+02
121             	3.07678431e+02
122             	3.07701163e+02
123             	3.07721726e+02
124             	3.07741232e+02
125             	3.07760301e+02
126             	3.07779422e+02
127             	3.07800117e+02
128             	3.07823118e+02
129             	3.07847181e+02
130             	3.07871931e+02
131             	3.07896093e+02
132             	3.07918704e+02
133             	3.07939283e+02
134             	3.07959148e+02
135             	3.07978190e+02
136             	3.07995695e+02
137             	3.08011528e+02
138             	3.08027492e+02
139             	3.08042681e+02
140             	3.08058166e+02
141             	3.08075005e+02
142             	3.08092964e+02
143             	3.08111803e+02
144             	3.08130594e+02
145             	3.08148469e+02
146             	3.08166049e+02
147             	3.08183654e+02
148             	3.08200577e+02
149             	3.08216629e+02
150             	3.08231963e+02
151             	3.08247402e+02
152             	3.08262959e+02
153             	3.08278852e+02
154             	3.08294936e+02
155             	3.08311368e+02
156             	3.08327976e+02
157             	3.08342647e+02
158             	3.08357595e+02
159             	3.08372481e+02
160             	3.08386503e+02
161             	3.08399771e+02
162             	3.08412668e+02
163             	3.08425382e+02
164             	3.08438157e+02
165             	3.08450989e+02
166             	3.08464157e+02
167             	3.08477829e+02
168             	3.08491832e+02
169             	3.08505987e+02
170             	3.08520089e+02
171             	3.08532918e+02
172             	3.08544535e+02
173             	3.08556207e+02
174             	3.08567582e+02
175             	3.08578270e+02
176             	3.08588515e+02
177             	3.08598661e+02
178             	3.08609687e+02
179             	3.08620499e+02
180             	3.08631985e+02
181             	3.08643701e+02
182             	3.08655897e+02
183             	3.08668059e+02
184             	3.08678904e+02
185             	3.08690013e+02
186             	3.08700418e+02
187             	3.08709921e+02
188             	3.08718779e+02
189             	3.08727202e+02
190             	3.08736204e+02
191             	3.08745090e+02
192             	3.08754110e+02
193             	3.08763816e+02
194             	3.08774238e+02
195             	3.08783869e+02
196             	3.08793585e+02
197             	3.08802546e+02
198             	3.08811475e+02
199             	3.08819949e+02
200             	3.08827910e+02
201             	3.08835179e+02
202             	3.08842692e+02
203             	3.08850814e+02
204             	3.08858768e+02
205             	3.08867195e+02
206             	3.08876089e+02
207             	3.08885352e+02
208             	3.08893554e+02
209             	3.08902225e+02
210             	3.08910490e+02
211             	3.08918120e+02
212             	3.08925341e+02
213             	3.08932422e+02
214             	3.08939536e+02
215             	3.08945823e+02
216             	3.08952272e+02
217             	3.08959085e+02
218             	3.08966235e+02
219             	3.08973564e+02
220             	3.08980845e+02
221             	3.08987992e+02
222             	3.08995161e+02
223             	3.09002095e+02
224             	3.09008780e+02
225             	3.09015227e+02
226             	3.09021536e+02
227             	3.09027527e+02
228             	3.09033721e+02
229             	3.09039967e+02
230             	3.09046200e+02
231             	3.09052404e+02
232             	3.09058492e+02
233             	3.09064551e+02
234             	3.09070564e+02
235             	3.09076500e+02
236             	3.09082344e+02
237             	3.09088099e+02
238             	3.09093892e+02
239             	3.09099612e+02
240             	3.09105281e+02
241             	3.09110724e+02
242             	3.09116293e+02
243             	3.09121792e+02
244             	3.09127143e+02
245             	3.09132383e+02
246             	3.09137511e+02
247             	3.09142511e+02
248             	3.09147560e+02
249             	3.09152513e+02
250             	3.09157384e+02
251             	3.09162227e+02
252             	3.09167217e+02
253             	3.09172128e+02
254             	3.09177072e+02
255             	3.09181907e+02
256             	3.09186432e+02
257             	3.09190976e+02
258             	3.09195409e+02
259             	3.09199766e+02
260             	3.09204128e+02
261             	3.09208362e+02
262             	3.09212658e+02
263             	3.09216989e+02
264             	3.09221237e+02
265             	3.09225473e+02
266             	3.09229476e+02
267             	3.09233568e+02
268             	3.09237598e+02
269             	3.09241615e+02
270             	3.09245480e+02
271             	3.09249347e+02
272             	3.09253166e+02
273             	3.09256971e+02
274             	3.09260726e+02
275             	3.09264492e+02
276             	3.09268190e+02
277             	3.09271888e+02
278             	3.09275505e+02
279             	3.09279076e+02
280             	3.09282626e+02
281             	3.09286051e+02
282             	3.09289356e+02
283             	3.09292677e+02
284             	3.09295936e+02
285             	3.09299157e+02
286             	3.09302349e+02
287             	3.09305534e+02
288             	3.09308701e+02
289             	3.09311858e+02
290             	3.09315006e+02
291             	3.09318026e+02
292             	3.09321087e+02
293             	3.09324128e+02
294             	3.09327121e+02
295             	3.09330062e+02
296             	3.09332955e+02
297             	3.09335810e+02
298             	3.09338591e+02
299             	3.09341306e+02
300             	3.09344025e+02
301             	3.09346712e+02
302             	3.09349360e+02
303             	3.09351985e+02
304             	3.09354630e+02
305             	3.09357267e+02
306             	3.09359860e+02
307             	3.09362446e+02
308             	3.09364951e+02
309             	3.09367472e+02
310             	3.09369979e+02
311             	3.09372447e+02
312             	3.09374864e+02
313             	3.09377237e+02
314             	3.09379576e+02
315             	3.09381884e+02
316             	3.09384178e+02
317             	3.09386446e+02
318             	3.09388696e+02
319             	3.09390933e+02
320             	3.09393161e+02
321             	3.09395379e+02
322             	3.09397578e+02
323             	3.09399764e+02
324             	3.09401904e+02
325             	3.09404030e+02
326             	3.09406080e+02
327             	3.09408121e+02
328             	3.09410117e+02
329             	3.09412088e+02
330             	3.09414027e+02
331             	3.09415946e+02
332             	3.09417848e+02
333             	3.09419727e+02
334             	3.09421604e+02
335             	3.09423470e+02
336             	3.09425327e+02
337             	3.09427182e+02
338             	3.09429034e+02
339             	3.09430868e+02
340             	3.09432690e+02
341             	3.09434485e+02
342             	3.09436251e+02
343             	3.09437986e+02
344             	3.09439682e+02
345             	3.09441339e+02
346             	3.09442967e+02
347             	3.09444563e+02
348             	3.09446154e+02
349             	3.09447722e+02
350             	3.09449280e+02
351             	3.09450827e+02
352             	3.09452373e+02
353             	3.09453931e+02
354             	3.09455480e+02
355             	3.09457022e+02
356             	3.09458542e+02
357             	3.09460035e+02
358             	3.09461505e+02
359             	3.09462959e+02
360             	3.09464384e+02
361             	3.09465777e+02
362             	3.09467153e+02
363             	3.09468507e+02
364             	3.09469849e+02
365             	3.09471188e+02
366             	3.09472516e+02
367             	3.09473834e+02
368             	3.09475145e+02
369             	3.09476449e+02
370             	3.09477744e+02
371             	3.09479016e+02
372             	3.09480276e+02
373             	3.09481481e+02
374             	3.09482685e+02
375             	3.09483871e+02
376             	3.09485051e+02
377             	3.09486202e+02
378             	3.09487348e+02
379             	3.09488496e+02
380             	3.09489639e+02
381             	3.09490780e+02
382             	3.09491916e+02
383             	3.09493049e+02
384             	3.09494173e+02
385             	3.09495280e+02
386             	3.09496357e+02
387             	3.09497421e+02
388             	3.09498468e+02
389             	3.09499493e+02
390             	3.09500496e+02
391             	3.09501479e+02
392             	3.09502464e+02
393             	3.09503449e+02
394             	3.09504413e+02
395             	3.09505379e+02
396             	3.09506347e+02
397             	3.09507306e+02
398             	3.09508256e+02
399             	3.09509195e+02
400             	3.09510121e+02
401             	3.09511035e+02
402             	3.09511932e+02
403             	3.09512806e+02
404             	3.09513671e+02
405             	3.09514528e+02
406             	3.09515371e+02
407             	3.09516206e+02
408             	3.09517035e+02
409             	3.09517865e+02
410             	3.09518684e+02
411             	3.09519498e+02
412             	3.09520311e+02
413             	3.09521120e+02
414             	3.09521919e+02
415             	3.09522710e+02
416             	3.09523494e+02
417             	3.09524269e+02
418             	3.09525030e+02
419             	3.09525772e+02
420             	3.09526509e+02
421             	3.09527230e+02
422             	3.09527940e+02
423             	3.09528640e+02
424             	3.09529332e+02
425             	3.09530014e+02
426             	3.09530692e+02
427             	3.09531365e+02
428             	3.09532035e+02
429             	3.09532701e+02
430             	3.09533359e+02
431             	3.09534013e+02
432             	3.09534662e+02
433             	3.09535302e+02
434             	3.09535937e+02
435             	3.09536566e+02
436             	3.09537183e+02
437             	3.09537793e+02
438             	3.09538398e+02
439             	3.09538992e+02
440             	3.09539581e+02
441             	3.09540163e+02
442             	3.09540737e+02
443             	3.09541308e+02
444             	3.09541876e+02
445             	3.09542434e+02
446             	3.09542990e+02
447             	3.09543543e+02
448             	3.09544087e+02
449             	3.09544629e+02
450             	3.09545165e+02
451             	3.09545692e+02
452             	3.09546214e+02
453             	3.09546731e+02
454             	3.09547238e+02
455             	3.09547741e+02
456             	3.09548239e+02
457             	3.09548727e+02
458             	3.09549213e+02
459             	3.09549694e+02
460             	3.09550167e+02
461             	3.09550636e+02
462             	3.09551102e+02
463             	3.09551560e+02
464             	3.09552015e+02
465             	3.09552468e+02
466             	3.09552913e+02
467             	3.09553357e+02
468             	3.09553797e+02
469             	3.09554228e+02
470             	3.09554657e+02
471             	3.09555082e+02
472             	3.09555497e+02
473             	3.09555910e+02
474             	3.09556319e+02
475             	3.09556719e+02
476             	3.09557116e+02
477             	3.09557512e+02
478             	3.09557897e+02
479             	3.09558282e+02
480             	3.09558665e+02
481             	3.09559040e+02
482             	3.09559415e+02
483             	3.09559789e+02
484             	3.09560155e+02
485             	3.09560521e+02
486             	3.09560885e+02
487             	3.09561243e+02
488             	3.09561600e+02
489             	3.09561956e+02
490             	3.09562304e+02
491             	3.09562652e+02
492             	3.09562999e+02
493             	3.09563338e+02
494             	3.09563676e+02
495             	3.09564014e+02
496             	3.09564343e+02
497             	3.09564672e+02
498             	3.09565000e+02
499             	3.09565321e+02
500             	3.09565642e+02
501             	3.09565962e+02
502             	3.09566275e+02
503             	3.09566588e+02
504             	3.09566901e+02
505             	3.09567205e+02
506             	3.09567510e+02
507             	3.09567813e+02
508             	3.09568108e+02
509             	3.09568403e+02
510             	3.09568696e+02
511             	3.09568981e+02
512             	3.09569266e+02
513             	3.09569551e+02
514             	3.09569827e+02
515             	3.09570106e+02
516             	3.09570384e+02
517             	3.09570654e+02
518             	3.09570926e+02
519             	3.09571198e+02
520             	3.09571462e+02
521             	3.09571728e+02
522             	3.09571993e+02
523             	3.09572250e+02
524             	3.09572508e+02
525             	3.09572766e+02
526             	3.09573016e+02
527             	3.09573267e+02
528             	3.09573517e+02
529             	3.09573760e+02
530             	3.09574004e+02
531             	3.09574248e+02
532             	3.09574485e+02
533             	3.09574722e+02
534             	3.09574959e+02
535             	3.09575189e+02
536             	3.09575421e+02
537             	3.09575652e+02
538             	3.09575877e+02
539             	3.09576103e+02
540             	3.09576329e+02
541             	3.09576548e+02
542             	3.09576768e+02
543             	3.09576987e+02
544             	3.09577200e+02
545             	3.09577414e+02
546             	3.09577626e+02
547             	3.09577832e+02
548             	3.09578039e+02
549             	3.09578244e+02
550             	3.09578443e+02
551             	3.09578643e+02
552             	3.09578843e+02
553             	3.09579037e+02
554             	3.09579231e+02
555             	3.09579427e+02
556             	3.09579616e+02
557             	3.09579807e+02
558             	3.09579998e+02
559             	3.09580183e+02
560             	3.09580369e+02
561             	3.09580556e+02
562             	3.09580737e+02
563             	3.09580918e+02
564             	3.09581100e+02
565             	3.09581275e+02
566             	3.09581452e+02
567             	3.09581629e+02
568             	3.09581801e+02
569             	3.09581973e+02
570             	3.09582147e+02
571             	3.09582315e+02
572             	3.09582485e+02
573             	3.09582655e+02
574             	3.09582820e+02
575             	3.09582986e+02
576             	3.09583152e+02
577             	3.09583312e+02
578             	3.09583473e+02
579             	3.09583634e+02
580             	3.09583789e+02
581             	3.09583944e+02
582             	3.09584099e+02
583             	3.09584249e+02
584             	3.09584400e+02
585             	3.09584551e+02
586             	3.09584697e+02
587             	3.09584844e+02
588             	3.09584992e+02
589             	3.09585135e+02
590             	3.09585280e+02
591             	3.09585425e+02
592             	3.09585565e+02
593             	3.09585707e+02
594             	3.09585849e+02
595             	3.09585986e+02
596             	3.09586124e+02
597             	3.09586262e+02
598             	3.09586396e+02
599             	3.09586530e+02
600             	3.09586665e+02
601             	3.09586796e+02
602             	3.09586927e+02
603             	3.09587059e+02
604             	3.09587186e+02
605             	3.09587314e+02
606             	3.09587442e+02
607             	3.09587566e+02
608             	3.09587691e+02
609             	3.09587815e+02
610             	3.09587936e+02
611             	3.09588058e+02
612             	3.09588179e+02
613             	3.09588297e+02
614             	3.09588415e+02
615             	3.09588534e+02
616             	3.09588649e+02
617             	3.09588765e+02
618             	3.09588882e+02
619             	3.09588994e+02
620             	3.09589108e+02
621             	3.09589222e+02
