# Region        : cellZone component_3
# Cells         : 32
# Volume        : 3.51363723e-02
# Time          	volAverage(T)
1               	3.04813839e+02
2               	3.09501847e+02
3               	3.12979025e+02
4               	3.15818494e+02
5               	3.18488471e+02
6               	3.21146136e+02
7               	3.23717646e+02
8               	3.26175865e+02
9               	3.28599131e+02
10              	3.30897400e+02
11              	3.33004163e+02
12              	3.34828859e+02
13              	3.36492979e+02
14              	3.37735880e+02
15              	3.38980682e+02
16              	3.39962219e+02
17              	3.40720935e+02
18              	3.41077381e+02
19              	3.41401388e+02
20              	3.42125159e+02
21              	3.43105727e+02
22              	3.44606435e+02
23              	3.46122675e+02
24              	3.47790634e+02
25              	3.49570338e+02
26              	3.51293489e+02
27              	3.52622954e+02
28              	3.53811549e+02
29              	3.54619309e+02
30              	3.55409274e+02
31              	3.55799416e+02
32              	3.56108796e+02
33              	3.56306012e+02
34              	3.56399534e+02
35              	3.56368704e+02
36              	3.56215795e+02
37              	3.56102079e+02
38              	3.55798182e+02
39              	3.55552372e+02
40              	3.55160559e+02
41              	3.54775135e+02
42              	3.53893392e+02
43              	3.52832216e+02
44              	3.52047067e+02
45              	3.51512415e+02
46              	3.51418820e+02
47              	3.51529312e+02
48              	3.51719074e+02
49              	3.51829879e+02
50              	3.52087406e+02
51              	3.52280954e+02
52              	3.52594853e+02
53              	3.52665994e+02
54              	3.52620523e+02
55              	3.52645276e+02
56              	3.52787319e+02
57              	3.52847658e+02
58              	3.52844419e+02
59              	3.52688484e+02
60              	3.52492220e+02
61              	3.52074172e+02
62              	3.51648924e+02
63              	3.51282938e+02
64              	3.51030500e+02
65              	3.51022299e+02
66              	3.51284231e+02
67              	3.51685214e+02
68              	3.52103501e+02
69              	3.52426093e+02
70              	3.52810817e+02
71              	3.53187090e+02
72              	3.53532436e+02
73              	3.53826754e+02
74              	3.54089518e+02
75              	3.54230663e+02
76              	3.54181791e+02
77              	3.53990180e+02
78              	3.53715752e+02
79              	3.53721515e+02
80              	3.53862535e+02
81              	3.53800209e+02
82              	3.53575994e+02
83              	3.53456424e+02
84              	3.53666433e+02
85              	3.53990465e+02
86              	3.54361736e+02
87              	3.54771637e+02
88              	3.55038577e+02
89              	3.55338515e+02
90              	3.55679516e+02
91              	3.55916180e+02
92              	3.56123298e+02
93              	3.56272226e+02
94              	3.56373364e+02
95              	3.56416117e+02
96              	3.56424310e+02
97              	3.56433120e+02
98              	3.56434920e+02
99              	3.56431165e+02
100             	3.56482054e+02
101             	3.56606759e+02
102             	3.56797589e+02
103             	3.57014866e+02
104             	3.57274953e+02
105             	3.57560511e+02
106             	3.57875169e+02
107             	3.58048077e+02
108             	3.58275586e+02
109             	3.58533983e+02
110             	3.58812279e+02
111             	3.58968307e+02
112             	3.59081336e+02
113             	3.59187112e+02
114             	3.59242350e+02
115             	3.59242375e+02
116             	3.59243082e+02
117             	3.59208210e+02
118             	3.59121465e+02
119             	3.59092861e+02
120             	3.59153156e+02
121             	3.59258387e+02
122             	3.59445800e+02
123             	3.59708796e+02
124             	3.59995990e+02
125             	3.60238134e+02
126             	3.60541500e+02
127             	3.60825908e+02
128             	3.60999128e+02
129             	3.61211825e+02
130             	3.61457036e+02
131             	3.61573920e+02
132             	3.61695708e+02
133             	3.61775144e+02
134             	3.61831057e+02
135             	3.61878163e+02
136             	3.61895425e+02
137             	3.61883305e+02
138             	3.61866134e+02
139             	3.61860785e+02
140             	3.61853847e+02
141             	3.61829372e+02
142             	3.61781476e+02
143             	3.61730097e+02
144             	3.61621756e+02
145             	3.61509049e+02
146             	3.61435163e+02
147             	3.61403832e+02
148             	3.61424637e+02
149             	3.61378516e+02
150             	3.61360664e+02
151             	3.61369093e+02
152             	3.61406529e+02
153             	3.61446153e+02
154             	3.61493165e+02
155             	3.61544260e+02
156             	3.61604755e+02
157             	3.61647155e+02
158             	3.61682742e+02
159             	3.61720766e+02
160             	3.61755806e+02
161             	3.61792728e+02
162             	3.61825376e+02
163             	3.61801097e+02
164             	3.61732645e+02
165             	3.61668860e+02
166             	3.61716607e+02
167             	3.61775325e+02
168             	3.61881752e+02
169             	3.61947487e+02
170             	3.62054442e+02
171             	3.62178420e+02
172             	3.62309778e+02
173             	3.62455617e+02
174             	3.62580823e+02
175             	3.62689049e+02
176             	3.62820328e+02
177             	3.62823783e+02
178             	3.62853574e+02
179             	3.62900756e+02
180             	3.62956500e+02
181             	3.62997588e+02
182             	3.63010560e+02
183             	3.63008171e+02
184             	3.63040402e+02
185             	3.63070257e+02
186             	3.63114510e+02
187             	3.63141988e+02
188             	3.63127810e+02
189             	3.63128538e+02
190             	3.63194347e+02
191             	3.63283232e+02
192             	3.63355702e+02
193             	3.63435836e+02
194             	3.63487472e+02
195             	3.63592919e+02
196             	3.63729220e+02
197             	3.63848215e+02
198             	3.64003571e+02
199             	3.64069157e+02
200             	3.64103782e+02
201             	3.64147169e+02
202             	3.64196988e+02
203             	3.64235365e+02
204             	3.64258030e+02
205             	3.64265054e+02
206             	3.64263358e+02
207             	3.64255828e+02
208             	3.64231966e+02
209             	3.64199103e+02
210             	3.64127608e+02
211             	3.64120682e+02
212             	3.64157872e+02
213             	3.64183303e+02
214             	3.64187046e+02
215             	3.64179929e+02
216             	3.64176187e+02
217             	3.64181489e+02
218             	3.64194833e+02
219             	3.64212241e+02
220             	3.64228220e+02
221             	3.64241097e+02
222             	3.64270660e+02
223             	3.64263051e+02
224             	3.64227227e+02
225             	3.64203172e+02
226             	3.64179799e+02
227             	3.64158836e+02
228             	3.64140650e+02
229             	3.64122883e+02
230             	3.64103930e+02
231             	3.64074098e+02
232             	3.64049809e+02
233             	3.64018101e+02
234             	3.63970085e+02
235             	3.63996445e+02
236             	3.63996741e+02
237             	3.64028376e+02
238             	3.64092436e+02
239             	3.64117355e+02
240             	3.64105430e+02
241             	3.64095286e+02
242             	3.64100059e+02
243             	3.64116704e+02
244             	3.64127800e+02
245             	3.64144835e+02
246             	3.64182390e+02
247             	3.64182970e+02
248             	3.64219448e+02
249             	3.64276343e+02
250             	3.64328141e+02
251             	3.64358938e+02
252             	3.64359794e+02
253             	3.64358183e+02
254             	3.64357282e+02
255             	3.64334863e+02
256             	3.64320503e+02
257             	3.64333101e+02
258             	3.64345100e+02
259             	3.64330332e+02
260             	3.64339155e+02
261             	3.64348801e+02
262             	3.64341529e+02
263             	3.64330847e+02
264             	3.64323033e+02
265             	3.64325448e+02
266             	3.64347860e+02
267             	3.64370822e+02
268             	3.64389200e+02
269             	3.64401942e+02
270             	3.64412524e+02
271             	3.64421675e+02
272             	3.64430200e+02
273             	3.64442310e+02
274             	3.64442240e+02
275             	3.64453365e+02
276             	3.64473715e+02
277             	3.64497573e+02
278             	3.64530254e+02
279             	3.64569195e+02
280             	3.64617321e+02
281             	3.64662134e+02
282             	3.64685002e+02
283             	3.64699367e+02
284             	3.64715024e+02
285             	3.64733938e+02
286             	3.64753487e+02
287             	3.64762569e+02
288             	3.64767826e+02
289             	3.64765594e+02
290             	3.64759711e+02
291             	3.64769640e+02
292             	3.64781137e+02
293             	3.64787122e+02
294             	3.64783941e+02
295             	3.64784324e+02
296             	3.64780233e+02
297             	3.64767276e+02
298             	3.64754744e+02
299             	3.64750285e+02
300             	3.64753094e+02
301             	3.64761023e+02
302             	3.64773262e+02
303             	3.64783068e+02
304             	3.64790992e+02
305             	3.64792597e+02
306             	3.64792587e+02
307             	3.64799287e+02
308             	3.64803474e+02
309             	3.64805186e+02
310             	3.64811656e+02
311             	3.64822126e+02
312             	3.64833005e+02
313             	3.64841405e+02
314             	3.64852397e+02
315             	3.64869953e+02
316             	3.64890492e+02
317             	3.64902087e+02
318             	3.64908322e+02
319             	3.64912509e+02
320             	3.64916897e+02
321             	3.64919659e+02
322             	3.64920332e+02
323             	3.64921380e+02
324             	3.64917303e+02
325             	3.64909990e+02
326             	3.64904079e+02
327             	3.64897162e+02
328             	3.64888414e+02
329             	3.64880706e+02
330             	3.64872078e+02
331             	3.64864349e+02
332             	3.64856941e+02
333             	3.64848919e+02
334             	3.64841024e+02
335             	3.64834539e+02
336             	3.64827969e+02
337             	3.64822363e+02
338             	3.64817943e+02
339             	3.64814346e+02
340             	3.64812646e+02
341             	3.64814173e+02
342             	3.64815702e+02
343             	3.64819010e+02
344             	3.64824717e+02
345             	3.64830423e+02
346             	3.64836197e+02
347             	3.64843043e+02
348             	3.64851800e+02
349             	3.64860139e+02
350             	3.64870126e+02
351             	3.64879937e+02
352             	3.64888706e+02
353             	3.64899451e+02
354             	3.64907468e+02
355             	3.64913724e+02
356             	3.64920631e+02
357             	3.64927449e+02
358             	3.64932395e+02
359             	3.64937849e+02
360             	3.64941439e+02
361             	3.64943980e+02
362             	3.64944648e+02
363             	3.64946710e+02
364             	3.64948991e+02
365             	3.64951433e+02
366             	3.64952171e+02
367             	3.64951939e+02
368             	3.64953220e+02
369             	3.64956222e+02
370             	3.64959060e+02
371             	3.64962100e+02
372             	3.64964403e+02
373             	3.64965937e+02
374             	3.64966212e+02
375             	3.64963012e+02
376             	3.64960302e+02
377             	3.64960177e+02
378             	3.64962325e+02
379             	3.64966706e+02
380             	3.64973150e+02
381             	3.64980425e+02
382             	3.64984229e+02
383             	3.64986215e+02
384             	3.64988380e+02
385             	3.64990509e+02
386             	3.64994468e+02
387             	3.64997243e+02
388             	3.65000273e+02
389             	3.65003942e+02
390             	3.65006339e+02
391             	3.65007767e+02
392             	3.65009638e+02
393             	3.65010948e+02
394             	3.65010835e+02
395             	3.65011542e+02
396             	3.65011513e+02
397             	3.65010907e+02
398             	3.65011269e+02
399             	3.65012116e+02
400             	3.65012714e+02
401             	3.65014803e+02
402             	3.65016366e+02
403             	3.65018268e+02
404             	3.65019729e+02
405             	3.65020180e+02
406             	3.65022134e+02
407             	3.65022008e+02
408             	3.65020262e+02
409             	3.65018694e+02
410             	3.65018574e+02
411             	3.65018120e+02
412             	3.65016662e+02
413             	3.65017124e+02
414             	3.65017075e+02
415             	3.65016514e+02
416             	3.65017022e+02
417             	3.65017707e+02
418             	3.65018235e+02
419             	3.65019520e+02
420             	3.65020027e+02
421             	3.65020111e+02
422             	3.65021281e+02
423             	3.65021804e+02
424             	3.65022680e+02
425             	3.65024638e+02
426             	3.65025387e+02
427             	3.65025228e+02
428             	3.65025756e+02
429             	3.65024993e+02
430             	3.65023567e+02
431             	3.65024018e+02
432             	3.65024392e+02
433             	3.65024797e+02
434             	3.65026159e+02
435             	3.65026415e+02
436             	3.65025536e+02
437             	3.65025079e+02
438             	3.65024331e+02
439             	3.65023702e+02
440             	3.65024129e+02
441             	3.65023706e+02
442             	3.65023082e+02
443             	3.65024065e+02
444             	3.65024569e+02
445             	3.65024681e+02
446             	3.65025713e+02
447             	3.65026221e+02
448             	3.65026480e+02
449             	3.65026948e+02
450             	3.65026521e+02
451             	3.65026234e+02
452             	3.65027258e+02
453             	3.65027406e+02
454             	3.65027639e+02
455             	3.65029286e+02
456             	3.65030467e+02
457             	3.65031204e+02
458             	3.65032959e+02
459             	3.65034484e+02
460             	3.65035017e+02
461             	3.65036404e+02
462             	3.65036895e+02
463             	3.65036947e+02
464             	3.65037986e+02
465             	3.65038644e+02
466             	3.65039080e+02
467             	3.65040382e+02
468             	3.65040937e+02
469             	3.65041090e+02
470             	3.65042121e+02
471             	3.65042481e+02
472             	3.65042449e+02
473             	3.65043208e+02
474             	3.65043085e+02
475             	3.65042406e+02
476             	3.65042600e+02
477             	3.65041958e+02
478             	3.65040775e+02
479             	3.65040427e+02
480             	3.65039805e+02
481             	3.65038791e+02
482             	3.65039137e+02
483             	3.65038997e+02
484             	3.65038460e+02
485             	3.65038768e+02
486             	3.65038476e+02
487             	3.65037957e+02
488             	3.65038635e+02
489             	3.65038377e+02
490             	3.65037862e+02
491             	3.65038240e+02
492             	3.65038008e+02
493             	3.65037581e+02
494             	3.65038296e+02
495             	3.65038801e+02
496             	3.65039247e+02
497             	3.65040526e+02
498             	3.65041023e+02
499             	3.65041057e+02
500             	3.65042036e+02
501             	3.65042273e+02
502             	3.65042060e+02
503             	3.65042648e+02
504             	3.65042511e+02
505             	3.65041952e+02
506             	3.65042273e+02
507             	3.65041905e+02
508             	3.65041159e+02
509             	3.65041079e+02
510             	3.65040939e+02
511             	3.65040683e+02
512             	3.65041273e+02
513             	3.65041101e+02
514             	3.65040503e+02
515             	3.65040698e+02
516             	3.65040350e+02
517             	3.65039814e+02
518             	3.65040428e+02
519             	3.65040679e+02
520             	3.65040739e+02
521             	3.65041792e+02
522             	3.65042244e+02
523             	3.65042331e+02
524             	3.65043426e+02
525             	3.65043936e+02
526             	3.65044198e+02
527             	3.65045498e+02
528             	3.65046413e+02
529             	3.65046697e+02
530             	3.65047740e+02
531             	3.65048172e+02
532             	3.65048283e+02
533             	3.65049280e+02
534             	3.65049604e+02
535             	3.65049439e+02
536             	3.65050124e+02
537             	3.65050208e+02
538             	3.65049947e+02
539             	3.65050673e+02
540             	3.65050817e+02
541             	3.65050494e+02
542             	3.65051133e+02
543             	3.65051016e+02
544             	3.65050745e+02
545             	3.65051551e+02
546             	3.65051470e+02
547             	3.65050915e+02
548             	3.65051348e+02
549             	3.65051269e+02
550             	3.65050783e+02
551             	3.65051213e+02
552             	3.65051118e+02
553             	3.65050718e+02
554             	3.65051345e+02
555             	3.65051431e+02
556             	3.65051175e+02
557             	3.65051822e+02
558             	3.65051896e+02
559             	3.65051678e+02
560             	3.65052478e+02
561             	3.65052651e+02
562             	3.65052423e+02
563             	3.65053108e+02
564             	3.65053214e+02
565             	3.65053009e+02
566             	3.65053736e+02
567             	3.65053919e+02
568             	3.65053743e+02
569             	3.65054483e+02
570             	3.65054619e+02
571             	3.65054427e+02
572             	3.65055224e+02
573             	3.65055440e+02
574             	3.65055254e+02
575             	3.65055872e+02
576             	3.65055826e+02
577             	3.65055364e+02
578             	3.65055798e+02
579             	3.65055614e+02
580             	3.65054999e+02
581             	3.65055297e+02
582             	3.65055005e+02
583             	3.65054426e+02
584             	3.65054740e+02
585             	3.65054541e+02
586             	3.65054152e+02
587             	3.65054722e+02
588             	3.65054729e+02
589             	3.65054416e+02
590             	3.65055042e+02
591             	3.65055157e+02
592             	3.65054919e+02
593             	3.65055629e+02
594             	3.65055780e+02
595             	3.65055636e+02
596             	3.65056433e+02
597             	3.65056668e+02
598             	3.65056598e+02
599             	3.65057425e+02
600             	3.65057632e+02
601             	3.65057539e+02
602             	3.65058342e+02
603             	3.65058504e+02
604             	3.65058277e+02
605             	3.65058990e+02
606             	3.65059026e+02
607             	3.65058625e+02
608             	3.65059106e+02
609             	3.65059008e+02
610             	3.65058574e+02
611             	3.65059029e+02
612             	3.65058912e+02
613             	3.65058480e+02
614             	3.65058993e+02
615             	3.65058897e+02
616             	3.65058496e+02
617             	3.65059087e+02
618             	3.65059109e+02
619             	3.65058713e+02
620             	3.65059210e+02
621             	3.65059104e+02
