# Region        : cellZone component_0
# Cells         : 180
# Volume        : 3.20905599e-01
# Time          	volAverage(T)
1               	3.00144571e+02
2               	3.00287511e+02
3               	3.00422167e+02
4               	3.00551055e+02
5               	3.00676370e+02
6               	3.00799185e+02
7               	3.00920033e+02
8               	3.01039146e+02
9               	3.01157582e+02
10              	3.01273117e+02
11              	3.01388279e+02
12              	3.01502344e+02
13              	3.01614912e+02
14              	3.01726411e+02
15              	3.01836108e+02
16              	3.01942399e+02
17              	3.02049257e+02
18              	3.02155876e+02
19              	3.02260829e+02
20              	3.02364032e+02
21              	3.02466954e+02
22              	3.02569092e+02
23              	3.02670863e+02
24              	3.02769559e+02
25              	3.02865768e+02
26              	3.02961345e+02
27              	3.03055166e+02
28              	3.03149420e+02
29              	3.03240953e+02
30              	3.03331506e+02
31              	3.03422859e+02
32              	3.03514189e+02
33              	3.03604373e+02
34              	3.03691656e+02
35              	3.03775499e+02
36              	3.03854500e+02
37              	3.03931511e+02
38              	3.04008686e+02
39              	3.04086843e+02
40              	3.04164065e+02
41              	3.04241712e+02
42              	3.04320658e+02
43              	3.04400232e+02
44              	3.04479042e+02
45              	3.04556534e+02
46              	3.04633369e+02
47              	3.04712046e+02
48              	3.04790868e+02
49              	3.04865792e+02
50              	3.04937224e+02
51              	3.05004299e+02
52              	3.05067778e+02
53              	3.05132233e+02
54              	3.05198206e+02
55              	3.05263858e+02
56              	3.05328962e+02
57              	3.05394110e+02
58              	3.05460013e+02
59              	3.05526378e+02
60              	3.05589759e+02
61              	3.05653980e+02
62              	3.05717243e+02
63              	3.05776459e+02
64              	3.05834285e+02
65              	3.05887344e+02
66              	3.05942253e+02
67              	3.05996680e+02
68              	3.06050809e+02
69              	3.06104965e+02
70              	3.06160810e+02
71              	3.06216084e+02
72              	3.06272111e+02
73              	3.06327471e+02
74              	3.06384758e+02
75              	3.06441820e+02
76              	3.06498239e+02
77              	3.06554538e+02
78              	3.06608621e+02
79              	3.06660846e+02
80              	3.06709338e+02
81              	3.06752969e+02
82              	3.06799688e+02
83              	3.06847895e+02
84              	3.06894357e+02
85              	3.06940529e+02
86              	3.06987005e+02
87              	3.07033055e+02
88              	3.07079589e+02
89              	3.07129252e+02
90              	3.07176977e+02
91              	3.07219623e+02
92              	3.07259146e+02
93              	3.07295160e+02
94              	3.07330118e+02
95              	3.07363667e+02
96              	3.07400482e+02
97              	3.07439638e+02
98              	3.07476611e+02
99              	3.07516528e+02
100             	3.07556608e+02
101             	3.07598043e+02
102             	3.07641252e+02
103             	3.07684017e+02
104             	3.07725530e+02
105             	3.07763789e+02
106             	3.07806313e+02
107             	3.07849666e+02
108             	3.07888920e+02
109             	3.07926305e+02
110             	3.07960716e+02
111             	3.07991794e+02
112             	3.08022391e+02
113             	3.08054245e+02
114             	3.08087416e+02
115             	3.08121303e+02
116             	3.08156176e+02
117             	3.08192599e+02
118             	3.08228835e+02
119             	3.08262637e+02
120             	3.08299221e+02
121             	3.08333677e+02
122             	3.08366510e+02
123             	3.08402080e+02
124             	3.08434422e+02
125             	3.08460993e+02
126             	3.08481602e+02
127             	3.08503991e+02
128             	3.08529112e+02
129             	3.08554579e+02
130             	3.08581985e+02
131             	3.08612455e+02
132             	3.08644362e+02
133             	3.08677026e+02
134             	3.08707716e+02
135             	3.08740152e+02
136             	3.08771350e+02
137             	3.08800382e+02
138             	3.08829211e+02
139             	3.08857047e+02
140             	3.08881498e+02
141             	3.08904972e+02
142             	3.08926274e+02
143             	3.08947444e+02
144             	3.08971474e+02
145             	3.08996307e+02
146             	3.09022960e+02
147             	3.09050771e+02
148             	3.09079401e+02
149             	3.09105805e+02
150             	3.09132414e+02
151             	3.09159061e+02
152             	3.09186527e+02
153             	3.09211541e+02
154             	3.09235303e+02
155             	3.09257067e+02
156             	3.09275434e+02
157             	3.09292618e+02
158             	3.09308609e+02
159             	3.09325994e+02
160             	3.09345733e+02
161             	3.09366909e+02
162             	3.09389352e+02
163             	3.09412979e+02
164             	3.09434643e+02
165             	3.09458482e+02
166             	3.09480606e+02
167             	3.09501628e+02
168             	3.09523466e+02
169             	3.09542738e+02
170             	3.09562093e+02
171             	3.09579333e+02
172             	3.09594305e+02
173             	3.09609487e+02
174             	3.09625345e+02
175             	3.09640902e+02
176             	3.09657017e+02
177             	3.09675083e+02
178             	3.09694956e+02
179             	3.09713896e+02
180             	3.09731908e+02
181             	3.09751424e+02
182             	3.09770875e+02
183             	3.09790261e+02
184             	3.09808207e+02
185             	3.09824930e+02
186             	3.09840204e+02
187             	3.09856254e+02
188             	3.09870547e+02
189             	3.09884846e+02
190             	3.09900192e+02
191             	3.09915783e+02
192             	3.09932381e+02
193             	3.09949053e+02
194             	3.09965453e+02
195             	3.09981027e+02
196             	3.09996470e+02
197             	3.10012177e+02
198             	3.10027177e+02
199             	3.10041589e+02
200             	3.10055602e+02
201             	3.10069144e+02
202             	3.10081991e+02
203             	3.10094840e+02
204             	3.10108099e+02
205             	3.10121078e+02
206             	3.10134086e+02
207             	3.10147508e+02
208             	3.10160854e+02
209             	3.10174260e+02
210             	3.10185994e+02
211             	3.10199128e+02
212             	3.10212362e+02
213             	3.10225149e+02
214             	3.10237633e+02
215             	3.10249438e+02
216             	3.10260723e+02
217             	3.10271493e+02
218             	3.10282042e+02
219             	3.10292613e+02
220             	3.10303566e+02
221             	3.10314315e+02
222             	3.10325461e+02
223             	3.10336707e+02
224             	3.10347901e+02
225             	3.10358954e+02
226             	3.10370019e+02
227             	3.10380508e+02
228             	3.10390857e+02
229             	3.10400630e+02
230             	3.10409976e+02
231             	3.10419421e+02
232             	3.10429045e+02
233             	3.10438535e+02
234             	3.10447975e+02
235             	3.10457351e+02
236             	3.10466628e+02
237             	3.10475843e+02
238             	3.10484992e+02
239             	3.10494091e+02
240             	3.10503234e+02
241             	3.10512250e+02
242             	3.10521342e+02
243             	3.10530344e+02
244             	3.10539448e+02
245             	3.10548260e+02
246             	3.10557220e+02
247             	3.10565951e+02
248             	3.10574688e+02
249             	3.10582981e+02
250             	3.10591316e+02
251             	3.10599252e+02
252             	3.10607261e+02
253             	3.10614925e+02
254             	3.10622616e+02
255             	3.10629829e+02
256             	3.10637133e+02
257             	3.10644125e+02
258             	3.10651075e+02
259             	3.10657853e+02
260             	3.10664961e+02
261             	3.10671698e+02
262             	3.10678717e+02
263             	3.10685712e+02
264             	3.10692599e+02
265             	3.10699458e+02
266             	3.10706411e+02
267             	3.10713244e+02
268             	3.10720160e+02
269             	3.10726935e+02
270             	3.10733711e+02
271             	3.10740406e+02
272             	3.10746989e+02
273             	3.10753340e+02
274             	3.10759662e+02
275             	3.10765653e+02
276             	3.10771645e+02
277             	3.10777290e+02
278             	3.10782789e+02
279             	3.10788239e+02
280             	3.10793936e+02
281             	3.10799337e+02
282             	3.10805030e+02
283             	3.10810572e+02
284             	3.10816425e+02
285             	3.10821929e+02
286             	3.10827595e+02
287             	3.10832975e+02
288             	3.10838522e+02
289             	3.10843735e+02
290             	3.10849049e+02
291             	3.10854057e+02
292             	3.10859213e+02
293             	3.10863872e+02
294             	3.10868719e+02
295             	3.10873339e+02
296             	3.10878129e+02
297             	3.10882666e+02
298             	3.10887488e+02
299             	3.10892037e+02
300             	3.10896856e+02
301             	3.10901402e+02
302             	3.10906125e+02
303             	3.10910534e+02
304             	3.10915076e+02
305             	3.10919446e+02
306             	3.10923986e+02
307             	3.10928207e+02
308             	3.10932579e+02
309             	3.10936567e+02
310             	3.10940663e+02
311             	3.10944484e+02
312             	3.10948481e+02
313             	3.10952196e+02
314             	3.10956107e+02
315             	3.10959760e+02
316             	3.10963660e+02
317             	3.10967244e+02
318             	3.10971062e+02
319             	3.10974705e+02
320             	3.10978575e+02
321             	3.10982163e+02
322             	3.10985953e+02
323             	3.10989483e+02
324             	3.10993203e+02
325             	3.10996557e+02
326             	3.11000081e+02
327             	3.11003352e+02
328             	3.11006812e+02
329             	3.11009868e+02
330             	3.11013043e+02
331             	3.11015998e+02
332             	3.11019093e+02
333             	3.11021904e+02
334             	3.11024976e+02
335             	3.11027811e+02
336             	3.11030892e+02
337             	3.11033779e+02
338             	3.11036909e+02
339             	3.11039738e+02
340             	3.11042757e+02
341             	3.11045639e+02
342             	3.11048685e+02
343             	3.11051454e+02
344             	3.11054381e+02
345             	3.11056976e+02
346             	3.11059687e+02
347             	3.11062166e+02
348             	3.11064865e+02
349             	3.11067254e+02
350             	3.11069851e+02
351             	3.11072223e+02
352             	3.11074852e+02
353             	3.11077215e+02
354             	3.11079801e+02
355             	3.11082135e+02
356             	3.11084670e+02
357             	3.11086991e+02
358             	3.11089536e+02
359             	3.11091778e+02
360             	3.11094194e+02
361             	3.11096371e+02
362             	3.11098703e+02
363             	3.11100717e+02
364             	3.11102954e+02
365             	3.11104971e+02
366             	3.11107215e+02
367             	3.11109141e+02
368             	3.11111285e+02
369             	3.11113264e+02
370             	3.11115491e+02
371             	3.11117405e+02
372             	3.11119515e+02
373             	3.11121456e+02
374             	3.11123607e+02
375             	3.11125446e+02
376             	3.11127457e+02
377             	3.11129294e+02
378             	3.11131265e+02
379             	3.11132945e+02
380             	3.11134777e+02
381             	3.11136393e+02
382             	3.11138218e+02
383             	3.11139783e+02
384             	3.11141592e+02
385             	3.11143186e+02
386             	3.11145010e+02
387             	3.11146612e+02
388             	3.11148400e+02
389             	3.11149958e+02
390             	3.11151724e+02
391             	3.11153253e+02
392             	3.11154987e+02
393             	3.11156437e+02
394             	3.11158107e+02
395             	3.11159517e+02
396             	3.11161136e+02
397             	3.11162494e+02
398             	3.11164051e+02
399             	3.11165367e+02
400             	3.11166903e+02
401             	3.11168167e+02
402             	3.11169628e+02
403             	3.11170903e+02
404             	3.11172383e+02
405             	3.11173582e+02
406             	3.11174981e+02
407             	3.11176212e+02
408             	3.11177670e+02
409             	3.11178855e+02
410             	3.11180244e+02
411             	3.11181431e+02
412             	3.11182859e+02
413             	3.11183985e+02
414             	3.11185300e+02
415             	3.11186461e+02
416             	3.11187820e+02
417             	3.11188906e+02
418             	3.11190183e+02
419             	3.11191238e+02
420             	3.11192508e+02
421             	3.11193508e+02
422             	3.11194687e+02
423             	3.11195677e+02
424             	3.11196899e+02
425             	3.11197822e+02
426             	3.11198950e+02
427             	3.11199920e+02
428             	3.11201121e+02
429             	3.11202032e+02
430             	3.11203140e+02
431             	3.11204072e+02
432             	3.11205243e+02
433             	3.11206112e+02
434             	3.11207174e+02
435             	3.11208079e+02
436             	3.11209197e+02
437             	3.11210045e+02
438             	3.11211093e+02
439             	3.11211919e+02
440             	3.11212971e+02
441             	3.11213760e+02
442             	3.11214749e+02
443             	3.11215530e+02
444             	3.11216540e+02
445             	3.11217259e+02
446             	3.11218173e+02
447             	3.11218905e+02
448             	3.11219870e+02
449             	3.11220531e+02
450             	3.11221383e+02
451             	3.11222069e+02
452             	3.11222978e+02
453             	3.11223591e+02
454             	3.11224406e+02
455             	3.11225043e+02
456             	3.11225922e+02
457             	3.11226501e+02
458             	3.11227286e+02
459             	3.11227903e+02
460             	3.11228766e+02
461             	3.11229332e+02
462             	3.11230103e+02
463             	3.11230712e+02
464             	3.11231561e+02
465             	3.11232116e+02
466             	3.11232873e+02
467             	3.11233464e+02
468             	3.11234289e+02
469             	3.11234818e+02
470             	3.11235546e+02
471             	3.11236104e+02
472             	3.11236902e+02
473             	3.11237391e+02
474             	3.11238082e+02
475             	3.11238607e+02
476             	3.11239362e+02
477             	3.11239820e+02
478             	3.11240478e+02
479             	3.11240955e+02
480             	3.11241671e+02
481             	3.11242078e+02
482             	3.11242680e+02
483             	3.11243134e+02
484             	3.11243820e+02
485             	3.11244216e+02
486             	3.11244825e+02
487             	3.11245241e+02
488             	3.11245906e+02
489             	3.11246274e+02
490             	3.11246854e+02
491             	3.11247275e+02
492             	3.11247925e+02
493             	3.11248289e+02
494             	3.11248864e+02
495             	3.11249262e+02
496             	3.11249906e+02
497             	3.11250235e+02
498             	3.11250763e+02
499             	3.11251139e+02
500             	3.11251741e+02
501             	3.11252056e+02
502             	3.11252586e+02
503             	3.11252913e+02
504             	3.11253484e+02
505             	3.11253772e+02
506             	3.11254271e+02
507             	3.11254590e+02
508             	3.11255168e+02
509             	3.11255439e+02
510             	3.11255919e+02
511             	3.11256243e+02
512             	3.11256794e+02
513             	3.11257057e+02
514             	3.11257532e+02
515             	3.11257822e+02
516             	3.11258354e+02
517             	3.11258562e+02
518             	3.11258976e+02
519             	3.11259237e+02
520             	3.11259730e+02
521             	3.11259938e+02
522             	3.11260356e+02
523             	3.11260594e+02
524             	3.11261086e+02
525             	3.11261267e+02
526             	3.11261660e+02
527             	3.11261904e+02
528             	3.11262379e+02
529             	3.11262564e+02
530             	3.11262968e+02
531             	3.11263174e+02
532             	3.11263623e+02
533             	3.11263789e+02
534             	3.11264167e+02
535             	3.11264378e+02
536             	3.11264832e+02
537             	3.11264995e+02
538             	3.11265372e+02
539             	3.11265575e+02
540             	3.11266025e+02
541             	3.11266163e+02
542             	3.11266506e+02
543             	3.11266692e+02
544             	3.11267099e+02
545             	3.11267222e+02
546             	3.11267556e+02
547             	3.11267681e+02
548             	3.11268050e+02
549             	3.11268134e+02
550             	3.11268439e+02
551             	3.11268576e+02
552             	3.11268973e+02
553             	3.11269072e+02
554             	3.11269388e+02
555             	3.11269553e+02
556             	3.11269958e+02
557             	3.11270083e+02
558             	3.11270426e+02
559             	3.11270588e+02
560             	3.11270991e+02
561             	3.11271093e+02
562             	3.11271394e+02
563             	3.11271537e+02
564             	3.11271901e+02
565             	3.11271982e+02
566             	3.11272272e+02
567             	3.11272355e+02
568             	3.11272688e+02
569             	3.11272729e+02
570             	3.11272989e+02
571             	3.11273077e+02
572             	3.11273416e+02
573             	3.11273463e+02
574             	3.11273726e+02
575             	3.11273835e+02
576             	3.11274182e+02
577             	3.11274241e+02
578             	3.11274511e+02
579             	3.11274611e+02
580             	3.11274957e+02
581             	3.11275004e+02
582             	3.11275265e+02
583             	3.11275381e+02
584             	3.11275711e+02
585             	3.11275790e+02
586             	3.11276104e+02
587             	3.11276173e+02
588             	3.11276479e+02
589             	3.11276544e+02
590             	3.11276835e+02
591             	3.11276893e+02
592             	3.11277174e+02
593             	3.11277211e+02
594             	3.11277464e+02
595             	3.11277490e+02
596             	3.11277738e+02
597             	3.11277745e+02
598             	3.11277977e+02
599             	3.11277991e+02
600             	3.11278244e+02
601             	3.11278241e+02
602             	3.11278459e+02
603             	3.11278487e+02
604             	3.11278769e+02
605             	3.11278765e+02
606             	3.11278980e+02
607             	3.11279035e+02
608             	3.11279335e+02
609             	3.11279341e+02
610             	3.11279553e+02
611             	3.11279603e+02
612             	3.11279887e+02
613             	3.11279878e+02
614             	3.11280078e+02
615             	3.11280101e+02
616             	3.11280365e+02
617             	3.11280340e+02
618             	3.11280524e+02
619             	3.11280538e+02
620             	3.11280785e+02
621             	3.11280738e+02
