# Region        : cellZone component_1
# Cells         : 96
# Volume        : 1.89040720e-01
# Time          	volAverage(T)
1               	3.01788537e+02
2               	3.03562526e+02
3               	3.05221116e+02
4               	3.06831891e+02
5               	3.08445511e+02
6               	3.10034767e+02
7               	3.11617734e+02
8               	3.13187971e+02
9               	3.14750701e+02
10              	3.16306402e+02
11              	3.17861336e+02
12              	3.19414352e+02
13              	3.20965825e+02
14              	3.22508953e+02
15              	3.24043951e+02
16              	3.25562882e+02
17              	3.27065217e+02
18              	3.28555951e+02
19              	3.30037148e+02
20              	3.31509059e+02
21              	3.32970612e+02
22              	3.34421988e+02
23              	3.35862059e+02
24              	3.37296753e+02
25              	3.38723500e+02
26              	3.40140232e+02
27              	3.41543016e+02
28              	3.42933561e+02
29              	3.44316642e+02
30              	3.45692401e+02
31              	3.47059581e+02
32              	3.48419481e+02
33              	3.49770957e+02
34              	3.51120449e+02
35              	3.52460568e+02
36              	3.53785693e+02
37              	3.55093144e+02
38              	3.56383376e+02
39              	3.57658741e+02
40              	3.58927499e+02
41              	3.60186973e+02
42              	3.61436278e+02
43              	3.62673571e+02
44              	3.63905228e+02
45              	3.65132943e+02
46              	3.66361839e+02
47              	3.67583029e+02
48              	3.68787492e+02
49              	3.69979736e+02
50              	3.71158394e+02
51              	3.72327410e+02
52              	3.73483688e+02
53              	3.74623925e+02
54              	3.75755563e+02
55              	3.76879404e+02
56              	3.77995868e+02
57              	3.79107903e+02
58              	3.80209566e+02
59              	3.81297568e+02
60              	3.82370450e+02
61              	3.83430331e+02
62              	3.84476865e+02
63              	3.85508101e+02
64              	3.86528015e+02
65              	3.87538921e+02
66              	3.88543315e+02
67              	3.89539176e+02
68              	3.90523787e+02
69              	3.91496841e+02
70              	3.92459159e+02
71              	3.93407022e+02
72              	3.94339297e+02
73              	3.95255889e+02
74              	3.96158465e+02
75              	3.97050078e+02
76              	3.97933205e+02
77              	3.98805799e+02
78              	3.99670301e+02
79              	4.00529675e+02
80              	4.01382444e+02
81              	4.02219684e+02
82              	4.03051267e+02
83              	4.03875336e+02
84              	4.04689875e+02
85              	4.05495551e+02
86              	4.06293058e+02
87              	4.07082418e+02
88              	4.07864886e+02
89              	4.08639101e+02
90              	4.09406530e+02
91              	4.10165806e+02
92              	4.10913061e+02
93              	4.11655960e+02
94              	4.12392714e+02
95              	4.13112568e+02
96              	4.13826283e+02
97              	4.14531597e+02
98              	4.15227679e+02
99              	4.15914763e+02
100             	4.16593578e+02
101             	4.17266935e+02
102             	4.17934263e+02
103             	4.18595712e+02
104             	4.19250657e+02
105             	4.19899033e+02
106             	4.20539787e+02
107             	4.21175295e+02
108             	4.21804171e+02
109             	4.22429685e+02
110             	4.23050034e+02
111             	4.23663463e+02
112             	4.24268756e+02
113             	4.24865042e+02
114             	4.25450720e+02
115             	4.26028452e+02
116             	4.26599917e+02
117             	4.27163841e+02
118             	4.27721169e+02
119             	4.28272803e+02
120             	4.28818227e+02
121             	4.29357977e+02
122             	4.29893736e+02
123             	4.30425144e+02
124             	4.30952126e+02
125             	4.31472875e+02
126             	4.31987662e+02
127             	4.32496524e+02
128             	4.32998992e+02
129             	4.33496988e+02
130             	4.33986620e+02
131             	4.34468994e+02
132             	4.34946694e+02
133             	4.35419104e+02
134             	4.35885588e+02
135             	4.36345136e+02
136             	4.36800147e+02
137             	4.37249706e+02
138             	4.37695703e+02
139             	4.38138458e+02
140             	4.38573569e+02
141             	4.39004784e+02
142             	4.39431736e+02
143             	4.39854605e+02
144             	4.40273284e+02
145             	4.40687700e+02
146             	4.41097781e+02
147             	4.41504872e+02
148             	4.41908425e+02
149             	4.42303867e+02
150             	4.42693412e+02
151             	4.43078950e+02
152             	4.43460689e+02
153             	4.43837167e+02
154             	4.44209453e+02
155             	4.44579722e+02
156             	4.44944427e+02
157             	4.45306286e+02
158             	4.45665623e+02
159             	4.46021865e+02
160             	4.46374329e+02
161             	4.46721046e+02
162             	4.47062402e+02
163             	4.47400314e+02
164             	4.47734280e+02
165             	4.48064236e+02
166             	4.48391931e+02
167             	4.48717741e+02
168             	4.49040153e+02
169             	4.49359504e+02
170             	4.49676521e+02
171             	4.49990780e+02
172             	4.50301966e+02
173             	4.50608532e+02
174             	4.50911347e+02
175             	4.51210846e+02
176             	4.51506842e+02
177             	4.51798610e+02
178             	4.52087086e+02
179             	4.52372839e+02
180             	4.52655302e+02
181             	4.52934939e+02
182             	4.53212372e+02
183             	4.53487182e+02
184             	4.53759402e+02
185             	4.54029037e+02
186             	4.54296245e+02
187             	4.54560977e+02
188             	4.54823208e+02
189             	4.55082715e+02
190             	4.55339147e+02
191             	4.55592803e+02
192             	4.55841433e+02
193             	4.56087341e+02
194             	4.56330418e+02
195             	4.56570580e+02
196             	4.56808289e+02
197             	4.57044196e+02
198             	4.57277703e+02
199             	4.57508928e+02
200             	4.57738392e+02
201             	4.57965729e+02
202             	4.58191404e+02
203             	4.58415142e+02
204             	4.58636910e+02
205             	4.58856835e+02
206             	4.59073812e+02
207             	4.59288689e+02
208             	4.59501408e+02
209             	4.59711863e+02
210             	4.59920419e+02
211             	4.60127359e+02
212             	4.60332340e+02
213             	4.60535384e+02
214             	4.60735907e+02
215             	4.60932950e+02
216             	4.61128568e+02
217             	4.61322306e+02
218             	4.61514007e+02
219             	4.61704455e+02
220             	4.61893844e+02
221             	4.62081843e+02
222             	4.62268147e+02
223             	4.62452198e+02
224             	4.62634493e+02
225             	4.62814790e+02
226             	4.62993196e+02
227             	4.63170201e+02
228             	4.63345333e+02
229             	4.63519304e+02
230             	4.63692327e+02
231             	4.63863470e+02
232             	4.64032523e+02
233             	4.64199615e+02
234             	4.64365399e+02
235             	4.64529218e+02
236             	4.64691063e+02
237             	4.64851126e+02
238             	4.65010108e+02
239             	4.65167859e+02
240             	4.65324332e+02
241             	4.65479055e+02
242             	4.65633184e+02
243             	4.65785487e+02
244             	4.65936004e+02
245             	4.66085045e+02
246             	4.66232595e+02
247             	4.66378616e+02
248             	4.66523189e+02
249             	4.66667167e+02
250             	4.66810388e+02
251             	4.66952402e+02
252             	4.67092540e+02
253             	4.67232135e+02
254             	4.67370991e+02
255             	4.67508933e+02
256             	4.67645992e+02
257             	4.67782060e+02
258             	4.67916371e+02
259             	4.68049162e+02
260             	4.68180830e+02
261             	4.68311360e+02
262             	4.68440875e+02
263             	4.68569059e+02
264             	4.68695526e+02
265             	4.68821165e+02
266             	4.68946096e+02
267             	4.69069991e+02
268             	4.69192149e+02
269             	4.69313170e+02
270             	4.69433588e+02
271             	4.69553328e+02
272             	4.69671505e+02
273             	4.69788365e+02
274             	4.69904741e+02
275             	4.70020398e+02
276             	4.70135276e+02
277             	4.70249393e+02
278             	4.70362987e+02
279             	4.70474781e+02
280             	4.70585791e+02
281             	4.70696018e+02
282             	4.70805152e+02
283             	4.70913204e+02
284             	4.71020103e+02
285             	4.71126054e+02
286             	4.71231431e+02
287             	4.71336337e+02
288             	4.71440481e+02
289             	4.71544026e+02
290             	4.71646796e+02
291             	4.71748765e+02
292             	4.71849944e+02
293             	4.71950516e+02
294             	4.72050591e+02
295             	4.72150027e+02
296             	4.72248706e+02
297             	4.72346567e+02
298             	4.72443703e+02
299             	4.72539923e+02
300             	4.72635250e+02
301             	4.72729652e+02
302             	4.72823148e+02
303             	4.72915901e+02
304             	4.73007802e+02
305             	4.73098735e+02
306             	4.73188948e+02
307             	4.73278396e+02
308             	4.73367207e+02
309             	4.73455473e+02
310             	4.73543256e+02
311             	4.73630456e+02
312             	4.73716766e+02
313             	4.73802319e+02
314             	4.73887406e+02
315             	4.73971826e+02
316             	4.74055521e+02
317             	4.74138788e+02
318             	4.74221556e+02
319             	4.74303842e+02
320             	4.74385664e+02
321             	4.74467065e+02
322             	4.74547999e+02
323             	4.74628063e+02
324             	4.74707170e+02
325             	4.74785827e+02
326             	4.74863994e+02
327             	4.74941498e+02
328             	4.75018254e+02
329             	4.75094457e+02
330             	4.75170202e+02
331             	4.75245539e+02
332             	4.75320252e+02
333             	4.75394400e+02
334             	4.75468106e+02
335             	4.75541279e+02
336             	4.75613992e+02
337             	4.75686209e+02
338             	4.75758043e+02
339             	4.75829400e+02
340             	4.75900396e+02
341             	4.75970877e+02
342             	4.76040800e+02
343             	4.76110110e+02
344             	4.76178872e+02
345             	4.76247098e+02
346             	4.76314939e+02
347             	4.76382248e+02
348             	4.76448958e+02
349             	4.76515181e+02
350             	4.76581058e+02
351             	4.76646509e+02
352             	4.76711629e+02
353             	4.76776261e+02
354             	4.76840568e+02
355             	4.76904428e+02
356             	4.76967765e+02
357             	4.77030600e+02
358             	4.77093129e+02
359             	4.77155085e+02
360             	4.77216563e+02
361             	4.77277666e+02
362             	4.77338509e+02
363             	4.77398916e+02
364             	4.77458908e+02
365             	4.77518421e+02
366             	4.77577662e+02
367             	4.77636522e+02
368             	4.77694928e+02
369             	4.77752881e+02
370             	4.77810577e+02
371             	4.77867744e+02
372             	4.77924514e+02
373             	4.77980936e+02
374             	4.78037065e+02
375             	4.78092785e+02
376             	4.78148053e+02
377             	4.78202962e+02
378             	4.78257631e+02
379             	4.78311921e+02
380             	4.78365750e+02
381             	4.78419250e+02
382             	4.78472560e+02
383             	4.78525505e+02
384             	4.78578019e+02
385             	4.78630198e+02
386             	4.78682154e+02
387             	4.78733746e+02
388             	4.78784863e+02
389             	4.78835572e+02
390             	4.78886052e+02
391             	4.78936153e+02
392             	4.78985877e+02
393             	4.79035282e+02
394             	4.79084499e+02
395             	4.79133328e+02
396             	4.79181822e+02
397             	4.79230082e+02
398             	4.79278159e+02
399             	4.79325920e+02
400             	4.79373338e+02
401             	4.79420449e+02
402             	4.79467390e+02
403             	4.79513973e+02
404             	4.79560114e+02
405             	4.79605920e+02
406             	4.79651497e+02
407             	4.79696676e+02
408             	4.79741530e+02
409             	4.79786141e+02
410             	4.79830630e+02
411             	4.79874833e+02
412             	4.79918728e+02
413             	4.79962326e+02
414             	4.80005785e+02
415             	4.80048886e+02
416             	4.80091563e+02
417             	4.80133928e+02
418             	4.80176130e+02
419             	4.80217940e+02
420             	4.80259513e+02
421             	4.80300877e+02
422             	4.80342145e+02
423             	4.80383195e+02
424             	4.80423866e+02
425             	4.80464291e+02
426             	4.80504601e+02
427             	4.80544643e+02
428             	4.80584290e+02
429             	4.80623719e+02
430             	4.80662972e+02
431             	4.80701993e+02
432             	4.80740652e+02
433             	4.80779061e+02
434             	4.80817371e+02
435             	4.80855319e+02
436             	4.80892969e+02
437             	4.80930403e+02
438             	4.80967663e+02
439             	4.81004601e+02
440             	4.81041308e+02
441             	4.81077745e+02
442             	4.81114108e+02
443             	4.81150292e+02
444             	4.81186176e+02
445             	4.81221856e+02
446             	4.81257497e+02
447             	4.81292833e+02
448             	4.81327847e+02
449             	4.81362674e+02
450             	4.81397432e+02
451             	4.81431852e+02
452             	4.81466016e+02
453             	4.81499965e+02
454             	4.81533828e+02
455             	4.81567365e+02
456             	4.81600695e+02
457             	4.81633839e+02
458             	4.81667017e+02
459             	4.81699968e+02
460             	4.81732536e+02
461             	4.81764949e+02
462             	4.81797305e+02
463             	4.81829374e+02
464             	4.81861180e+02
465             	4.81892780e+02
466             	4.81924281e+02
467             	4.81955533e+02
468             	4.81986570e+02
469             	4.82017341e+02
470             	4.82048056e+02
471             	4.82078556e+02
472             	4.82108749e+02
473             	4.82138772e+02
474             	4.82168784e+02
475             	4.82198539e+02
476             	4.82228102e+02
477             	4.82257572e+02
478             	4.82287018e+02
479             	4.82316184e+02
480             	4.82345169e+02
481             	4.82373916e+02
482             	4.82402575e+02
483             	4.82430999e+02
484             	4.82459178e+02
485             	4.82487259e+02
486             	4.82515274e+02
487             	4.82542990e+02
488             	4.82570527e+02
489             	4.82597881e+02
490             	4.82625196e+02
491             	4.82652325e+02
492             	4.82679156e+02
493             	4.82705847e+02
494             	4.82732582e+02
495             	4.82759111e+02
496             	4.82785390e+02
497             	4.82811573e+02
498             	4.82837779e+02
499             	4.82863761e+02
500             	4.82889600e+02
501             	4.82915202e+02
502             	4.82940757e+02
503             	4.82966124e+02
504             	4.82991209e+02
505             	4.83016164e+02
506             	4.83041124e+02
507             	4.83065820e+02
508             	4.83090310e+02
509             	4.83114749e+02
510             	4.83139208e+02
511             	4.83163408e+02
512             	4.83187453e+02
513             	4.83211324e+02
514             	4.83235154e+02
515             	4.83258825e+02
516             	4.83282228e+02
517             	4.83305513e+02
518             	4.83328825e+02
519             	4.83351971e+02
520             	4.83374879e+02
521             	4.83397667e+02
522             	4.83420525e+02
523             	4.83443157e+02
524             	4.83465644e+02
525             	4.83488028e+02
526             	4.83510451e+02
527             	4.83532651e+02
528             	4.83554646e+02
529             	4.83576525e+02
530             	4.83598404e+02
531             	4.83620041e+02
532             	4.83641463e+02
533             	4.83662755e+02
534             	4.83684072e+02
535             	4.83705165e+02
536             	4.83726165e+02
537             	4.83747048e+02
538             	4.83767993e+02
539             	4.83788799e+02
540             	4.83809366e+02
541             	4.83829816e+02
542             	4.83850286e+02
543             	4.83870655e+02
544             	4.83890807e+02
545             	4.83910862e+02
546             	4.83930928e+02
547             	4.83950782e+02
548             	4.83970520e+02
549             	4.83990136e+02
550             	4.84009729e+02
551             	4.84029198e+02
552             	4.84048429e+02
553             	4.84067528e+02
554             	4.84086674e+02
555             	4.84105587e+02
556             	4.84124301e+02
557             	4.84142963e+02
558             	4.84161659e+02
559             	4.84180161e+02
560             	4.84198568e+02
561             	4.84216880e+02
562             	4.84235259e+02
563             	4.84253519e+02
564             	4.84271560e+02
565             	4.84289493e+02
566             	4.84307456e+02
567             	4.84325224e+02
568             	4.84342806e+02
569             	4.84360312e+02
570             	4.84377872e+02
571             	4.84395232e+02
572             	4.84412417e+02
573             	4.84429514e+02
574             	4.84446669e+02
575             	4.84463630e+02
576             	4.84480427e+02
577             	4.84497160e+02
578             	4.84513997e+02
579             	4.84530643e+02
580             	4.84547123e+02
581             	4.84563537e+02
582             	4.84580008e+02
583             	4.84596293e+02
584             	4.84612410e+02
585             	4.84628454e+02
586             	4.84644567e+02
587             	4.84660494e+02
588             	4.84676256e+02
589             	4.84691973e+02
590             	4.84707770e+02
591             	4.84723364e+02
592             	4.84738779e+02
593             	4.84754120e+02
594             	4.84769529e+02
595             	4.84784754e+02
596             	4.84799807e+02
597             	4.84814802e+02
598             	4.84829876e+02
599             	4.84844772e+02
600             	4.84859526e+02
601             	4.84874222e+02
602             	4.84889001e+02
603             	4.84903608e+02
604             	4.84918080e+02
605             	4.84932509e+02
606             	4.84947027e+02
607             	4.84961369e+02
608             	4.84975599e+02
609             	4.84989754e+02
610             	4.85003973e+02
611             	4.85018105e+02
612             	4.85032040e+02
613             	4.85045879e+02
614             	4.85059808e+02
615             	4.85073550e+02
616             	4.85087186e+02
617             	4.85100747e+02
618             	4.85114379e+02
619             	4.85127837e+02
620             	4.85141147e+02
621             	4.85154409e+02
