# Region        : cellZone pcb
# Cells         : 428
# Volume        : 8.23080152e-01
# Time          	volAverage(T)
1               	3.00006724e+02
2               	3.00019567e+02
3               	3.00037451e+02
4               	3.00060398e+02
5               	3.00085823e+02
6               	3.00114559e+02
7               	3.00147416e+02
8               	3.00185122e+02
9               	3.00225322e+02
10              	3.00269106e+02
11              	3.00312908e+02
12              	3.00357281e+02
13              	3.00404751e+02
14              	3.00453901e+02
15              	3.00504117e+02
16              	3.00556526e+02
17              	3.00611020e+02
18              	3.00668480e+02
19              	3.00727836e+02
20              	3.00789102e+02
21              	3.00852036e+02
22              	3.00916033e+02
23              	3.00981040e+02
24              	3.01046167e+02
25              	3.01111622e+02
26              	3.01178509e+02
27              	3.01247291e+02
28              	3.01316717e+02
29              	3.01386232e+02
30              	3.01455580e+02
31              	3.01526229e+02
32              	3.01596524e+02
33              	3.01666430e+02
34              	3.01736352e+02
35              	3.01806855e+02
36              	3.01878695e+02
37              	3.01951466e+02
38              	3.02024399e+02
39              	3.02097982e+02
40              	3.02171446e+02
41              	3.02242522e+02
42              	3.02314957e+02
43              	3.02384208e+02
44              	3.02455633e+02
45              	3.02525946e+02
46              	3.02593991e+02
47              	3.02661434e+02
48              	3.02728610e+02
49              	3.02794931e+02
50              	3.02862892e+02
51              	3.02931942e+02
52              	3.03001612e+02
53              	3.03070466e+02
54              	3.03138155e+02
55              	3.03205006e+02
56              	3.03271139e+02
57              	3.03335214e+02
58              	3.03398451e+02
59              	3.03457115e+02
60              	3.03513736e+02
61              	3.03569086e+02
62              	3.03623830e+02
63              	3.03680117e+02
64              	3.03737861e+02
65              	3.03795253e+02
66              	3.03851518e+02
67              	3.03907306e+02
68              	3.03963191e+02
69              	3.04019993e+02
70              	3.04076492e+02
71              	3.04131718e+02
72              	3.04188262e+02
73              	3.04244691e+02
74              	3.04298372e+02
75              	3.04353815e+02
76              	3.04408998e+02
77              	3.04463360e+02
78              	3.04516293e+02
79              	3.04567811e+02
80              	3.04618966e+02
81              	3.04669463e+02
82              	3.04717800e+02
83              	3.04764732e+02
84              	3.04812444e+02
85              	3.04857152e+02
86              	3.04900602e+02
87              	3.04945595e+02
88              	3.04993548e+02
89              	3.05041535e+02
90              	3.05088733e+02
91              	3.05133818e+02
92              	3.05177939e+02
93              	3.05221357e+02
94              	3.05264768e+02
95              	3.05309200e+02
96              	3.05348568e+02
97              	3.05386978e+02
98              	3.05421965e+02
99              	3.05456471e+02
100             	3.05490847e+02
101             	3.05525431e+02
102             	3.05561471e+02
103             	3.05598827e+02
104             	3.05637076e+02
105             	3.05675242e+02
106             	3.05713405e+02
107             	3.05751471e+02
108             	3.05787739e+02
109             	3.05823506e+02
110             	3.05858266e+02
111             	3.05892555e+02
112             	3.05925765e+02
113             	3.05956878e+02
114             	3.05988169e+02
115             	3.06019957e+02
116             	3.06051233e+02
117             	3.06081651e+02
118             	3.06112062e+02
119             	3.06142970e+02
120             	3.06174151e+02
121             	3.06204852e+02
122             	3.06232625e+02
123             	3.06260893e+02
124             	3.06288465e+02
125             	3.06316081e+02
126             	3.06344304e+02
127             	3.06372287e+02
128             	3.06400233e+02
129             	3.06429111e+02
130             	3.06457029e+02
131             	3.06485153e+02
132             	3.06513528e+02
133             	3.06542225e+02
134             	3.06569638e+02
135             	3.06595931e+02
136             	3.06621522e+02
137             	3.06646487e+02
138             	3.06671057e+02
139             	3.06695824e+02
140             	3.06719801e+02
141             	3.06743229e+02
142             	3.06766156e+02
143             	3.06788131e+02
144             	3.06809159e+02
145             	3.06829482e+02
146             	3.06849160e+02
147             	3.06868722e+02
148             	3.06890404e+02
149             	3.06912374e+02
150             	3.06932905e+02
151             	3.06953366e+02
152             	3.06973994e+02
153             	3.06995075e+02
154             	3.07015106e+02
155             	3.07035445e+02
156             	3.07056551e+02
157             	3.07077121e+02
158             	3.07096750e+02
159             	3.07116851e+02
160             	3.07136565e+02
161             	3.07156157e+02
162             	3.07175771e+02
163             	3.07194307e+02
164             	3.07212565e+02
165             	3.07230561e+02
166             	3.07247190e+02
167             	3.07261680e+02
168             	3.07276395e+02
169             	3.07291103e+02
170             	3.07306301e+02
171             	3.07321859e+02
172             	3.07336532e+02
173             	3.07351928e+02
174             	3.07368187e+02
175             	3.07384940e+02
176             	3.07401986e+02
177             	3.07418927e+02
178             	3.07435551e+02
179             	3.07451735e+02
180             	3.07467251e+02
181             	3.07482040e+02
182             	3.07497063e+02
183             	3.07511540e+02
184             	3.07525485e+02
185             	3.07538288e+02
186             	3.07549634e+02
187             	3.07561153e+02
188             	3.07573387e+02
189             	3.07586991e+02
190             	3.07598751e+02
191             	3.07609348e+02
192             	3.07620317e+02
193             	3.07631657e+02
194             	3.07642829e+02
195             	3.07654863e+02
196             	3.07666764e+02
197             	3.07678191e+02
198             	3.07689770e+02
199             	3.07702287e+02
200             	3.07715320e+02
201             	3.07728494e+02
202             	3.07741908e+02
203             	3.07755042e+02
204             	3.07767516e+02
205             	3.07779696e+02
206             	3.07789924e+02
207             	3.07800108e+02
208             	3.07808963e+02
209             	3.07817926e+02
210             	3.07826111e+02
211             	3.07835860e+02
212             	3.07846041e+02
213             	3.07854821e+02
214             	3.07862894e+02
215             	3.07870968e+02
216             	3.07879460e+02
217             	3.07888362e+02
218             	3.07897863e+02
219             	3.07907046e+02
220             	3.07917388e+02
221             	3.07927267e+02
222             	3.07937392e+02
223             	3.07947356e+02
224             	3.07957165e+02
225             	3.07966847e+02
226             	3.07975695e+02
227             	3.07983525e+02
228             	3.07991122e+02
229             	3.07998140e+02
230             	3.08005445e+02
231             	3.08012063e+02
232             	3.08019063e+02
233             	3.08025340e+02
234             	3.08031826e+02
235             	3.08037808e+02
236             	3.08044271e+02
237             	3.08050204e+02
238             	3.08056692e+02
239             	3.08062757e+02
240             	3.08069377e+02
241             	3.08075599e+02
242             	3.08083206e+02
243             	3.08089849e+02
244             	3.08096871e+02
245             	3.08103381e+02
246             	3.08110661e+02
247             	3.08117244e+02
248             	3.08124462e+02
249             	3.08130943e+02
250             	3.08137550e+02
251             	3.08143111e+02
252             	3.08148649e+02
253             	3.08154335e+02
254             	3.08159759e+02
255             	3.08165012e+02
256             	3.08169635e+02
257             	3.08173691e+02
258             	3.08177828e+02
259             	3.08182343e+02
260             	3.08187857e+02
261             	3.08191809e+02
262             	3.08196398e+02
263             	3.08201502e+02
264             	3.08206287e+02
265             	3.08210627e+02
266             	3.08215271e+02
267             	3.08219706e+02
268             	3.08224898e+02
269             	3.08230427e+02
270             	3.08236150e+02
271             	3.08240986e+02
272             	3.08245709e+02
273             	3.08250687e+02
274             	3.08256218e+02
275             	3.08261138e+02
276             	3.08265809e+02
277             	3.08269442e+02
278             	3.08272307e+02
279             	3.08275217e+02
280             	3.08277748e+02
281             	3.08280218e+02
282             	3.08282552e+02
283             	3.08285164e+02
284             	3.08287657e+02
285             	3.08290455e+02
286             	3.08293052e+02
287             	3.08295551e+02
288             	3.08297974e+02
289             	3.08300617e+02
290             	3.08303044e+02
291             	3.08305529e+02
292             	3.08307827e+02
293             	3.08310739e+02
294             	3.08313238e+02
295             	3.08316702e+02
296             	3.08319780e+02
297             	3.08323348e+02
298             	3.08326392e+02
299             	3.08330144e+02
300             	3.08333370e+02
301             	3.08336890e+02
302             	3.08339545e+02
303             	3.08342507e+02
304             	3.08345055e+02
305             	3.08348187e+02
306             	3.08350624e+02
307             	3.08353608e+02
308             	3.08355780e+02
309             	3.08358364e+02
310             	3.08360510e+02
311             	3.08363424e+02
312             	3.08365336e+02
313             	3.08367405e+02
314             	3.08369201e+02
315             	3.08371461e+02
316             	3.08373112e+02
317             	3.08375382e+02
318             	3.08377001e+02
319             	3.08379338e+02
320             	3.08381075e+02
321             	3.08383435e+02
322             	3.08385374e+02
323             	3.08388371e+02
324             	3.08390830e+02
325             	3.08392922e+02
326             	3.08394353e+02
327             	3.08396569e+02
328             	3.08398203e+02
329             	3.08400288e+02
330             	3.08401949e+02
331             	3.08404185e+02
332             	3.08406120e+02
333             	3.08408866e+02
334             	3.08411236e+02
335             	3.08414149e+02
336             	3.08416341e+02
337             	3.08418377e+02
338             	3.08420169e+02
339             	3.08422096e+02
340             	3.08423839e+02
341             	3.08425890e+02
342             	3.08427472e+02
343             	3.08429578e+02
344             	3.08431093e+02
345             	3.08433025e+02
346             	3.08434616e+02
347             	3.08436469e+02
348             	3.08438011e+02
349             	3.08440074e+02
350             	3.08441685e+02
351             	3.08443437e+02
352             	3.08444927e+02
353             	3.08446721e+02
354             	3.08448095e+02
355             	3.08449915e+02
356             	3.08451573e+02
357             	3.08453450e+02
358             	3.08454890e+02
359             	3.08456736e+02
360             	3.08458080e+02
361             	3.08459818e+02
362             	3.08460987e+02
363             	3.08462712e+02
364             	3.08463738e+02
365             	3.08465269e+02
366             	3.08466164e+02
367             	3.08467438e+02
368             	3.08468201e+02
369             	3.08469583e+02
370             	3.08470378e+02
371             	3.08471854e+02
372             	3.08472708e+02
373             	3.08474302e+02
374             	3.08475227e+02
375             	3.08476966e+02
376             	3.08477961e+02
377             	3.08479542e+02
378             	3.08480488e+02
379             	3.08482160e+02
380             	3.08483132e+02
381             	3.08484862e+02
382             	3.08485794e+02
383             	3.08487339e+02
384             	3.08488284e+02
385             	3.08489965e+02
386             	3.08490941e+02
387             	3.08492500e+02
388             	3.08493397e+02
389             	3.08494821e+02
390             	3.08495602e+02
391             	3.08496846e+02
392             	3.08497472e+02
393             	3.08498712e+02
394             	3.08499203e+02
395             	3.08500399e+02
396             	3.08500831e+02
397             	3.08501987e+02
398             	3.08502439e+02
399             	3.08503652e+02
400             	3.08504165e+02
401             	3.08505414e+02
402             	3.08506040e+02
403             	3.08507374e+02
404             	3.08508162e+02
405             	3.08509672e+02
406             	3.08510632e+02
407             	3.08512258e+02
408             	3.08513367e+02
409             	3.08515065e+02
410             	3.08516076e+02
411             	3.08517601e+02
412             	3.08518469e+02
413             	3.08519834e+02
414             	3.08520390e+02
415             	3.08521514e+02
416             	3.08521834e+02
417             	3.08522836e+02
418             	3.08522934e+02
419             	3.08523645e+02
420             	3.08523571e+02
421             	3.08523987e+02
422             	3.08523758e+02
423             	3.08524010e+02
424             	3.08523729e+02
425             	3.08524175e+02
426             	3.08523951e+02
427             	3.08524347e+02
428             	3.08524224e+02
429             	3.08524934e+02
430             	3.08525035e+02
431             	3.08525987e+02
432             	3.08526284e+02
433             	3.08527396e+02
434             	3.08527889e+02
435             	3.08529163e+02
436             	3.08529737e+02
437             	3.08531030e+02
438             	3.08531580e+02
439             	3.08532824e+02
440             	3.08533290e+02
441             	3.08534334e+02
442             	3.08534633e+02
443             	3.08535500e+02
444             	3.08535617e+02
445             	3.08536318e+02
446             	3.08536298e+02
447             	3.08536903e+02
448             	3.08536760e+02
449             	3.08537255e+02
450             	3.08536972e+02
451             	3.08537343e+02
452             	3.08536938e+02
453             	3.08537172e+02
454             	3.08536775e+02
455             	3.08537139e+02
456             	3.08536870e+02
457             	3.08537279e+02
458             	3.08537091e+02
459             	3.08537708e+02
460             	3.08537667e+02
461             	3.08538384e+02
462             	3.08538479e+02
463             	3.08539365e+02
464             	3.08539652e+02
465             	3.08540566e+02
466             	3.08540838e+02
467             	3.08541888e+02
468             	3.08542209e+02
469             	3.08543211e+02
470             	3.08543455e+02
471             	3.08544318e+02
472             	3.08544405e+02
473             	3.08545002e+02
474             	3.08544923e+02
475             	3.08545488e+02
476             	3.08545262e+02
477             	3.08545435e+02
478             	3.08545125e+02
479             	3.08545418e+02
480             	3.08544930e+02
481             	3.08545137e+02
482             	3.08544754e+02
483             	3.08545121e+02
484             	3.08544830e+02
485             	3.08545369e+02
486             	3.08545277e+02
487             	3.08546036e+02
488             	3.08546074e+02
489             	3.08546849e+02
490             	3.08547034e+02
491             	3.08548013e+02
492             	3.08548362e+02
493             	3.08549339e+02
494             	3.08549729e+02
495             	3.08550700e+02
496             	3.08551012e+02
497             	3.08551913e+02
498             	3.08552037e+02
499             	3.08552771e+02
500             	3.08552628e+02
501             	3.08553021e+02
502             	3.08552600e+02
503             	3.08552763e+02
504             	3.08552133e+02
505             	3.08552110e+02
506             	3.08551362e+02
507             	3.08550915e+02
508             	3.08550254e+02
509             	3.08550227e+02
510             	3.08549717e+02
511             	3.08549722e+02
512             	3.08549362e+02
513             	3.08550057e+02
514             	3.08550188e+02
515             	3.08551174e+02
516             	3.08551492e+02
517             	3.08552584e+02
518             	3.08552960e+02
519             	3.08553844e+02
520             	3.08554108e+02
521             	3.08555159e+02
522             	3.08555376e+02
523             	3.08556138e+02
524             	3.08556265e+02
525             	3.08557054e+02
526             	3.08557176e+02
527             	3.08557899e+02
528             	3.08557884e+02
529             	3.08558426e+02
530             	3.08558113e+02
531             	3.08558322e+02
532             	3.08557796e+02
533             	3.08557883e+02
534             	3.08557213e+02
535             	3.08557100e+02
536             	3.08556313e+02
537             	3.08556115e+02
538             	3.08555363e+02
539             	3.08555402e+02
540             	3.08554779e+02
541             	3.08554940e+02
542             	3.08554543e+02
543             	3.08555032e+02
544             	3.08554862e+02
545             	3.08555342e+02
546             	3.08555267e+02
547             	3.08556079e+02
548             	3.08556175e+02
549             	3.08556787e+02
550             	3.08556860e+02
551             	3.08557491e+02
552             	3.08557446e+02
553             	3.08558010e+02
554             	3.08557872e+02
555             	3.08558401e+02
556             	3.08558198e+02
557             	3.08558626e+02
558             	3.08558326e+02
559             	3.08558431e+02
560             	3.08557997e+02
561             	3.08558227e+02
562             	3.08557746e+02
563             	3.08557586e+02
564             	3.08557048e+02
565             	3.08557062e+02
566             	3.08556469e+02
567             	3.08556476e+02
568             	3.08555918e+02
569             	3.08556085e+02
570             	3.08555964e+02
571             	3.08556525e+02
572             	3.08556613e+02
573             	3.08557419e+02
574             	3.08557670e+02
575             	3.08558807e+02
576             	3.08559261e+02
577             	3.08560202e+02
578             	3.08560662e+02
579             	3.08561808e+02
580             	3.08562256e+02
581             	3.08563206e+02
582             	3.08563471e+02
583             	3.08564325e+02
584             	3.08564341e+02
585             	3.08564863e+02
586             	3.08564442e+02
587             	3.08564614e+02
588             	3.08563912e+02
589             	3.08563766e+02
590             	3.08562933e+02
591             	3.08562849e+02
592             	3.08562033e+02
593             	3.08561784e+02
594             	3.08560862e+02
595             	3.08560505e+02
596             	3.08559857e+02
597             	3.08559979e+02
598             	3.08559621e+02
599             	3.08560048e+02
600             	3.08559860e+02
601             	3.08560351e+02
602             	3.08560325e+02
603             	3.08561183e+02
604             	3.08561400e+02
605             	3.08562436e+02
606             	3.08562833e+02
607             	3.08563981e+02
608             	3.08564458e+02
609             	3.08565644e+02
610             	3.08566068e+02
611             	3.08567056e+02
612             	3.08567282e+02
613             	3.08568082e+02
614             	3.08568072e+02
615             	3.08568560e+02
616             	3.08568247e+02
617             	3.08568403e+02
618             	3.08567749e+02
619             	3.08567616e+02
620             	3.08566788e+02
621             	3.08566633e+02
