# Region        : cellZone component_1
# Cells         : 96
# Volume        : 1.95149897e-01
# Time          	volAverage(T)
1               	3.00665385e+02
2               	3.01324068e+02
3               	3.01940206e+02
4               	3.02531491e+02
5               	3.03110658e+02
6               	3.03682005e+02
7               	3.04248092e+02
8               	3.04814684e+02
9               	3.05376873e+02
10              	3.05934425e+02
11              	3.06478465e+02
12              	3.07006646e+02
13              	3.07525111e+02
14              	3.08032520e+02
15              	3.08529398e+02
16              	3.09006911e+02
17              	3.09478856e+02
18              	3.09946705e+02
19              	3.10415160e+02
20              	3.10892682e+02
21              	3.11376575e+02
22              	3.11849665e+02
23              	3.12321950e+02
24              	3.12790184e+02
25              	3.13260528e+02
26              	3.13722706e+02
27              	3.14185167e+02
28              	3.14636646e+02
29              	3.15079022e+02
30              	3.15511811e+02
31              	3.15937907e+02
32              	3.16354775e+02
33              	3.16758042e+02
34              	3.17158742e+02
35              	3.17556337e+02
36              	3.17949838e+02
37              	3.18337113e+02
38              	3.18681081e+02
39              	3.19000160e+02
40              	3.19294650e+02
41              	3.19599200e+02
42              	3.19910983e+02
43              	3.20230970e+02
44              	3.20550711e+02
45              	3.20866338e+02
46              	3.21177005e+02
47              	3.21484612e+02
48              	3.21790869e+02
49              	3.22092602e+02
50              	3.22399911e+02
51              	3.22712662e+02
52              	3.23025947e+02
53              	3.23347986e+02
54              	3.23646523e+02
55              	3.23925101e+02
56              	3.24209041e+02
57              	3.24487938e+02
58              	3.24752564e+02
59              	3.24996518e+02
60              	3.25234914e+02
61              	3.25469967e+02
62              	3.25707278e+02
63              	3.25935311e+02
64              	3.26149243e+02
65              	3.26361388e+02
66              	3.26567350e+02
67              	3.26784781e+02
68              	3.27003103e+02
69              	3.27225218e+02
70              	3.27447747e+02
71              	3.27662248e+02
72              	3.27874257e+02
73              	3.28079195e+02
74              	3.28273746e+02
75              	3.28462715e+02
76              	3.28644210e+02
77              	3.28816085e+02
78              	3.28982241e+02
79              	3.29155056e+02
80              	3.29327218e+02
81              	3.29503089e+02
82              	3.29683299e+02
83              	3.29867247e+02
84              	3.30052055e+02
85              	3.30235651e+02
86              	3.30416189e+02
87              	3.30593458e+02
88              	3.30766417e+02
89              	3.30929142e+02
90              	3.31089703e+02
91              	3.31244638e+02
92              	3.31395130e+02
93              	3.31540799e+02
94              	3.31680045e+02
95              	3.31813472e+02
96              	3.31943820e+02
97              	3.32067722e+02
98              	3.32190356e+02
99              	3.32309753e+02
100             	3.32427519e+02
101             	3.32546801e+02
102             	3.32665643e+02
103             	3.32776300e+02
104             	3.32892719e+02
105             	3.33006526e+02
106             	3.33122209e+02
107             	3.33242149e+02
108             	3.33364999e+02
109             	3.33472733e+02
110             	3.33582954e+02
111             	3.33692857e+02
112             	3.33799350e+02
113             	3.33901285e+02
114             	3.33998089e+02
115             	3.34089856e+02
116             	3.34177251e+02
117             	3.34260849e+02
118             	3.34343460e+02
119             	3.34415081e+02
120             	3.34494381e+02
121             	3.34575871e+02
122             	3.34659619e+02
123             	3.34746039e+02
124             	3.34820416e+02
125             	3.34900380e+02
126             	3.34980075e+02
127             	3.35059352e+02
128             	3.35137193e+02
129             	3.35212348e+02
130             	3.35284560e+02
131             	3.35348170e+02
132             	3.35413718e+02
133             	3.35477311e+02
134             	3.35541681e+02
135             	3.35607496e+02
136             	3.35674432e+02
137             	3.35740071e+02
138             	3.35804254e+02
139             	3.35870426e+02
140             	3.35935781e+02
141             	3.36001425e+02
142             	3.36064025e+02
143             	3.36116033e+02
144             	3.36167406e+02
145             	3.36222595e+02
146             	3.36277469e+02
147             	3.36332417e+02
148             	3.36381013e+02
149             	3.36432400e+02
150             	3.36484120e+02
151             	3.36535538e+02
152             	3.36578735e+02
153             	3.36623845e+02
154             	3.36669409e+02
155             	3.36714020e+02
156             	3.36756990e+02
157             	3.36800120e+02
158             	3.36840349e+02
159             	3.36880030e+02
160             	3.36918223e+02
161             	3.36955410e+02
162             	3.36991390e+02
163             	3.37021012e+02
164             	3.37055956e+02
165             	3.37091897e+02
166             	3.37128166e+02
167             	3.37164258e+02
168             	3.37199771e+02
169             	3.37237148e+02
170             	3.37272863e+02
171             	3.37307520e+02
172             	3.37341823e+02
173             	3.37375067e+02
174             	3.37407444e+02
175             	3.37440448e+02
176             	3.37469399e+02
177             	3.37497510e+02
178             	3.37525769e+02
179             	3.37553792e+02
180             	3.37580707e+02
181             	3.37608082e+02
182             	3.37633615e+02
183             	3.37659854e+02
184             	3.37685754e+02
185             	3.37710851e+02
186             	3.37735094e+02
187             	3.37758424e+02
188             	3.37781221e+02
189             	3.37803521e+02
190             	3.37825464e+02
191             	3.37846880e+02
192             	3.37867765e+02
193             	3.37888301e+02
194             	3.37908388e+02
195             	3.37927299e+02
196             	3.37946536e+02
197             	3.37965455e+02
198             	3.37983768e+02
199             	3.38001630e+02
200             	3.38019158e+02
201             	3.38036399e+02
202             	3.38053569e+02
203             	3.38070262e+02
204             	3.38086321e+02
205             	3.38101788e+02
206             	3.38118303e+02
207             	3.38133415e+02
208             	3.38148417e+02
209             	3.38163572e+02
210             	3.38178736e+02
211             	3.38193755e+02
212             	3.38208594e+02
213             	3.38223147e+02
214             	3.38237251e+02
215             	3.38250884e+02
216             	3.38263775e+02
217             	3.38276824e+02
218             	3.38289283e+02
219             	3.38301437e+02
220             	3.38313150e+02
221             	3.38324455e+02
222             	3.38335386e+02
223             	3.38346009e+02
224             	3.38356359e+02
225             	3.38366470e+02
226             	3.38376356e+02
227             	3.38386543e+02
228             	3.38396180e+02
229             	3.38405721e+02
230             	3.38415127e+02
231             	3.38424646e+02
232             	3.38433897e+02
233             	3.38443043e+02
234             	3.38452125e+02
235             	3.38461094e+02
236             	3.38469896e+02
237             	3.38478494e+02
238             	3.38486760e+02
239             	3.38494744e+02
240             	3.38501894e+02
241             	3.38509507e+02
242             	3.38516969e+02
243             	3.38524015e+02
244             	3.38530717e+02
245             	3.38537183e+02
246             	3.38543448e+02
247             	3.38549537e+02
248             	3.38555331e+02
249             	3.38561244e+02
250             	3.38568994e+02
251             	3.38574881e+02
252             	3.38580935e+02
253             	3.38587112e+02
254             	3.38593573e+02
255             	3.38600197e+02
256             	3.38606495e+02
257             	3.38613500e+02
258             	3.38620387e+02
259             	3.38626866e+02
260             	3.38632172e+02
261             	3.38637066e+02
262             	3.38642231e+02
263             	3.38647011e+02
264             	3.38651494e+02
265             	3.38655818e+02
266             	3.38659404e+02
267             	3.38662899e+02
268             	3.38666614e+02
269             	3.38670478e+02
270             	3.38674446e+02
271             	3.38679166e+02
272             	3.38683249e+02
273             	3.38687362e+02
274             	3.38691651e+02
275             	3.38695909e+02
276             	3.38700546e+02
277             	3.38705203e+02
278             	3.38709732e+02
279             	3.38714179e+02
280             	3.38718579e+02
281             	3.38722933e+02
282             	3.38727125e+02
283             	3.38731306e+02
284             	3.38735514e+02
285             	3.38739438e+02
286             	3.38743206e+02
287             	3.38746836e+02
288             	3.38749801e+02
289             	3.38753074e+02
290             	3.38756214e+02
291             	3.38759028e+02
292             	3.38761565e+02
293             	3.38763875e+02
294             	3.38765951e+02
295             	3.38768193e+02
296             	3.38770394e+02
297             	3.38772769e+02
298             	3.38774783e+02
299             	3.38777013e+02
300             	3.38778985e+02
301             	3.38781004e+02
302             	3.38783844e+02
303             	3.38786215e+02
304             	3.38788629e+02
305             	3.38790938e+02
306             	3.38793440e+02
307             	3.38796666e+02
308             	3.38800089e+02
309             	3.38803626e+02
310             	3.38807100e+02
311             	3.38810295e+02
312             	3.38813179e+02
313             	3.38815891e+02
314             	3.38818464e+02
315             	3.38820964e+02
316             	3.38823621e+02
317             	3.38826200e+02
318             	3.38828371e+02
319             	3.38830874e+02
320             	3.38833429e+02
321             	3.38835578e+02
322             	3.38837867e+02
323             	3.38840096e+02
324             	3.38842193e+02
325             	3.38844168e+02
326             	3.38846100e+02
327             	3.38848047e+02
328             	3.38850029e+02
329             	3.38852066e+02
330             	3.38854149e+02
331             	3.38856282e+02
332             	3.38858472e+02
333             	3.38860812e+02
334             	3.38863122e+02
335             	3.38865503e+02
336             	3.38867971e+02
337             	3.38870494e+02
338             	3.38873053e+02
339             	3.38875611e+02
340             	3.38878217e+02
341             	3.38880641e+02
342             	3.38883002e+02
343             	3.38885430e+02
344             	3.38887909e+02
345             	3.38890490e+02
346             	3.38892802e+02
347             	3.38895162e+02
348             	3.38897099e+02
349             	3.38899619e+02
350             	3.38902251e+02
351             	3.38904781e+02
352             	3.38907042e+02
353             	3.38909421e+02
354             	3.38911775e+02
355             	3.38913899e+02
356             	3.38916033e+02
357             	3.38918118e+02
358             	3.38920134e+02
359             	3.38922088e+02
360             	3.38924004e+02
361             	3.38925905e+02
362             	3.38927862e+02
363             	3.38929674e+02
364             	3.38931610e+02
365             	3.38933464e+02
366             	3.38935337e+02
367             	3.38937260e+02
368             	3.38939223e+02
369             	3.38941229e+02
370             	3.38943265e+02
371             	3.38945328e+02
372             	3.38947414e+02
373             	3.38949542e+02
374             	3.38951656e+02
375             	3.38953782e+02
376             	3.38955967e+02
377             	3.38958176e+02
378             	3.38960415e+02
379             	3.38962689e+02
380             	3.38965003e+02
381             	3.38967357e+02
382             	3.38969754e+02
383             	3.38972189e+02
384             	3.38974566e+02
385             	3.38977007e+02
386             	3.38979454e+02
387             	3.38981863e+02
388             	3.38984252e+02
389             	3.38986591e+02
390             	3.38988876e+02
391             	3.38991100e+02
392             	3.38993261e+02
393             	3.38995360e+02
394             	3.38997403e+02
395             	3.38999399e+02
396             	3.39001361e+02
397             	3.39003301e+02
398             	3.39005253e+02
399             	3.39007211e+02
400             	3.39009194e+02
401             	3.39011159e+02
402             	3.39013110e+02
403             	3.39015077e+02
404             	3.39017060e+02
405             	3.39019049e+02
406             	3.39021036e+02
407             	3.39023015e+02
408             	3.39024982e+02
409             	3.39026937e+02
410             	3.39028882e+02
411             	3.39030817e+02
412             	3.39032754e+02
413             	3.39034693e+02
414             	3.39036635e+02
415             	3.39038641e+02
416             	3.39040633e+02
417             	3.39042636e+02
418             	3.39044682e+02
419             	3.39046780e+02
420             	3.39048925e+02
421             	3.39050992e+02
422             	3.39053168e+02
423             	3.39055365e+02
424             	3.39057551e+02
425             	3.39059787e+02
426             	3.39061945e+02
427             	3.39064084e+02
428             	3.39066225e+02
429             	3.39068363e+02
430             	3.39070490e+02
431             	3.39072602e+02
432             	3.39074700e+02
433             	3.39076783e+02
434             	3.39078852e+02
435             	3.39080813e+02
436             	3.39082827e+02
437             	3.39084823e+02
438             	3.39086772e+02
439             	3.39088565e+02
440             	3.39090383e+02
441             	3.39092224e+02
442             	3.39094006e+02
443             	3.39095730e+02
444             	3.39097584e+02
445             	3.39099276e+02
446             	3.39100958e+02
447             	3.39102686e+02
448             	3.39104459e+02
449             	3.39106271e+02
450             	3.39108117e+02
451             	3.39109951e+02
452             	3.39111828e+02
453             	3.39113724e+02
454             	3.39115465e+02
455             	3.39117365e+02
456             	3.39119285e+02
457             	3.39121257e+02
458             	3.39123247e+02
459             	3.39125100e+02
460             	3.39126959e+02
461             	3.39128857e+02
462             	3.39130773e+02
463             	3.39132665e+02
464             	3.39134560e+02
465             	3.39136450e+02
466             	3.39138330e+02
467             	3.39140192e+02
468             	3.39142029e+02
469             	3.39143868e+02
470             	3.39145701e+02
471             	3.39147504e+02
472             	3.39149222e+02
473             	3.39151019e+02
474             	3.39152617e+02
475             	3.39154409e+02
476             	3.39156231e+02
477             	3.39158031e+02
478             	3.39159808e+02
479             	3.39161569e+02
480             	3.39163324e+02
481             	3.39165087e+02
482             	3.39166857e+02
483             	3.39168656e+02
484             	3.39170557e+02
485             	3.39172364e+02
486             	3.39174195e+02
487             	3.39176080e+02
488             	3.39178044e+02
489             	3.39180000e+02
490             	3.39181917e+02
491             	3.39183841e+02
492             	3.39185772e+02
493             	3.39187694e+02
494             	3.39189650e+02
495             	3.39191581e+02
496             	3.39193430e+02
497             	3.39194845e+02
498             	3.39196644e+02
499             	3.39198464e+02
500             	3.39200161e+02
501             	3.39201755e+02
502             	3.39203269e+02
503             	3.39204721e+02
504             	3.39206147e+02
505             	3.39207554e+02
506             	3.39208951e+02
507             	3.39210352e+02
508             	3.39211727e+02
509             	3.39213101e+02
510             	3.39214491e+02
511             	3.39215897e+02
512             	3.39217315e+02
513             	3.39218757e+02
514             	3.39220603e+02
515             	3.39222103e+02
516             	3.39223615e+02
517             	3.39225268e+02
518             	3.39226840e+02
519             	3.39228693e+02
520             	3.39230468e+02
521             	3.39232358e+02
522             	3.39234240e+02
523             	3.39236081e+02
524             	3.39237882e+02
525             	3.39239604e+02
526             	3.39241201e+02
527             	3.39242748e+02
528             	3.39244053e+02
529             	3.39245462e+02
530             	3.39246839e+02
531             	3.39248194e+02
532             	3.39249464e+02
533             	3.39250700e+02
534             	3.39252093e+02
535             	3.39253369e+02
536             	3.39254672e+02
537             	3.39256063e+02
538             	3.39257580e+02
539             	3.39259058e+02
540             	3.39260622e+02
541             	3.39262131e+02
542             	3.39263670e+02
543             	3.39265277e+02
544             	3.39266937e+02
545             	3.39268624e+02
546             	3.39270320e+02
547             	3.39272028e+02
548             	3.39273735e+02
549             	3.39275403e+02
550             	3.39277018e+02
551             	3.39278569e+02
552             	3.39280010e+02
553             	3.39281494e+02
554             	3.39282946e+02
555             	3.39284343e+02
556             	3.39285685e+02
557             	3.39287042e+02
558             	3.39288399e+02
559             	3.39289728e+02
560             	3.39291099e+02
561             	3.39292479e+02
562             	3.39293906e+02
563             	3.39295360e+02
564             	3.39296867e+02
565             	3.39298255e+02
566             	3.39299606e+02
567             	3.39300978e+02
568             	3.39302346e+02
569             	3.39303793e+02
570             	3.39305183e+02
571             	3.39306575e+02
572             	3.39308022e+02
573             	3.39309502e+02
574             	3.39311019e+02
575             	3.39312602e+02
576             	3.39314145e+02
577             	3.39315695e+02
578             	3.39317261e+02
579             	3.39318830e+02
580             	3.39320379e+02
581             	3.39321911e+02
582             	3.39323424e+02
583             	3.39324938e+02
584             	3.39326430e+02
585             	3.39327894e+02
586             	3.39329346e+02
587             	3.39330776e+02
588             	3.39332187e+02
589             	3.39333278e+02
590             	3.39334579e+02
591             	3.39335879e+02
592             	3.39337085e+02
593             	3.39338190e+02
594             	3.39339292e+02
595             	3.39340331e+02
596             	3.39341342e+02
597             	3.39342457e+02
598             	3.39343590e+02
599             	3.39344631e+02
600             	3.39345713e+02
601             	3.39346865e+02
602             	3.39348055e+02
603             	3.39349297e+02
604             	3.39350585e+02
605             	3.39351882e+02
606             	3.39353240e+02
607             	3.39354628e+02
608             	3.39356029e+02
609             	3.39357447e+02
610             	3.39358835e+02
611             	3.39360208e+02
612             	3.39361568e+02
613             	3.39362852e+02
614             	3.39364164e+02
615             	3.39365348e+02
616             	3.39366586e+02
617             	3.39367703e+02
618             	3.39368850e+02
619             	3.39369975e+02
620             	3.39371071e+02
621             	3.39372153e+02
