# Region        : cellZone component_2
# Cells         : 72
# Volume        : 1.34590952e-01
# Time          	volAverage(T)
1               	3.00667194e+02
2               	3.01327700e+02
3               	3.01932701e+02
4               	3.02506511e+02
5               	3.03068818e+02
6               	3.03618235e+02
7               	3.04161523e+02
8               	3.04705825e+02
9               	3.05246074e+02
10              	3.05787109e+02
11              	3.06297982e+02
12              	3.06794029e+02
13              	3.07274258e+02
14              	3.07740477e+02
15              	3.08190819e+02
16              	3.08631346e+02
17              	3.09056397e+02
18              	3.09477019e+02
19              	3.09879259e+02
20              	3.10291270e+02
21              	3.10718715e+02
22              	3.11131439e+02
23              	3.11539826e+02
24              	3.11935577e+02
25              	3.12329358e+02
26              	3.12702761e+02
27              	3.13073993e+02
28              	3.13457989e+02
29              	3.13830741e+02
30              	3.14200638e+02
31              	3.14562412e+02
32              	3.14904776e+02
33              	3.15212626e+02
34              	3.15490021e+02
35              	3.15729593e+02
36              	3.15927031e+02
37              	3.16129838e+02
38              	3.16368467e+02
39              	3.16623435e+02
40              	3.16872893e+02
41              	3.17122832e+02
42              	3.17383757e+02
43              	3.17630228e+02
44              	3.17873251e+02
45              	3.18117483e+02
46              	3.18399040e+02
47              	3.18706279e+02
48              	3.18981644e+02
49              	3.19207613e+02
50              	3.19414628e+02
51              	3.19579273e+02
52              	3.19780323e+02
53              	3.20008782e+02
54              	3.20225018e+02
55              	3.20423068e+02
56              	3.20606818e+02
57              	3.20780547e+02
58              	3.20963001e+02
59              	3.21146970e+02
60              	3.21326056e+02
61              	3.21500503e+02
62              	3.21663494e+02
63              	3.21819247e+02
64              	3.21982671e+02
65              	3.22119602e+02
66              	3.22223960e+02
67              	3.22275403e+02
68              	3.22317607e+02
69              	3.22376975e+02
70              	3.22453301e+02
71              	3.22560586e+02
72              	3.22687734e+02
73              	3.22824664e+02
74              	3.22951801e+02
75              	3.23083986e+02
76              	3.23205925e+02
77              	3.23337196e+02
78              	3.23484044e+02
79              	3.23644005e+02
80              	3.23807238e+02
81              	3.23983801e+02
82              	3.24121773e+02
83              	3.24206603e+02
84              	3.24297602e+02
85              	3.24411936e+02
86              	3.24533713e+02
87              	3.24652658e+02
88              	3.24769546e+02
89              	3.24890179e+02
90              	3.24992977e+02
91              	3.25092255e+02
92              	3.25183428e+02
93              	3.25285929e+02
94              	3.25353506e+02
95              	3.25395707e+02
96              	3.25405648e+02
97              	3.25406344e+02
98              	3.25398942e+02
99              	3.25421233e+02
100             	3.25478046e+02
101             	3.25538419e+02
102             	3.25596441e+02
103             	3.25640038e+02
104             	3.25700974e+02
105             	3.25751239e+02
106             	3.25815994e+02
107             	3.25895224e+02
108             	3.25963202e+02
109             	3.26046291e+02
110             	3.26162106e+02
111             	3.26183428e+02
112             	3.26160456e+02
113             	3.26095735e+02
114             	3.26033282e+02
115             	3.26033610e+02
116             	3.26053377e+02
117             	3.26078412e+02
118             	3.26120433e+02
119             	3.26177864e+02
120             	3.26246855e+02
121             	3.26307066e+02
122             	3.26370302e+02
123             	3.26447622e+02
124             	3.26530859e+02
125             	3.26614318e+02
126             	3.26697599e+02
127             	3.26794473e+02
128             	3.26901271e+02
129             	3.26983907e+02
130             	3.27043195e+02
131             	3.27116160e+02
132             	3.27196384e+02
133             	3.27280039e+02
134             	3.27363916e+02
135             	3.27448050e+02
136             	3.27525286e+02
137             	3.27595691e+02
138             	3.27666955e+02
139             	3.27733117e+02
140             	3.27799386e+02
141             	3.27875590e+02
142             	3.27953141e+02
143             	3.28034870e+02
144             	3.28118101e+02
145             	3.28211091e+02
146             	3.28311458e+02
147             	3.28412882e+02
148             	3.28508804e+02
149             	3.28602906e+02
150             	3.28696287e+02
151             	3.28790528e+02
152             	3.28882810e+02
153             	3.28972344e+02
154             	3.29061171e+02
155             	3.29150063e+02
156             	3.29236722e+02
157             	3.29313233e+02
158             	3.29390395e+02
159             	3.29462611e+02
160             	3.29530306e+02
161             	3.29597302e+02
162             	3.29664457e+02
163             	3.29728480e+02
164             	3.29793484e+02
165             	3.29841270e+02
166             	3.29905330e+02
167             	3.29967703e+02
168             	3.30033691e+02
169             	3.30095768e+02
170             	3.30153275e+02
171             	3.30208226e+02
172             	3.30262319e+02
173             	3.30318821e+02
174             	3.30372658e+02
175             	3.30425243e+02
176             	3.30478234e+02
177             	3.30527597e+02
178             	3.30576910e+02
179             	3.30624559e+02
180             	3.30672182e+02
181             	3.30720906e+02
182             	3.30768492e+02
183             	3.30815593e+02
184             	3.30862191e+02
185             	3.30910999e+02
186             	3.30962860e+02
187             	3.31015809e+02
188             	3.31073125e+02
189             	3.31119590e+02
190             	3.31171096e+02
191             	3.31219982e+02
192             	3.31273140e+02
193             	3.31326143e+02
194             	3.31373790e+02
195             	3.31415914e+02
196             	3.31449735e+02
197             	3.31479693e+02
198             	3.31505953e+02
199             	3.31530644e+02
200             	3.31552575e+02
201             	3.31572672e+02
202             	3.31594300e+02
203             	3.31618015e+02
204             	3.31642652e+02
205             	3.31668567e+02
206             	3.31697690e+02
207             	3.31730880e+02
208             	3.31768431e+02
209             	3.31799809e+02
210             	3.31834993e+02
211             	3.31873128e+02
212             	3.31912379e+02
213             	3.31950694e+02
214             	3.31986597e+02
215             	3.32020758e+02
216             	3.32049998e+02
217             	3.32074802e+02
218             	3.32091846e+02
219             	3.32111575e+02
220             	3.32131390e+02
221             	3.32150687e+02
222             	3.32170171e+02
223             	3.32191984e+02
224             	3.32216733e+02
225             	3.32246241e+02
226             	3.32277870e+02
227             	3.32308267e+02
228             	3.32341965e+02
229             	3.32377742e+02
230             	3.32415668e+02
231             	3.32455588e+02
232             	3.32492009e+02
233             	3.32526486e+02
234             	3.32559591e+02
235             	3.32588554e+02
236             	3.32615425e+02
237             	3.32638936e+02
238             	3.32659751e+02
239             	3.32677133e+02
240             	3.32693189e+02
241             	3.32705631e+02
242             	3.32710868e+02
243             	3.32719318e+02
244             	3.32730648e+02
245             	3.32741075e+02
246             	3.32751331e+02
247             	3.32762803e+02
248             	3.32773079e+02
249             	3.32784717e+02
250             	3.32800186e+02
251             	3.32817924e+02
252             	3.32833732e+02
253             	3.32850661e+02
254             	3.32870194e+02
255             	3.32892040e+02
256             	3.32916007e+02
257             	3.32940569e+02
258             	3.32964786e+02
259             	3.32989103e+02
260             	3.33012517e+02
261             	3.33035260e+02
262             	3.33056375e+02
263             	3.33076741e+02
264             	3.33093297e+02
265             	3.33105252e+02
266             	3.33116524e+02
267             	3.33128769e+02
268             	3.33140036e+02
269             	3.33150751e+02
270             	3.33163024e+02
271             	3.33173941e+02
272             	3.33184702e+02
273             	3.33197751e+02
274             	3.33211985e+02
275             	3.33228333e+02
276             	3.33244376e+02
277             	3.33260478e+02
278             	3.33277939e+02
279             	3.33298271e+02
280             	3.33319569e+02
281             	3.33339709e+02
282             	3.33359618e+02
283             	3.33379068e+02
284             	3.33398077e+02
285             	3.33415984e+02
286             	3.33432700e+02
287             	3.33448426e+02
288             	3.33463193e+02
289             	3.33477994e+02
290             	3.33490651e+02
291             	3.33501006e+02
292             	3.33513883e+02
293             	3.33528097e+02
294             	3.33542954e+02
295             	3.33558317e+02
296             	3.33573946e+02
297             	3.33590205e+02
298             	3.33604674e+02
299             	3.33620682e+02
300             	3.33636235e+02
301             	3.33652057e+02
302             	3.33667448e+02
303             	3.33686351e+02
304             	3.33700389e+02
305             	3.33714933e+02
306             	3.33730134e+02
307             	3.33744730e+02
308             	3.33758672e+02
309             	3.33771108e+02
310             	3.33782778e+02
311             	3.33793665e+02
312             	3.33804058e+02
313             	3.33812306e+02
314             	3.33819369e+02
315             	3.33826427e+02
316             	3.33833364e+02
317             	3.33839919e+02
318             	3.33845872e+02
319             	3.33852044e+02
320             	3.33857092e+02
321             	3.33861205e+02
322             	3.33866564e+02
323             	3.33872887e+02
324             	3.33880493e+02
325             	3.33888683e+02
326             	3.33896459e+02
327             	3.33903702e+02
328             	3.33911257e+02
329             	3.33920209e+02
330             	3.33929680e+02
331             	3.33939363e+02
332             	3.33949032e+02
333             	3.33958724e+02
334             	3.33968703e+02
335             	3.33978646e+02
336             	3.33988508e+02
337             	3.33997953e+02
338             	3.34007065e+02
339             	3.34015482e+02
340             	3.34023770e+02
341             	3.34031137e+02
342             	3.34038020e+02
343             	3.34046837e+02
344             	3.34052670e+02
345             	3.34058340e+02
346             	3.34064568e+02
347             	3.34071140e+02
348             	3.34077506e+02
349             	3.34082638e+02
350             	3.34088880e+02
351             	3.34095438e+02
352             	3.34102086e+02
353             	3.34108547e+02
354             	3.34114597e+02
355             	3.34120807e+02
356             	3.34127965e+02
357             	3.34135937e+02
358             	3.34144140e+02
359             	3.34152381e+02
360             	3.34160531e+02
361             	3.34168769e+02
362             	3.34176020e+02
363             	3.34182637e+02
364             	3.34189091e+02
365             	3.34195674e+02
366             	3.34202507e+02
367             	3.34209512e+02
368             	3.34216586e+02
369             	3.34223401e+02
370             	3.34229762e+02
371             	3.34234493e+02
372             	3.34239895e+02
373             	3.34245337e+02
374             	3.34250424e+02
375             	3.34255440e+02
376             	3.34261229e+02
377             	3.34264751e+02
378             	3.34268230e+02
379             	3.34271915e+02
380             	3.34275711e+02
381             	3.34279468e+02
382             	3.34283035e+02
383             	3.34286395e+02
384             	3.34289878e+02
385             	3.34293195e+02
386             	3.34296469e+02
387             	3.34299760e+02
388             	3.34302920e+02
389             	3.34306016e+02
390             	3.34309209e+02
391             	3.34312617e+02
392             	3.34315360e+02
393             	3.34318133e+02
394             	3.34321410e+02
395             	3.34325041e+02
396             	3.34328583e+02
397             	3.34332116e+02
398             	3.34335898e+02
399             	3.34339747e+02
400             	3.34343310e+02
401             	3.34347118e+02
402             	3.34351248e+02
403             	3.34355288e+02
404             	3.34359235e+02
405             	3.34363313e+02
406             	3.34367178e+02
407             	3.34370728e+02
408             	3.34374117e+02
409             	3.34377353e+02
410             	3.34380542e+02
411             	3.34383739e+02
412             	3.34386532e+02
413             	3.34388892e+02
414             	3.34391077e+02
415             	3.34393590e+02
416             	3.34396085e+02
417             	3.34398319e+02
418             	3.34400368e+02
419             	3.34402570e+02
420             	3.34405074e+02
421             	3.34407769e+02
422             	3.34410809e+02
423             	3.34413940e+02
424             	3.34416594e+02
425             	3.34419341e+02
426             	3.34422344e+02
427             	3.34425342e+02
428             	3.34428299e+02
429             	3.34431356e+02
430             	3.34434399e+02
431             	3.34436750e+02
432             	3.34439940e+02
433             	3.34442549e+02
434             	3.34445666e+02
435             	3.34448953e+02
436             	3.34452045e+02
437             	3.34454654e+02
438             	3.34457118e+02
439             	3.34459403e+02
440             	3.34461597e+02
441             	3.34463825e+02
442             	3.34465886e+02
443             	3.34467846e+02
444             	3.34469819e+02
445             	3.34471655e+02
446             	3.34473417e+02
447             	3.34475209e+02
448             	3.34476902e+02
449             	3.34478481e+02
450             	3.34480103e+02
451             	3.34481638e+02
452             	3.34483070e+02
453             	3.34484487e+02
454             	3.34485720e+02
455             	3.34486852e+02
456             	3.34488088e+02
457             	3.34489227e+02
458             	3.34490317e+02
459             	3.34491484e+02
460             	3.34492610e+02
461             	3.34493737e+02
462             	3.34494934e+02
463             	3.34496082e+02
464             	3.34497239e+02
465             	3.34498389e+02
466             	3.34499449e+02
467             	3.34500487e+02
468             	3.34501547e+02
469             	3.34502489e+02
470             	3.34503415e+02
471             	3.34504379e+02
472             	3.34505318e+02
473             	3.34506256e+02
474             	3.34507323e+02
475             	3.34508359e+02
476             	3.34509411e+02
477             	3.34510566e+02
478             	3.34511671e+02
479             	3.34512772e+02
480             	3.34514007e+02
481             	3.34515293e+02
482             	3.34516688e+02
483             	3.34518019e+02
484             	3.34519169e+02
485             	3.34520423e+02
486             	3.34521789e+02
487             	3.34523005e+02
488             	3.34524067e+02
489             	3.34525362e+02
490             	3.34527029e+02
491             	3.34528803e+02
492             	3.34530762e+02
493             	3.34532607e+02
494             	3.34534197e+02
495             	3.34535768e+02
496             	3.34537365e+02
497             	3.34538992e+02
498             	3.34540224e+02
499             	3.34541708e+02
500             	3.34543185e+02
501             	3.34544668e+02
502             	3.34545991e+02
503             	3.34547206e+02
504             	3.34548446e+02
505             	3.34549531e+02
506             	3.34550483e+02
507             	3.34551419e+02
508             	3.34552261e+02
509             	3.34552751e+02
510             	3.34553644e+02
511             	3.34554350e+02
512             	3.34555158e+02
513             	3.34556074e+02
514             	3.34556886e+02
515             	3.34557611e+02
516             	3.34558388e+02
517             	3.34559028e+02
518             	3.34559575e+02
519             	3.34560158e+02
520             	3.34560647e+02
521             	3.34561124e+02
522             	3.34561530e+02
523             	3.34561831e+02
524             	3.34562066e+02
525             	3.34562379e+02
526             	3.34562546e+02
527             	3.34562717e+02
528             	3.34563041e+02
529             	3.34563270e+02
530             	3.34563414e+02
531             	3.34563648e+02
532             	3.34563809e+02
533             	3.34563914e+02
534             	3.34564029e+02
535             	3.34564041e+02
536             	3.34564082e+02
537             	3.34564239e+02
538             	3.34564342e+02
539             	3.34564425e+02
540             	3.34564647e+02
541             	3.34564900e+02
542             	3.34565243e+02
543             	3.34565607e+02
544             	3.34566007e+02
545             	3.34566392e+02
546             	3.34566912e+02
547             	3.34567441e+02
548             	3.34568011e+02
549             	3.34568505e+02
550             	3.34569155e+02
551             	3.34569818e+02
552             	3.34570574e+02
553             	3.34571268e+02
554             	3.34571945e+02
555             	3.34572728e+02
556             	3.34573465e+02
557             	3.34574185e+02
558             	3.34574992e+02
559             	3.34575765e+02
560             	3.34576497e+02
561             	3.34577276e+02
562             	3.34578021e+02
563             	3.34578726e+02
564             	3.34579485e+02
565             	3.34580148e+02
566             	3.34580766e+02
567             	3.34581490e+02
568             	3.34582121e+02
569             	3.34582688e+02
570             	3.34583313e+02
571             	3.34583848e+02
572             	3.34584328e+02
573             	3.34584871e+02
574             	3.34585370e+02
575             	3.34585814e+02
576             	3.34586302e+02
577             	3.34586706e+02
578             	3.34587063e+02
579             	3.34587482e+02
580             	3.34587787e+02
581             	3.34588108e+02
582             	3.34588428e+02
583             	3.34588681e+02
584             	3.34588877e+02
585             	3.34589123e+02
586             	3.34589392e+02
587             	3.34589687e+02
588             	3.34589975e+02
589             	3.34590060e+02
590             	3.34590121e+02
591             	3.34590292e+02
592             	3.34590399e+02
593             	3.34590461e+02
594             	3.34590585e+02
595             	3.34590619e+02
596             	3.34590606e+02
597             	3.34590672e+02
598             	3.34590683e+02
599             	3.34590611e+02
600             	3.34590629e+02
601             	3.34590616e+02
602             	3.34590588e+02
603             	3.34590656e+02
604             	3.34590691e+02
605             	3.34590737e+02
606             	3.34590901e+02
607             	3.34591031e+02
608             	3.34591138e+02
609             	3.34591388e+02
610             	3.34591599e+02
611             	3.34591791e+02
612             	3.34592072e+02
613             	3.34592308e+02
614             	3.34592472e+02
615             	3.34592706e+02
616             	3.34592925e+02
617             	3.34593083e+02
618             	3.34593273e+02
619             	3.34593355e+02
620             	3.34593485e+02
621             	3.34593708e+02
