# Region        : cellZone component_0
# Cells         : 36
# Volume        : 4.70348602e-02
# Time          	volAverage(T)
1               	3.04609600e+02
2               	3.09021872e+02
3               	3.11894038e+02
4               	3.13836419e+02
5               	3.15710617e+02
6               	3.17734856e+02
7               	3.19642331e+02
8               	3.21257978e+02
9               	3.22639167e+02
10              	3.24042279e+02
11              	3.25474957e+02
12              	3.26801656e+02
13              	3.27921580e+02
14              	3.28799809e+02
15              	3.29541093e+02
16              	3.30359408e+02
17              	3.31506206e+02
18              	3.32664260e+02
19              	3.33652008e+02
20              	3.34469796e+02
21              	3.35165863e+02
22              	3.36008437e+02
23              	3.36805100e+02
24              	3.37578115e+02
25              	3.38306687e+02
26              	3.39101334e+02
27              	3.39977821e+02
28              	3.40789669e+02
29              	3.41630890e+02
30              	3.42463600e+02
31              	3.43252223e+02
32              	3.43743353e+02
33              	3.44031760e+02
34              	3.44225513e+02
35              	3.44433561e+02
36              	3.44665749e+02
37              	3.44755032e+02
38              	3.44670941e+02
39              	3.44823717e+02
40              	3.45201291e+02
41              	3.45635642e+02
42              	3.46016356e+02
43              	3.46396693e+02
44              	3.46687134e+02
45              	3.46945381e+02
46              	3.47217313e+02
47              	3.47440027e+02
48              	3.47644000e+02
49              	3.48002178e+02
50              	3.48513130e+02
51              	3.48881072e+02
52              	3.49143220e+02
53              	3.49276627e+02
54              	3.49369716e+02
55              	3.49698263e+02
56              	3.49966647e+02
57              	3.50161818e+02
58              	3.50287189e+02
59              	3.50403708e+02
60              	3.50378544e+02
61              	3.50379453e+02
62              	3.50346405e+02
63              	3.50249668e+02
64              	3.50084901e+02
65              	3.49605876e+02
66              	3.49390975e+02
67              	3.49334519e+02
68              	3.49544109e+02
69              	3.49870002e+02
70              	3.50137087e+02
71              	3.50280407e+02
72              	3.50425790e+02
73              	3.50481894e+02
74              	3.50404447e+02
75              	3.50261346e+02
76              	3.50346661e+02
77              	3.50294282e+02
78              	3.50374045e+02
79              	3.50534868e+02
80              	3.50525906e+02
81              	3.50617838e+02
82              	3.51047474e+02
83              	3.50928109e+02
84              	3.50661654e+02
85              	3.50304710e+02
86              	3.50067416e+02
87              	3.50036909e+02
88              	3.49977156e+02
89              	3.49782860e+02
90              	3.49452194e+02
91              	3.49269703e+02
92              	3.49070827e+02
93              	3.49055479e+02
94              	3.49233171e+02
95              	3.49426314e+02
96              	3.49225901e+02
97              	3.48903870e+02
98              	3.48453898e+02
99              	3.48141764e+02
100             	3.48061907e+02
101             	3.48150333e+02
102             	3.48370736e+02
103             	3.48495252e+02
104             	3.48509521e+02
105             	3.48426265e+02
106             	3.48350062e+02
107             	3.48393756e+02
108             	3.48460908e+02
109             	3.48638037e+02
110             	3.48738608e+02
111             	3.48969920e+02
112             	3.49325838e+02
113             	3.49576009e+02
114             	3.49700040e+02
115             	3.49817336e+02
116             	3.49881580e+02
117             	3.50035326e+02
118             	3.50162176e+02
119             	3.50348621e+02
120             	3.50570263e+02
121             	3.50722234e+02
122             	3.50891762e+02
123             	3.51161093e+02
124             	3.51482754e+02
125             	3.51746322e+02
126             	3.51887178e+02
127             	3.52019202e+02
128             	3.52116266e+02
129             	3.52247396e+02
130             	3.52342706e+02
131             	3.52398151e+02
132             	3.52513112e+02
133             	3.52712932e+02
134             	3.52989945e+02
135             	3.53220006e+02
136             	3.53430904e+02
137             	3.53490199e+02
138             	3.53714100e+02
139             	3.53865166e+02
140             	3.53978359e+02
141             	3.54087949e+02
142             	3.54145068e+02
143             	3.54271611e+02
144             	3.54482963e+02
145             	3.54768396e+02
146             	3.55044664e+02
147             	3.55412890e+02
148             	3.55901174e+02
149             	3.56445458e+02
150             	3.56930118e+02
151             	3.57156629e+02
152             	3.57386376e+02
153             	3.57652279e+02
154             	3.57886373e+02
155             	3.58088295e+02
156             	3.58261338e+02
157             	3.58419900e+02
158             	3.58525996e+02
159             	3.58646932e+02
160             	3.58724574e+02
161             	3.58787149e+02
162             	3.58843469e+02
163             	3.58863836e+02
164             	3.58894519e+02
165             	3.58934082e+02
166             	3.58957336e+02
167             	3.58980643e+02
168             	3.59053346e+02
169             	3.59184822e+02
170             	3.59345354e+02
171             	3.59509588e+02
172             	3.59672074e+02
173             	3.59880731e+02
174             	3.59968824e+02
175             	3.60105805e+02
176             	3.60160050e+02
177             	3.60237739e+02
178             	3.60374126e+02
179             	3.60373520e+02
180             	3.60433007e+02
181             	3.60488865e+02
182             	3.60541557e+02
183             	3.60588332e+02
184             	3.60643886e+02
185             	3.60653513e+02
186             	3.60724997e+02
187             	3.60675336e+02
188             	3.60622364e+02
189             	3.60520765e+02
190             	3.60427273e+02
191             	3.60319760e+02
192             	3.60214748e+02
193             	3.60146802e+02
194             	3.60086315e+02
195             	3.60091207e+02
196             	3.60116372e+02
197             	3.60163837e+02
198             	3.60235324e+02
199             	3.60312094e+02
200             	3.60399445e+02
201             	3.60513712e+02
202             	3.60619890e+02
203             	3.60702817e+02
204             	3.60775186e+02
205             	3.60826603e+02
206             	3.60866623e+02
207             	3.60892584e+02
208             	3.60907864e+02
209             	3.60926146e+02
210             	3.60948957e+02
211             	3.60962648e+02
212             	3.60968927e+02
213             	3.60972121e+02
214             	3.60971289e+02
215             	3.60972099e+02
216             	3.60986757e+02
217             	3.61007459e+02
218             	3.61018516e+02
219             	3.61031656e+02
220             	3.61041187e+02
221             	3.61041666e+02
222             	3.61019921e+02
223             	3.60970320e+02
224             	3.60913685e+02
225             	3.60863028e+02
226             	3.60808053e+02
227             	3.60782887e+02
228             	3.60781211e+02
229             	3.60795765e+02
230             	3.60837992e+02
231             	3.60908239e+02
232             	3.60997141e+02
233             	3.61089879e+02
234             	3.61042851e+02
235             	3.61058356e+02
236             	3.61105569e+02
237             	3.61154928e+02
238             	3.61184578e+02
239             	3.61194719e+02
240             	3.61189204e+02
241             	3.61243786e+02
242             	3.61251939e+02
243             	3.61268766e+02
244             	3.61277857e+02
245             	3.61282384e+02
246             	3.61296948e+02
247             	3.61320264e+02
248             	3.61358266e+02
249             	3.61411957e+02
250             	3.61357318e+02
251             	3.61342656e+02
252             	3.61391162e+02
253             	3.61458915e+02
254             	3.61530215e+02
255             	3.61590762e+02
256             	3.61640158e+02
257             	3.61688471e+02
258             	3.61679642e+02
259             	3.61660288e+02
260             	3.61601958e+02
261             	3.61507887e+02
262             	3.61423367e+02
263             	3.61388997e+02
264             	3.61373127e+02
265             	3.61430041e+02
266             	3.61522334e+02
267             	3.61590177e+02
268             	3.61667112e+02
269             	3.61741414e+02
270             	3.61805667e+02
271             	3.61855457e+02
272             	3.61765845e+02
273             	3.61717508e+02
274             	3.61732965e+02
275             	3.61787314e+02
276             	3.61857349e+02
277             	3.61917706e+02
278             	3.61965225e+02
279             	3.62014996e+02
280             	3.62070045e+02
281             	3.62123845e+02
282             	3.62177685e+02
283             	3.62220086e+02
284             	3.62238637e+02
285             	3.62237677e+02
286             	3.62222273e+02
287             	3.62193209e+02
288             	3.62162113e+02
289             	3.62115909e+02
290             	3.62059471e+02
291             	3.62000294e+02
292             	3.61946619e+02
293             	3.61904057e+02
294             	3.61874140e+02
295             	3.61874636e+02
296             	3.61880200e+02
297             	3.61898176e+02
298             	3.61921737e+02
299             	3.61948773e+02
300             	3.61972355e+02
301             	3.61985218e+02
302             	3.61991547e+02
303             	3.61989582e+02
304             	3.61978495e+02
305             	3.61961280e+02
306             	3.61943560e+02
307             	3.61919966e+02
308             	3.61890499e+02
309             	3.61874984e+02
310             	3.61872331e+02
311             	3.61877567e+02
312             	3.61884343e+02
313             	3.61891475e+02
314             	3.61901468e+02
315             	3.61905431e+02
316             	3.61913494e+02
317             	3.61915715e+02
318             	3.61915049e+02
319             	3.61903143e+02
320             	3.61875375e+02
321             	3.61841692e+02
322             	3.61798130e+02
323             	3.61746541e+02
324             	3.61689466e+02
325             	3.61633909e+02
326             	3.61586635e+02
327             	3.61554495e+02
328             	3.61542922e+02
329             	3.61547496e+02
330             	3.61562420e+02
331             	3.61587769e+02
332             	3.61614643e+02
333             	3.61639435e+02
334             	3.61659850e+02
335             	3.61670788e+02
336             	3.61671998e+02
337             	3.61664460e+02
338             	3.61650862e+02
339             	3.61633049e+02
340             	3.61620188e+02
341             	3.61613551e+02
342             	3.61624805e+02
343             	3.61653661e+02
344             	3.61693743e+02
345             	3.61739230e+02
346             	3.61780722e+02
347             	3.61817997e+02
348             	3.61836284e+02
349             	3.61850134e+02
350             	3.61853902e+02
351             	3.61843045e+02
352             	3.61819857e+02
353             	3.61792886e+02
354             	3.61764913e+02
355             	3.61741526e+02
356             	3.61726051e+02
357             	3.61717975e+02
358             	3.61714392e+02
359             	3.61711925e+02
360             	3.61708966e+02
361             	3.61704753e+02
362             	3.61700334e+02
363             	3.61697410e+02
364             	3.61693493e+02
365             	3.61697732e+02
366             	3.61698974e+02
367             	3.61704723e+02
368             	3.61708241e+02
369             	3.61711060e+02
370             	3.61718368e+02
371             	3.61730532e+02
372             	3.61750505e+02
373             	3.61774874e+02
374             	3.61807624e+02
375             	3.61846265e+02
376             	3.61884162e+02
377             	3.61922353e+02
378             	3.61956169e+02
379             	3.61985534e+02
380             	3.62010808e+02
381             	3.62031799e+02
382             	3.62043809e+02
383             	3.62047794e+02
384             	3.62042698e+02
385             	3.62028487e+02
386             	3.62009005e+02
387             	3.61987896e+02
388             	3.61962694e+02
389             	3.61934081e+02
390             	3.61900181e+02
391             	3.61866085e+02
392             	3.61836536e+02
393             	3.61816241e+02
394             	3.61807120e+02
395             	3.61800078e+02
396             	3.61796470e+02
397             	3.61793996e+02
398             	3.61788365e+02
399             	3.61777105e+02
400             	3.61766969e+02
401             	3.61758024e+02
402             	3.61748550e+02
403             	3.61737429e+02
404             	3.61723786e+02
405             	3.61710480e+02
406             	3.61701437e+02
407             	3.61702992e+02
408             	3.61712113e+02
409             	3.61732144e+02
410             	3.61758021e+02
411             	3.61784517e+02
412             	3.61809368e+02
413             	3.61826267e+02
414             	3.61835075e+02
415             	3.61837729e+02
416             	3.61834273e+02
417             	3.61827138e+02
418             	3.61818147e+02
419             	3.61813903e+02
420             	3.61808423e+02
421             	3.61810852e+02
422             	3.61818499e+02
423             	3.61831889e+02
424             	3.61848612e+02
425             	3.61864611e+02
426             	3.61877673e+02
427             	3.61886292e+02
428             	3.61888022e+02
429             	3.61884036e+02
430             	3.61875408e+02
431             	3.61861743e+02
432             	3.61851030e+02
433             	3.61836828e+02
434             	3.61819968e+02
435             	3.61803070e+02
436             	3.61788044e+02
437             	3.61778143e+02
438             	3.61778342e+02
439             	3.61786668e+02
440             	3.61799379e+02
441             	3.61814109e+02
442             	3.61830792e+02
443             	3.61840177e+02
444             	3.61848807e+02
445             	3.61851092e+02
446             	3.61847113e+02
447             	3.61841419e+02
448             	3.61833482e+02
449             	3.61826074e+02
450             	3.61823266e+02
451             	3.61825128e+02
452             	3.61829476e+02
453             	3.61836269e+02
454             	3.61845083e+02
455             	3.61856442e+02
456             	3.61868735e+02
457             	3.61885670e+02
458             	3.61901452e+02
459             	3.61918866e+02
460             	3.61933477e+02
461             	3.61945415e+02
462             	3.61957830e+02
463             	3.61969903e+02
464             	3.61982788e+02
465             	3.61996830e+02
466             	3.62008835e+02
467             	3.62020857e+02
468             	3.62032352e+02
469             	3.62041450e+02
470             	3.62047765e+02
471             	3.62051799e+02
472             	3.62047902e+02
473             	3.62043432e+02
474             	3.62034173e+02
475             	3.62025125e+02
476             	3.62016706e+02
477             	3.62008951e+02
478             	3.62000162e+02
479             	3.61990289e+02
480             	3.61982147e+02
481             	3.61971736e+02
482             	3.61962472e+02
483             	3.61956223e+02
484             	3.61954391e+02
485             	3.61956989e+02
486             	3.61963358e+02
487             	3.61971738e+02
488             	3.61981277e+02
489             	3.61992240e+02
490             	3.62003169e+02
491             	3.62014527e+02
492             	3.62023779e+02
493             	3.62032157e+02
494             	3.62038354e+02
495             	3.62043062e+02
496             	3.62046800e+02
497             	3.62049458e+02
498             	3.62052728e+02
499             	3.62055908e+02
500             	3.62057889e+02
501             	3.62059557e+02
502             	3.62060797e+02
503             	3.62061382e+02
504             	3.62060736e+02
505             	3.62059773e+02
506             	3.62059853e+02
507             	3.62061669e+02
508             	3.62061935e+02
509             	3.62061498e+02
510             	3.62059961e+02
511             	3.62056479e+02
512             	3.62049711e+02
513             	3.62043457e+02
514             	3.62037007e+02
515             	3.62031182e+02
516             	3.62026651e+02
517             	3.62022765e+02
518             	3.62018835e+02
519             	3.62016203e+02
520             	3.62015995e+02
521             	3.62018301e+02
522             	3.62021834e+02
523             	3.62025401e+02
524             	3.62029530e+02
525             	3.62033603e+02
526             	3.62036767e+02
527             	3.62038526e+02
528             	3.62038745e+02
529             	3.62037735e+02
530             	3.62034770e+02
531             	3.62034240e+02
532             	3.62033567e+02
533             	3.62033166e+02
534             	3.62034673e+02
535             	3.62035674e+02
536             	3.62036032e+02
537             	3.62033373e+02
538             	3.62028242e+02
539             	3.62020718e+02
540             	3.62009063e+02
541             	3.61999412e+02
542             	3.61992381e+02
543             	3.61987972e+02
544             	3.61985231e+02
545             	3.61983111e+02
546             	3.61981357e+02
547             	3.61980673e+02
548             	3.61980845e+02
549             	3.61982284e+02
550             	3.61985655e+02
551             	3.61990672e+02
552             	3.61997356e+02
553             	3.62005314e+02
554             	3.62013506e+02
555             	3.62022520e+02
556             	3.62031384e+02
557             	3.62039776e+02
558             	3.62047650e+02
559             	3.62054283e+02
560             	3.62059608e+02
561             	3.62064241e+02
562             	3.62068774e+02
563             	3.62070293e+02
564             	3.62071900e+02
565             	3.62073153e+02
566             	3.62073118e+02
567             	3.62071804e+02
568             	3.62068787e+02
569             	3.62063593e+02
570             	3.62057007e+02
571             	3.62048895e+02
572             	3.62040175e+02
573             	3.62031972e+02
574             	3.62025990e+02
575             	3.62021420e+02
576             	3.62017739e+02
577             	3.62014339e+02
578             	3.62010822e+02
579             	3.62007861e+02
580             	3.62004402e+02
581             	3.62000721e+02
582             	3.61996191e+02
583             	3.61993656e+02
584             	3.61991814e+02
585             	3.61991208e+02
586             	3.61991376e+02
587             	3.61991793e+02
588             	3.61992259e+02
589             	3.61992810e+02
590             	3.61993487e+02
591             	3.61994070e+02
592             	3.61994901e+02
593             	3.61998046e+02
594             	3.62001737e+02
595             	3.62005622e+02
596             	3.62009069e+02
597             	3.62012290e+02
598             	3.62015442e+02
599             	3.62019541e+02
600             	3.62023738e+02
601             	3.62028069e+02
602             	3.62032238e+02
603             	3.62035628e+02
604             	3.62038054e+02
605             	3.62041059e+02
606             	3.62043558e+02
607             	3.62045373e+02
608             	3.62046269e+02
609             	3.62046459e+02
610             	3.62046033e+02
611             	3.62045179e+02
612             	3.62043844e+02
613             	3.62042202e+02
614             	3.62039980e+02
615             	3.62037097e+02
616             	3.62033991e+02
617             	3.62031032e+02
618             	3.62028403e+02
619             	3.62026610e+02
620             	3.62026590e+02
621             	3.62027573e+02
