# Region        : cellZone component_1
# Cells         : 64
# Volume        : 8.76050314e-02
# Time          	volAverage(T)
1               	3.05546675e+02
2               	3.11001164e+02
3               	3.15777783e+02
4               	3.20234634e+02
5               	3.24613965e+02
6               	3.28982351e+02
7               	3.33328028e+02
8               	3.37697411e+02
9               	3.41992606e+02
10              	3.46255970e+02
11              	3.50412790e+02
12              	3.54406369e+02
13              	3.58208699e+02
14              	3.61980753e+02
15              	3.65572295e+02
16              	3.69354690e+02
17              	3.72919709e+02
18              	3.76310944e+02
19              	3.79608341e+02
20              	3.82816707e+02
21              	3.86122241e+02
22              	3.89406267e+02
23              	3.92600959e+02
24              	3.95677929e+02
25              	3.98541793e+02
26              	4.01195312e+02
27              	4.03702553e+02
28              	4.06164612e+02
29              	4.08473187e+02
30              	4.10771461e+02
31              	4.12958519e+02
32              	4.15015195e+02
33              	4.17288927e+02
34              	4.19417152e+02
35              	4.21468863e+02
36              	4.23551018e+02
37              	4.25683864e+02
38              	4.27954397e+02
39              	4.30388704e+02
40              	4.32826619e+02
41              	4.35182188e+02
42              	4.37638888e+02
43              	4.39752458e+02
44              	4.41593446e+02
45              	4.43158318e+02
46              	4.44580155e+02
47              	4.46053628e+02
48              	4.47396229e+02
49              	4.48624024e+02
50              	4.49878795e+02
51              	4.51156832e+02
52              	4.52412597e+02
53              	4.53749826e+02
54              	4.55101932e+02
55              	4.56383582e+02
56              	4.57596364e+02
57              	4.58903481e+02
58              	4.60348755e+02
59              	4.61920681e+02
60              	4.63512625e+02
61              	4.65166043e+02
62              	4.66665211e+02
63              	4.67906194e+02
64              	4.69179431e+02
65              	4.70438503e+02
66              	4.71589181e+02
67              	4.72478732e+02
68              	4.73413878e+02
69              	4.74445555e+02
70              	4.75676019e+02
71              	4.77031517e+02
72              	4.78434062e+02
73              	4.79872499e+02
74              	4.81385709e+02
75              	4.82919770e+02
76              	4.84429366e+02
77              	4.86015787e+02
78              	4.87606388e+02
79              	4.89326586e+02
80              	4.91138239e+02
81              	4.93047692e+02
82              	4.95023695e+02
83              	4.96945478e+02
84              	4.98884811e+02
85              	5.00724810e+02
86              	5.02306750e+02
87              	5.03760851e+02
88              	5.05176398e+02
89              	5.06627049e+02
90              	5.08086308e+02
91              	5.09553605e+02
92              	5.10975614e+02
93              	5.12350179e+02
94              	5.13620065e+02
95              	5.14806601e+02
96              	5.15921516e+02
97              	5.17032560e+02
98              	5.18149336e+02
99              	5.19252500e+02
100             	5.20314492e+02
101             	5.21404593e+02
102             	5.22500309e+02
103             	5.23477014e+02
104             	5.24527825e+02
105             	5.25619065e+02
106             	5.26730862e+02
107             	5.27835510e+02
108             	5.28948915e+02
109             	5.30025358e+02
110             	5.31049108e+02
111             	5.32014782e+02
112             	5.32881980e+02
113             	5.33760062e+02
114             	5.34624856e+02
115             	5.35515921e+02
116             	5.36402131e+02
117             	5.37298445e+02
118             	5.38238929e+02
119             	5.39235791e+02
120             	5.40300411e+02
121             	5.41369414e+02
122             	5.42389428e+02
123             	5.43420567e+02
124             	5.44443373e+02
125             	5.45501100e+02
126             	5.46548830e+02
127             	5.47646856e+02
128             	5.48628268e+02
129             	5.49449081e+02
130             	5.50285038e+02
131             	5.51073691e+02
132             	5.51801323e+02
133             	5.52502959e+02
134             	5.53179778e+02
135             	5.53827603e+02
136             	5.54446619e+02
137             	5.55079721e+02
138             	5.55625482e+02
139             	5.56261891e+02
140             	5.56907094e+02
141             	5.57598740e+02
142             	5.58313773e+02
143             	5.58899360e+02
144             	5.59474218e+02
145             	5.60034223e+02
146             	5.60564900e+02
147             	5.61056979e+02
148             	5.61540591e+02
149             	5.62073664e+02
150             	5.62480434e+02
151             	5.62942025e+02
152             	5.63408651e+02
153             	5.63887872e+02
154             	5.64171272e+02
155             	5.64445950e+02
156             	5.64713511e+02
157             	5.64916688e+02
158             	5.65080441e+02
159             	5.65258145e+02
160             	5.65433593e+02
161             	5.65638668e+02
162             	5.65895594e+02
163             	5.66157797e+02
164             	5.66409945e+02
165             	5.66528974e+02
166             	5.66721231e+02
167             	5.66940167e+02
168             	5.67185276e+02
169             	5.67365202e+02
170             	5.67518062e+02
171             	5.67729875e+02
172             	5.67940575e+02
173             	5.68149673e+02
174             	5.68331856e+02
175             	5.68478557e+02
176             	5.68470778e+02
177             	5.68517651e+02
178             	5.68587735e+02
179             	5.68645504e+02
180             	5.68695539e+02
181             	5.68656627e+02
182             	5.68670884e+02
183             	5.68680269e+02
184             	5.68703208e+02
185             	5.68725780e+02
186             	5.68750203e+02
187             	5.68766477e+02
188             	5.68715070e+02
189             	5.68685706e+02
190             	5.68707943e+02
191             	5.68751775e+02
192             	5.68828789e+02
193             	5.68836618e+02
194             	5.68892484e+02
195             	5.68969653e+02
196             	5.69066028e+02
197             	5.69164442e+02
198             	5.69238638e+02
199             	5.69267921e+02
200             	5.69285980e+02
201             	5.69312147e+02
202             	5.69339852e+02
203             	5.69345230e+02
204             	5.69367197e+02
205             	5.69388012e+02
206             	5.69419791e+02
207             	5.69478329e+02
208             	5.69501232e+02
209             	5.69448390e+02
210             	5.69441703e+02
211             	5.69493103e+02
212             	5.69496727e+02
213             	5.69515482e+02
214             	5.69549001e+02
215             	5.69592832e+02
216             	5.69669907e+02
217             	5.69713269e+02
218             	5.69748093e+02
219             	5.69805075e+02
220             	5.69852470e+02
221             	5.69889103e+02
222             	5.69868562e+02
223             	5.69860843e+02
224             	5.69871795e+02
225             	5.69871412e+02
226             	5.69840788e+02
227             	5.69811794e+02
228             	5.69786786e+02
229             	5.69772198e+02
230             	5.69754247e+02
231             	5.69722925e+02
232             	5.69667928e+02
233             	5.69645324e+02
234             	5.69636582e+02
235             	5.69641762e+02
236             	5.69655909e+02
237             	5.69642721e+02
238             	5.69629000e+02
239             	5.69624799e+02
240             	5.69628263e+02
241             	5.69636605e+02
242             	5.69642686e+02
243             	5.69650555e+02
244             	5.69631110e+02
245             	5.69625301e+02
246             	5.69611769e+02
247             	5.69596736e+02
248             	5.69582676e+02
249             	5.69569418e+02
250             	5.69556848e+02
251             	5.69545130e+02
252             	5.69534295e+02
253             	5.69524389e+02
254             	5.69515441e+02
255             	5.69507582e+02
256             	5.69500614e+02
257             	5.69494442e+02
258             	5.69489007e+02
259             	5.69483939e+02
260             	5.69479158e+02
261             	5.69474515e+02
262             	5.69470002e+02
263             	5.69465559e+02
264             	5.69461622e+02
265             	5.69458150e+02
266             	5.69455062e+02
267             	5.69452424e+02
268             	5.69450053e+02
269             	5.69447889e+02
270             	5.69445682e+02
271             	5.69443693e+02
272             	5.69441840e+02
273             	5.69440074e+02
274             	5.69438397e+02
275             	5.69436841e+02
276             	5.69435427e+02
277             	5.69434694e+02
278             	5.69433556e+02
279             	5.69432176e+02
280             	5.69430643e+02
281             	5.69429031e+02
282             	5.69427355e+02
283             	5.69425649e+02
284             	5.69424114e+02
285             	5.69422776e+02
286             	5.69421705e+02
287             	5.69420949e+02
288             	5.69420538e+02
289             	5.69420449e+02
290             	5.69420611e+02
291             	5.69421079e+02
292             	5.69421738e+02
293             	5.69422428e+02
294             	5.69423101e+02
295             	5.69423777e+02
296             	5.69424381e+02
297             	5.69424848e+02
298             	5.69425247e+02
299             	5.69425576e+02
300             	5.69425878e+02
301             	5.69426206e+02
302             	5.69426637e+02
303             	5.69426989e+02
304             	5.69427305e+02
305             	5.69427612e+02
306             	5.69427863e+02
307             	5.69428076e+02
308             	5.69428131e+02
309             	5.69428150e+02
310             	5.69428139e+02
311             	5.69428099e+02
312             	5.69428110e+02
313             	5.69428237e+02
314             	5.69428534e+02
315             	5.69428908e+02
316             	5.69429521e+02
317             	5.69430198e+02
318             	5.69431095e+02
319             	5.69432123e+02
320             	5.69433157e+02
321             	5.69434317e+02
322             	5.69435537e+02
323             	5.69436780e+02
324             	5.69438022e+02
325             	5.69439243e+02
326             	5.69440451e+02
327             	5.69441632e+02
328             	5.69442778e+02
329             	5.69443878e+02
330             	5.69444932e+02
331             	5.69446123e+02
332             	5.69447042e+02
333             	5.69447778e+02
334             	5.69448339e+02
335             	5.69448767e+02
336             	5.69449097e+02
337             	5.69449363e+02
338             	5.69449602e+02
339             	5.69449869e+02
340             	5.69450215e+02
341             	5.69450586e+02
342             	5.69451183e+02
343             	5.69451966e+02
344             	5.69452911e+02
345             	5.69454078e+02
346             	5.69455193e+02
347             	5.69456245e+02
348             	5.69457216e+02
349             	5.69458103e+02
350             	5.69458912e+02
351             	5.69459627e+02
352             	5.69460332e+02
353             	5.69460917e+02
354             	5.69461649e+02
355             	5.69462457e+02
356             	5.69463360e+02
357             	5.69464304e+02
358             	5.69465244e+02
359             	5.69466166e+02
360             	5.69467005e+02
361             	5.69467933e+02
362             	5.69468583e+02
363             	5.69469044e+02
364             	5.69469351e+02
365             	5.69469615e+02
366             	5.69469843e+02
367             	5.69470073e+02
368             	5.69470320e+02
369             	5.69470599e+02
370             	5.69470922e+02
371             	5.69471297e+02
372             	5.69471776e+02
373             	5.69472207e+02
374             	5.69472765e+02
375             	5.69473425e+02
376             	5.69474164e+02
377             	5.69474959e+02
378             	5.69475802e+02
379             	5.69476672e+02
380             	5.69477550e+02
381             	5.69478323e+02
382             	5.69479192e+02
383             	5.69480112e+02
384             	5.69481093e+02
385             	5.69482037e+02
386             	5.69483002e+02
387             	5.69483830e+02
388             	5.69484539e+02
389             	5.69485142e+02
390             	5.69485655e+02
391             	5.69486041e+02
392             	5.69486394e+02
393             	5.69486732e+02
394             	5.69487056e+02
395             	5.69487306e+02
396             	5.69487617e+02
397             	5.69488072e+02
398             	5.69488510e+02
399             	5.69488941e+02
400             	5.69489374e+02
401             	5.69489844e+02
402             	5.69490388e+02
403             	5.69490909e+02
404             	5.69491294e+02
405             	5.69491606e+02
406             	5.69491869e+02
407             	5.69492032e+02
408             	5.69492256e+02
409             	5.69492559e+02
410             	5.69492939e+02
411             	5.69493387e+02
412             	5.69493884e+02
413             	5.69494386e+02
414             	5.69494989e+02
415             	5.69495653e+02
416             	5.69496342e+02
417             	5.69496879e+02
418             	5.69497552e+02
419             	5.69498312e+02
420             	5.69499168e+02
421             	5.69500029e+02
422             	5.69500768e+02
423             	5.69501405e+02
424             	5.69501906e+02
425             	5.69502326e+02
426             	5.69502612e+02
427             	5.69502787e+02
428             	5.69502899e+02
429             	5.69502983e+02
430             	5.69503081e+02
431             	5.69503184e+02
432             	5.69503337e+02
433             	5.69503594e+02
434             	5.69503826e+02
435             	5.69504065e+02
436             	5.69504315e+02
437             	5.69504568e+02
438             	5.69504815e+02
439             	5.69505125e+02
440             	5.69505487e+02
441             	5.69505893e+02
442             	5.69506340e+02
443             	5.69506814e+02
444             	5.69507291e+02
445             	5.69507746e+02
446             	5.69508171e+02
447             	5.69508545e+02
448             	5.69508727e+02
449             	5.69509054e+02
450             	5.69509492e+02
451             	5.69510018e+02
452             	5.69510617e+02
453             	5.69511307e+02
454             	5.69511956e+02
455             	5.69512559e+02
456             	5.69513107e+02
457             	5.69513609e+02
458             	5.69514029e+02
459             	5.69514276e+02
460             	5.69514392e+02
461             	5.69514302e+02
462             	5.69514274e+02
463             	5.69514292e+02
464             	5.69514349e+02
465             	5.69514437e+02
466             	5.69514544e+02
467             	5.69514647e+02
468             	5.69514832e+02
469             	5.69515119e+02
470             	5.69515214e+02
471             	5.69515204e+02
472             	5.69515149e+02
473             	5.69515030e+02
474             	5.69515027e+02
475             	5.69515133e+02
476             	5.69515259e+02
477             	5.69515675e+02
478             	5.69516386e+02
479             	5.69517316e+02
480             	5.69518094e+02
481             	5.69518736e+02
482             	5.69519250e+02
483             	5.69519647e+02
484             	5.69519914e+02
485             	5.69520066e+02
486             	5.69520007e+02
487             	5.69520027e+02
488             	5.69520120e+02
489             	5.69520310e+02
490             	5.69520575e+02
491             	5.69520912e+02
492             	5.69521345e+02
493             	5.69521667e+02
494             	5.69521899e+02
495             	5.69522066e+02
496             	5.69522176e+02
497             	5.69522159e+02
498             	5.69522017e+02
499             	5.69521840e+02
500             	5.69521654e+02
501             	5.69521458e+02
502             	5.69521348e+02
503             	5.69521309e+02
504             	5.69521412e+02
505             	5.69521616e+02
506             	5.69521882e+02
507             	5.69522176e+02
508             	5.69522482e+02
509             	5.69522740e+02
510             	5.69522936e+02
511             	5.69523074e+02
512             	5.69523163e+02
513             	5.69523285e+02
514             	5.69523315e+02
515             	5.69523291e+02
516             	5.69523250e+02
517             	5.69523206e+02
518             	5.69523173e+02
519             	5.69523208e+02
520             	5.69523308e+02
521             	5.69523469e+02
522             	5.69523783e+02
523             	5.69524052e+02
524             	5.69524298e+02
525             	5.69524511e+02
526             	5.69524698e+02
527             	5.69524785e+02
528             	5.69524917e+02
529             	5.69525080e+02
530             	5.69525261e+02
531             	5.69525445e+02
532             	5.69525623e+02
533             	5.69525813e+02
534             	5.69526048e+02
535             	5.69526280e+02
536             	5.69526530e+02
537             	5.69526753e+02
538             	5.69526956e+02
539             	5.69527147e+02
540             	5.69527330e+02
541             	5.69527509e+02
542             	5.69527694e+02
543             	5.69527882e+02
544             	5.69528067e+02
545             	5.69528253e+02
546             	5.69528443e+02
547             	5.69528613e+02
548             	5.69528778e+02
549             	5.69528934e+02
550             	5.69529080e+02
551             	5.69529233e+02
552             	5.69529392e+02
553             	5.69529551e+02
554             	5.69529704e+02
555             	5.69529874e+02
556             	5.69530061e+02
557             	5.69530264e+02
558             	5.69530483e+02
559             	5.69530709e+02
560             	5.69530938e+02
561             	5.69531163e+02
562             	5.69531372e+02
563             	5.69531593e+02
564             	5.69531760e+02
565             	5.69531884e+02
566             	5.69531968e+02
567             	5.69532020e+02
568             	5.69532044e+02
569             	5.69532060e+02
570             	5.69532051e+02
571             	5.69532031e+02
572             	5.69532011e+02
573             	5.69531999e+02
574             	5.69531996e+02
575             	5.69531999e+02
576             	5.69532006e+02
577             	5.69532003e+02
578             	5.69532018e+02
579             	5.69532044e+02
580             	5.69532078e+02
581             	5.69532077e+02
582             	5.69532135e+02
583             	5.69532236e+02
584             	5.69532368e+02
585             	5.69532520e+02
586             	5.69532680e+02
587             	5.69532843e+02
588             	5.69533011e+02
589             	5.69533158e+02
590             	5.69533281e+02
591             	5.69533438e+02
592             	5.69533507e+02
593             	5.69533519e+02
594             	5.69533498e+02
595             	5.69533463e+02
596             	5.69533424e+02
597             	5.69533414e+02
598             	5.69533439e+02
599             	5.69533508e+02
600             	5.69533621e+02
601             	5.69533768e+02
602             	5.69533941e+02
603             	5.69534125e+02
604             	5.69534309e+02
605             	5.69534545e+02
606             	5.69534730e+02
607             	5.69534889e+02
608             	5.69535030e+02
609             	5.69535160e+02
610             	5.69535293e+02
611             	5.69535435e+02
612             	5.69535591e+02
613             	5.69535711e+02
614             	5.69535878e+02
615             	5.69536077e+02
616             	5.69536289e+02
617             	5.69536496e+02
618             	5.69536684e+02
619             	5.69536847e+02
620             	5.69536979e+02
621             	5.69537078e+02
