# Region        : cellZone component_2
# Cells         : 144
# Volume        : 2.86165921e-01
# Time          	volAverage(T)
1               	3.00300832e+02
2               	3.00598807e+02
3               	3.00872962e+02
4               	3.01130421e+02
5               	3.01379142e+02
6               	3.01621193e+02
7               	3.01857461e+02
8               	3.02089246e+02
9               	3.02317439e+02
10              	3.02541318e+02
11              	3.02760821e+02
12              	3.02976776e+02
13              	3.03189873e+02
14              	3.03402293e+02
15              	3.03608074e+02
16              	3.03817020e+02
17              	3.04007784e+02
18              	3.04181570e+02
19              	3.04345909e+02
20              	3.04504128e+02
21              	3.04664153e+02
22              	3.04830960e+02
23              	3.05002051e+02
24              	3.05177817e+02
25              	3.05349155e+02
26              	3.05519087e+02
27              	3.05690101e+02
28              	3.05862473e+02
29              	3.06030629e+02
30              	3.06192970e+02
31              	3.06352894e+02
32              	3.06500642e+02
33              	3.06640252e+02
34              	3.06771190e+02
35              	3.06899722e+02
36              	3.07024373e+02
37              	3.07148722e+02
38              	3.07274847e+02
39              	3.07328672e+02
40              	3.07339716e+02
41              	3.07357679e+02
42              	3.07386387e+02
43              	3.07444385e+02
44              	3.07539814e+02
45              	3.07636037e+02
46              	3.07716335e+02
47              	3.07790412e+02
48              	3.07860910e+02
49              	3.07937864e+02
50              	3.08020185e+02
51              	3.08113168e+02
52              	3.08208235e+02
53              	3.08310012e+02
54              	3.08421711e+02
55              	3.08505803e+02
56              	3.08556513e+02
57              	3.08587842e+02
58              	3.08608715e+02
59              	3.08647379e+02
60              	3.08698592e+02
61              	3.08753768e+02
62              	3.08809373e+02
63              	3.08858736e+02
64              	3.08909597e+02
65              	3.08959891e+02
66              	3.09014386e+02
67              	3.09075895e+02
68              	3.09140678e+02
69              	3.09202830e+02
70              	3.09274205e+02
71              	3.09354534e+02
72              	3.09423746e+02
73              	3.09476478e+02
74              	3.09511493e+02
75              	3.09530924e+02
76              	3.09564821e+02
77              	3.09612024e+02
78              	3.09661351e+02
79              	3.09706579e+02
80              	3.09746904e+02
81              	3.09783751e+02
82              	3.09820813e+02
83              	3.09857903e+02
84              	3.09895845e+02
85              	3.09935912e+02
86              	3.09980358e+02
87              	3.10029004e+02
88              	3.10081841e+02
89              	3.10137902e+02
90              	3.10196714e+02
91              	3.10255781e+02
92              	3.10317519e+02
93              	3.10379697e+02
94              	3.10438640e+02
95              	3.10490412e+02
96              	3.10537287e+02
97              	3.10580347e+02
98              	3.10616016e+02
99              	3.10647293e+02
100             	3.10674880e+02
101             	3.10702475e+02
102             	3.10730416e+02
103             	3.10761003e+02
104             	3.10794230e+02
105             	3.10829175e+02
106             	3.10864959e+02
107             	3.10901329e+02
108             	3.10940712e+02
109             	3.10984397e+02
110             	3.11022549e+02
111             	3.11055025e+02
112             	3.11075076e+02
113             	3.11085088e+02
114             	3.11092636e+02
115             	3.11107695e+02
116             	3.11126745e+02
117             	3.11146180e+02
118             	3.11162147e+02
119             	3.11180236e+02
120             	3.11200652e+02
121             	3.11225014e+02
122             	3.11254795e+02
123             	3.11290518e+02
124             	3.11331599e+02
125             	3.11378418e+02
126             	3.11430364e+02
127             	3.11481795e+02
128             	3.11529099e+02
129             	3.11577718e+02
130             	3.11615137e+02
131             	3.11649598e+02
132             	3.11672235e+02
133             	3.11692571e+02
134             	3.11710211e+02
135             	3.11726841e+02
136             	3.11744840e+02
137             	3.11763084e+02
138             	3.11785811e+02
139             	3.11816331e+02
140             	3.11850521e+02
141             	3.11886337e+02
142             	3.11922216e+02
143             	3.11957038e+02
144             	3.11992211e+02
145             	3.12025541e+02
146             	3.12057654e+02
147             	3.12090417e+02
148             	3.12120889e+02
149             	3.12149663e+02
150             	3.12177774e+02
151             	3.12201878e+02
152             	3.12221735e+02
153             	3.12236961e+02
154             	3.12249424e+02
155             	3.12261447e+02
156             	3.12270564e+02
157             	3.12280320e+02
158             	3.12291920e+02
159             	3.12305308e+02
160             	3.12322235e+02
161             	3.12344218e+02
162             	3.12366441e+02
163             	3.12390233e+02
164             	3.12415625e+02
165             	3.12437055e+02
166             	3.12456829e+02
167             	3.12474444e+02
168             	3.12488870e+02
169             	3.12505964e+02
170             	3.12524813e+02
171             	3.12542116e+02
172             	3.12554631e+02
173             	3.12564227e+02
174             	3.12568179e+02
175             	3.12574211e+02
176             	3.12583992e+02
177             	3.12595086e+02
178             	3.12607274e+02
179             	3.12620398e+02
180             	3.12637835e+02
181             	3.12659430e+02
182             	3.12684691e+02
183             	3.12713239e+02
184             	3.12745620e+02
185             	3.12779956e+02
186             	3.12814026e+02
187             	3.12847041e+02
188             	3.12879612e+02
189             	3.12907071e+02
190             	3.12932839e+02
191             	3.12952392e+02
192             	3.12967812e+02
193             	3.12979057e+02
194             	3.12987023e+02
195             	3.12992471e+02
196             	3.12997155e+02
197             	3.13003631e+02
198             	3.13012326e+02
199             	3.13023187e+02
200             	3.13036000e+02
201             	3.13051072e+02
202             	3.13065355e+02
203             	3.13083641e+02
204             	3.13103261e+02
205             	3.13124991e+02
206             	3.13146894e+02
207             	3.13160207e+02
208             	3.13158873e+02
209             	3.13164403e+02
210             	3.13170367e+02
211             	3.13160531e+02
212             	3.13151169e+02
213             	3.13143463e+02
214             	3.13137122e+02
215             	3.13134044e+02
216             	3.13132931e+02
217             	3.13134350e+02
218             	3.13139124e+02
219             	3.13149259e+02
220             	3.13167960e+02
221             	3.13183287e+02
222             	3.13186665e+02
223             	3.13177908e+02
224             	3.13174614e+02
225             	3.13168978e+02
226             	3.13166323e+02
227             	3.13161003e+02
228             	3.13155473e+02
229             	3.13152323e+02
230             	3.13151916e+02
231             	3.13154171e+02
232             	3.13160136e+02
233             	3.13170056e+02
234             	3.13185320e+02
235             	3.13202014e+02
236             	3.13225776e+02
237             	3.13255147e+02
238             	3.13286279e+02
239             	3.13316999e+02
240             	3.13338601e+02
241             	3.13348632e+02
242             	3.13357730e+02
243             	3.13361639e+02
244             	3.13359508e+02
245             	3.13356427e+02
246             	3.13353665e+02
247             	3.13348903e+02
248             	3.13343978e+02
249             	3.13342097e+02
250             	3.13344035e+02
251             	3.13349464e+02
252             	3.13357942e+02
253             	3.13370264e+02
254             	3.13384939e+02
255             	3.13400891e+02
256             	3.13415301e+02
257             	3.13430100e+02
258             	3.13444610e+02
259             	3.13453155e+02
260             	3.13461308e+02
261             	3.13468731e+02
262             	3.13473879e+02
263             	3.13477008e+02
264             	3.13477715e+02
265             	3.13475422e+02
266             	3.13477764e+02
267             	3.13483656e+02
268             	3.13492500e+02
269             	3.13504531e+02
270             	3.13517540e+02
271             	3.13531435e+02
272             	3.13543352e+02
273             	3.13554307e+02
274             	3.13567366e+02
275             	3.13580557e+02
276             	3.13592103e+02
277             	3.13604269e+02
278             	3.13612626e+02
279             	3.13619323e+02
280             	3.13622781e+02
281             	3.13629152e+02
282             	3.13630755e+02
283             	3.13634255e+02
284             	3.13638118e+02
285             	3.13641206e+02
286             	3.13644582e+02
287             	3.13649084e+02
288             	3.13655213e+02
289             	3.13663387e+02
290             	3.13674169e+02
291             	3.13687567e+02
292             	3.13703169e+02
293             	3.13720653e+02
294             	3.13736179e+02
295             	3.13753902e+02
296             	3.13769023e+02
297             	3.13781591e+02
298             	3.13795612e+02
299             	3.13807696e+02
300             	3.13816233e+02
301             	3.13822646e+02
302             	3.13820802e+02
303             	3.13818873e+02
304             	3.13818084e+02
305             	3.13818600e+02
306             	3.13819861e+02
307             	3.13822197e+02
308             	3.13824664e+02
309             	3.13831188e+02
310             	3.13840122e+02
311             	3.13851981e+02
312             	3.13863302e+02
313             	3.13876221e+02
314             	3.13890004e+02
315             	3.13903419e+02
316             	3.13915371e+02
317             	3.13926553e+02
318             	3.13933992e+02
319             	3.13939895e+02
320             	3.13944154e+02
321             	3.13945928e+02
322             	3.13946704e+02
323             	3.13947033e+02
324             	3.13938743e+02
325             	3.13932486e+02
326             	3.13928656e+02
327             	3.13926329e+02
328             	3.13925080e+02
329             	3.13925413e+02
330             	3.13927941e+02
331             	3.13932591e+02
332             	3.13939373e+02
333             	3.13948842e+02
334             	3.13955298e+02
335             	3.13962922e+02
336             	3.13970982e+02
337             	3.13980241e+02
338             	3.13986728e+02
339             	3.13993377e+02
340             	3.13999167e+02
341             	3.14003633e+02
342             	3.14006162e+02
343             	3.14007602e+02
344             	3.14002677e+02
345             	3.13999761e+02
346             	3.14001016e+02
347             	3.14003862e+02
348             	3.14008419e+02
349             	3.14014574e+02
350             	3.14021155e+02
351             	3.14028998e+02
352             	3.14037350e+02
353             	3.14046487e+02
354             	3.14053565e+02
355             	3.14060827e+02
356             	3.14068240e+02
357             	3.14074801e+02
358             	3.14079204e+02
359             	3.14079730e+02
360             	3.14080632e+02
361             	3.14082403e+02
362             	3.14084621e+02
363             	3.14080455e+02
364             	3.14079042e+02
365             	3.14078080e+02
366             	3.14078832e+02
367             	3.14080592e+02
368             	3.14083112e+02
369             	3.14086634e+02
370             	3.14091512e+02
371             	3.14097695e+02
372             	3.14104207e+02
373             	3.14110011e+02
374             	3.14115862e+02
375             	3.14120894e+02
376             	3.14123987e+02
377             	3.14125008e+02
378             	3.14122367e+02
379             	3.14120605e+02
380             	3.14118658e+02
381             	3.14117197e+02
382             	3.14114470e+02
383             	3.14110707e+02
384             	3.14102288e+02
385             	3.14096921e+02
386             	3.14093590e+02
387             	3.14090572e+02
388             	3.14088245e+02
389             	3.14086898e+02
390             	3.14086964e+02
391             	3.14089405e+02
392             	3.14093132e+02
393             	3.14097195e+02
394             	3.14102650e+02
395             	3.14107750e+02
396             	3.14112560e+02
397             	3.14116916e+02
398             	3.14120400e+02
399             	3.14122805e+02
400             	3.14124583e+02
401             	3.14122793e+02
402             	3.14122081e+02
403             	3.14121083e+02
404             	3.14120348e+02
405             	3.14120002e+02
406             	3.14119745e+02
407             	3.14120381e+02
408             	3.14121498e+02
409             	3.14122221e+02
410             	3.14123146e+02
411             	3.14124785e+02
412             	3.14127065e+02
413             	3.14128685e+02
414             	3.14131823e+02
415             	3.14133353e+02
416             	3.14136825e+02
417             	3.14141525e+02
418             	3.14146869e+02
419             	3.14152759e+02
420             	3.14159174e+02
421             	3.14166166e+02
422             	3.14173892e+02
423             	3.14182073e+02
424             	3.14190155e+02
425             	3.14196841e+02
426             	3.14203561e+02
427             	3.14209890e+02
428             	3.14216702e+02
429             	3.14221934e+02
430             	3.14224036e+02
431             	3.14225858e+02
432             	3.14227818e+02
433             	3.14229448e+02
434             	3.14230201e+02
435             	3.14229402e+02
436             	3.14227952e+02
437             	3.14228036e+02
438             	3.14228876e+02
439             	3.14229559e+02
440             	3.14230898e+02
441             	3.14233155e+02
442             	3.14237010e+02
443             	3.14241547e+02
444             	3.14246718e+02
445             	3.14252519e+02
446             	3.14259067e+02
447             	3.14266099e+02
448             	3.14273276e+02
449             	3.14279503e+02
450             	3.14284815e+02
451             	3.14290300e+02
452             	3.14295530e+02
453             	3.14299818e+02
454             	3.14302984e+02
455             	3.14304829e+02
456             	3.14305272e+02
457             	3.14304803e+02
458             	3.14303664e+02
459             	3.14302114e+02
460             	3.14299472e+02
461             	3.14296873e+02
462             	3.14294963e+02
463             	3.14293957e+02
464             	3.14293833e+02
465             	3.14294626e+02
466             	3.14296423e+02
467             	3.14299013e+02
468             	3.14302244e+02
469             	3.14306191e+02
470             	3.14310306e+02
471             	3.14314631e+02
472             	3.14319080e+02
473             	3.14323614e+02
474             	3.14328261e+02
475             	3.14332955e+02
476             	3.14337563e+02
477             	3.14341935e+02
478             	3.14346034e+02
479             	3.14349561e+02
480             	3.14352521e+02
481             	3.14355456e+02
482             	3.14358073e+02
483             	3.14360207e+02
484             	3.14361862e+02
485             	3.14362884e+02
486             	3.14363600e+02
487             	3.14364115e+02
488             	3.14364568e+02
489             	3.14365106e+02
490             	3.14365722e+02
491             	3.14366420e+02
492             	3.14367306e+02
493             	3.14368430e+02
494             	3.14369783e+02
495             	3.14371374e+02
496             	3.14373212e+02
497             	3.14375114e+02
498             	3.14376956e+02
499             	3.14378617e+02
500             	3.14380160e+02
501             	3.14381996e+02
502             	3.14384043e+02
503             	3.14386023e+02
504             	3.14388101e+02
505             	3.14389995e+02
506             	3.14391360e+02
507             	3.14392555e+02
508             	3.14393895e+02
509             	3.14395269e+02
510             	3.14396504e+02
511             	3.14396780e+02
512             	3.14397045e+02
513             	3.14397718e+02
514             	3.14398631e+02
515             	3.14399273e+02
516             	3.14399980e+02
517             	3.14400069e+02
518             	3.14399599e+02
519             	3.14398048e+02
520             	3.14397789e+02
521             	3.14398199e+02
522             	3.14398967e+02
523             	3.14399811e+02
524             	3.14400880e+02
525             	3.14401376e+02
526             	3.14402490e+02
527             	3.14404183e+02
528             	3.14406277e+02
529             	3.14408942e+02
530             	3.14410399e+02
531             	3.14412051e+02
532             	3.14413537e+02
533             	3.14414969e+02
534             	3.14416255e+02
535             	3.14417161e+02
536             	3.14417763e+02
537             	3.14418057e+02
538             	3.14418138e+02
539             	3.14417953e+02
540             	3.14417523e+02
541             	3.14416936e+02
542             	3.14415504e+02
543             	3.14414836e+02
544             	3.14414728e+02
545             	3.14414922e+02
546             	3.14415416e+02
547             	3.14416185e+02
548             	3.14417317e+02
549             	3.14418757e+02
550             	3.14420628e+02
551             	3.14422882e+02
552             	3.14425337e+02
553             	3.14427877e+02
554             	3.14430381e+02
555             	3.14432796e+02
556             	3.14434876e+02
557             	3.14436617e+02
558             	3.14437933e+02
559             	3.14438769e+02
560             	3.14439225e+02
561             	3.14439368e+02
562             	3.14439258e+02
563             	3.14438748e+02
564             	3.14438297e+02
565             	3.14437642e+02
566             	3.14437054e+02
567             	3.14436595e+02
568             	3.14436305e+02
569             	3.14436299e+02
570             	3.14436370e+02
571             	3.14436885e+02
572             	3.14437747e+02
573             	3.14438875e+02
574             	3.14440254e+02
575             	3.14441873e+02
576             	3.14443723e+02
577             	3.14445757e+02
578             	3.14447910e+02
579             	3.14450141e+02
580             	3.14452246e+02
581             	3.14454179e+02
582             	3.14455844e+02
583             	3.14457119e+02
584             	3.14458019e+02
585             	3.14458462e+02
586             	3.14459099e+02
587             	3.14459743e+02
588             	3.14460295e+02
589             	3.14460637e+02
590             	3.14460878e+02
591             	3.14460756e+02
592             	3.14460545e+02
593             	3.14460426e+02
594             	3.14460584e+02
595             	3.14460652e+02
596             	3.14460305e+02
597             	3.14460192e+02
598             	3.14460165e+02
599             	3.14460019e+02
600             	3.14459821e+02
601             	3.14459685e+02
602             	3.14459368e+02
603             	3.14458959e+02
604             	3.14458657e+02
605             	3.14458367e+02
606             	3.14458226e+02
607             	3.14458179e+02
608             	3.14458352e+02
609             	3.14457736e+02
610             	3.14457579e+02
611             	3.14458319e+02
612             	3.14459233e+02
613             	3.14460369e+02
614             	3.14461544e+02
615             	3.14462732e+02
616             	3.14463791e+02
617             	3.14464640e+02
618             	3.14465411e+02
619             	3.14466309e+02
620             	3.14467622e+02
621             	3.14467615e+02
