# Region        : cellZone component_2
# Cells         : 254
# Volume        : 5.15632390e-01
# Time          	volAverage(T)
1               	3.00428894e+02
2               	3.00854691e+02
3               	3.01253053e+02
4               	3.01629181e+02
5               	3.02001882e+02
6               	3.02368214e+02
7               	3.02730105e+02
8               	3.03090016e+02
9               	3.03448318e+02
10              	3.03803809e+02
11              	3.04156934e+02
12              	3.04507809e+02
13              	3.04855027e+02
14              	3.05200362e+02
15              	3.05542112e+02
16              	3.05878320e+02
17              	3.06212297e+02
18              	3.06542514e+02
19              	3.06869745e+02
20              	3.07194530e+02
21              	3.07514346e+02
22              	3.07834074e+02
23              	3.08153486e+02
24              	3.08471222e+02
25              	3.08785268e+02
26              	3.09093318e+02
27              	3.09398583e+02
28              	3.09697543e+02
29              	3.09989041e+02
30              	3.10274684e+02
31              	3.10554384e+02
32              	3.10828823e+02
33              	3.11100128e+02
34              	3.11368425e+02
35              	3.11634853e+02
36              	3.11897855e+02
37              	3.12158991e+02
38              	3.12416441e+02
39              	3.12667960e+02
40              	3.12917971e+02
41              	3.13164276e+02
42              	3.13406833e+02
43              	3.13645876e+02
44              	3.13880830e+02
45              	3.14111813e+02
46              	3.14339755e+02
47              	3.14567360e+02
48              	3.14794963e+02
49              	3.15020529e+02
50              	3.15245685e+02
51              	3.15471661e+02
52              	3.15696888e+02
53              	3.15921526e+02
54              	3.16144877e+02
55              	3.16364038e+02
56              	3.16576761e+02
57              	3.16787279e+02
58              	3.16994796e+02
59              	3.17197694e+02
60              	3.17398006e+02
61              	3.17590562e+02
62              	3.17779246e+02
63              	3.17965623e+02
64              	3.18150830e+02
65              	3.18332610e+02
66              	3.18511972e+02
67              	3.18689843e+02
68              	3.18862205e+02
69              	3.19036682e+02
70              	3.19207745e+02
71              	3.19378373e+02
72              	3.19546486e+02
73              	3.19709873e+02
74              	3.19871062e+02
75              	3.20027677e+02
76              	3.20180533e+02
77              	3.20330761e+02
78              	3.20478011e+02
79              	3.20622805e+02
80              	3.20767677e+02
81              	3.20910974e+02
82              	3.21052759e+02
83              	3.21194772e+02
84              	3.21335320e+02
85              	3.21475537e+02
86              	3.21613755e+02
87              	3.21749464e+02
88              	3.21883445e+02
89              	3.22014528e+02
90              	3.22141505e+02
91              	3.22265536e+02
92              	3.22385846e+02
93              	3.22505214e+02
94              	3.22620432e+02
95              	3.22735188e+02
96              	3.22847419e+02
97              	3.22959467e+02
98              	3.23069528e+02
99              	3.23178357e+02
100             	3.23285696e+02
101             	3.23393203e+02
102             	3.23500608e+02
103             	3.23607751e+02
104             	3.23714385e+02
105             	3.23819281e+02
106             	3.23922911e+02
107             	3.24025514e+02
108             	3.24127187e+02
109             	3.24228202e+02
110             	3.24328121e+02
111             	3.24426382e+02
112             	3.24523234e+02
113             	3.24619285e+02
114             	3.24712847e+02
115             	3.24804046e+02
116             	3.24892913e+02
117             	3.24980355e+02
118             	3.25065670e+02
119             	3.25148460e+02
120             	3.25229013e+02
121             	3.25306892e+02
122             	3.25382801e+02
123             	3.25457916e+02
124             	3.25530316e+02
125             	3.25601630e+02
126             	3.25671516e+02
127             	3.25740447e+02
128             	3.25807248e+02
129             	3.25872820e+02
130             	3.25937389e+02
131             	3.26001721e+02
132             	3.26065514e+02
133             	3.26127352e+02
134             	3.26189462e+02
135             	3.26250216e+02
136             	3.26311487e+02
137             	3.26371624e+02
138             	3.26432464e+02
139             	3.26492959e+02
140             	3.26553986e+02
141             	3.26612707e+02
142             	3.26670666e+02
143             	3.26726937e+02
144             	3.26782001e+02
145             	3.26833990e+02
146             	3.26884497e+02
147             	3.26932783e+02
148             	3.26979121e+02
149             	3.27024648e+02
150             	3.27068927e+02
151             	3.27112877e+02
152             	3.27157870e+02
153             	3.27201418e+02
154             	3.27245482e+02
155             	3.27289654e+02
156             	3.27332846e+02
157             	3.27376560e+02
158             	3.27420564e+02
159             	3.27462945e+02
160             	3.27504565e+02
161             	3.27544940e+02
162             	3.27583938e+02
163             	3.27621293e+02
164             	3.27657448e+02
165             	3.27692410e+02
166             	3.27726054e+02
167             	3.27758586e+02
168             	3.27790483e+02
169             	3.27822144e+02
170             	3.27853794e+02
171             	3.27885778e+02
172             	3.27917577e+02
173             	3.27948220e+02
174             	3.27979981e+02
175             	3.28010598e+02
176             	3.28041315e+02
177             	3.28072343e+02
178             	3.28104775e+02
179             	3.28137978e+02
180             	3.28171730e+02
181             	3.28206105e+02
182             	3.28240428e+02
183             	3.28273626e+02
184             	3.28306499e+02
185             	3.28338235e+02
186             	3.28369019e+02
187             	3.28400096e+02
188             	3.28429923e+02
189             	3.28459325e+02
190             	3.28488270e+02
191             	3.28516815e+02
192             	3.28544024e+02
193             	3.28571648e+02
194             	3.28598884e+02
195             	3.28624712e+02
196             	3.28649207e+02
197             	3.28673404e+02
198             	3.28696742e+02
199             	3.28718590e+02
200             	3.28740767e+02
201             	3.28762163e+02
202             	3.28783345e+02
203             	3.28804320e+02
204             	3.28824464e+02
205             	3.28844413e+02
206             	3.28864932e+02
207             	3.28885272e+02
208             	3.28905426e+02
209             	3.28925399e+02
210             	3.28945264e+02
211             	3.28965075e+02
212             	3.28983763e+02
213             	3.29003358e+02
214             	3.29023183e+02
215             	3.29044046e+02
216             	3.29065648e+02
217             	3.29087993e+02
218             	3.29110483e+02
219             	3.29132834e+02
220             	3.29155239e+02
221             	3.29177107e+02
222             	3.29198011e+02
223             	3.29217920e+02
224             	3.29236534e+02
225             	3.29253679e+02
226             	3.29269511e+02
227             	3.29284308e+02
228             	3.29298568e+02
229             	3.29312088e+02
230             	3.29325095e+02
231             	3.29337661e+02
232             	3.29350347e+02
233             	3.29362922e+02
234             	3.29375692e+02
235             	3.29388671e+02
236             	3.29401420e+02
237             	3.29414252e+02
238             	3.29427479e+02
239             	3.29441299e+02
240             	3.29454985e+02
241             	3.29468759e+02
242             	3.29482658e+02
243             	3.29496624e+02
244             	3.29510377e+02
245             	3.29523112e+02
246             	3.29536569e+02
247             	3.29550034e+02
248             	3.29563706e+02
249             	3.29577153e+02
250             	3.29590111e+02
251             	3.29602301e+02
252             	3.29613823e+02
253             	3.29624855e+02
254             	3.29635537e+02
255             	3.29645798e+02
256             	3.29655855e+02
257             	3.29665804e+02
258             	3.29675681e+02
259             	3.29685912e+02
260             	3.29696821e+02
261             	3.29706728e+02
262             	3.29716757e+02
263             	3.29727465e+02
264             	3.29738666e+02
265             	3.29749500e+02
266             	3.29759739e+02
267             	3.29767981e+02
268             	3.29776398e+02
269             	3.29785099e+02
270             	3.29793445e+02
271             	3.29801530e+02
272             	3.29809134e+02
273             	3.29816118e+02
274             	3.29822604e+02
275             	3.29828995e+02
276             	3.29834933e+02
277             	3.29840426e+02
278             	3.29845205e+02
279             	3.29850428e+02
280             	3.29855292e+02
281             	3.29860497e+02
282             	3.29867495e+02
283             	3.29875768e+02
284             	3.29884389e+02
285             	3.29893593e+02
286             	3.29903619e+02
287             	3.29914070e+02
288             	3.29924636e+02
289             	3.29934837e+02
290             	3.29944950e+02
291             	3.29954500e+02
292             	3.29963330e+02
293             	3.29971707e+02
294             	3.29979513e+02
295             	3.29986475e+02
296             	3.29992639e+02
297             	3.29998700e+02
298             	3.30004840e+02
299             	3.30011406e+02
300             	3.30017888e+02
301             	3.30025159e+02
302             	3.30033127e+02
303             	3.30041370e+02
304             	3.30050368e+02
305             	3.30060159e+02
306             	3.30070335e+02
307             	3.30080365e+02
308             	3.30089897e+02
309             	3.30097759e+02
310             	3.30105818e+02
311             	3.30114211e+02
312             	3.30121809e+02
313             	3.30128419e+02
314             	3.30134828e+02
315             	3.30141143e+02
316             	3.30147300e+02
317             	3.30152930e+02
318             	3.30158426e+02
319             	3.30164433e+02
320             	3.30170042e+02
321             	3.30175341e+02
322             	3.30180786e+02
323             	3.30186928e+02
324             	3.30193028e+02
325             	3.30198585e+02
326             	3.30203361e+02
327             	3.30206561e+02
328             	3.30209606e+02
329             	3.30212486e+02
330             	3.30215592e+02
331             	3.30219676e+02
332             	3.30223898e+02
333             	3.30229924e+02
334             	3.30237449e+02
335             	3.30245648e+02
336             	3.30253509e+02
337             	3.30262066e+02
338             	3.30271267e+02
339             	3.30279966e+02
340             	3.30287383e+02
341             	3.30293595e+02
342             	3.30298360e+02
343             	3.30301139e+02
344             	3.30302320e+02
345             	3.30302423e+02
346             	3.30301950e+02
347             	3.30301396e+02
348             	3.30301170e+02
349             	3.30301605e+02
350             	3.30303084e+02
351             	3.30305832e+02
352             	3.30309773e+02
353             	3.30314718e+02
354             	3.30320856e+02
355             	3.30328138e+02
356             	3.30336360e+02
357             	3.30345271e+02
358             	3.30354732e+02
359             	3.30364263e+02
360             	3.30373961e+02
361             	3.30383241e+02
362             	3.30391996e+02
363             	3.30400761e+02
364             	3.30409144e+02
365             	3.30417245e+02
366             	3.30425102e+02
367             	3.30432694e+02
368             	3.30439838e+02
369             	3.30445919e+02
370             	3.30451067e+02
371             	3.30455466e+02
372             	3.30459172e+02
373             	3.30462060e+02
374             	3.30464206e+02
375             	3.30465917e+02
376             	3.30467261e+02
377             	3.30468194e+02
378             	3.30468777e+02
379             	3.30469137e+02
380             	3.30468937e+02
381             	3.30468375e+02
382             	3.30467960e+02
383             	3.30467880e+02
384             	3.30468491e+02
385             	3.30469163e+02
386             	3.30469795e+02
387             	3.30470441e+02
388             	3.30471149e+02
389             	3.30471995e+02
390             	3.30472778e+02
391             	3.30473456e+02
392             	3.30474303e+02
393             	3.30475241e+02
394             	3.30476156e+02
395             	3.30477072e+02
396             	3.30477810e+02
397             	3.30478576e+02
398             	3.30479334e+02
399             	3.30479917e+02
400             	3.30480243e+02
401             	3.30480294e+02
402             	3.30480064e+02
403             	3.30479651e+02
404             	3.30478908e+02
405             	3.30478009e+02
406             	3.30477114e+02
407             	3.30476562e+02
408             	3.30476124e+02
409             	3.30476010e+02
410             	3.30476417e+02
411             	3.30477258e+02
412             	3.30478417e+02
413             	3.30479945e+02
414             	3.30481965e+02
415             	3.30484421e+02
416             	3.30487454e+02
417             	3.30490723e+02
418             	3.30494228e+02
419             	3.30497917e+02
420             	3.30501801e+02
421             	3.30505944e+02
422             	3.30510443e+02
423             	3.30515272e+02
424             	3.30520452e+02
425             	3.30525915e+02
426             	3.30531589e+02
427             	3.30537377e+02
428             	3.30543402e+02
429             	3.30549069e+02
430             	3.30554498e+02
431             	3.30559640e+02
432             	3.30564413e+02
433             	3.30568723e+02
434             	3.30572471e+02
435             	3.30575632e+02
436             	3.30578217e+02
437             	3.30580354e+02
438             	3.30581960e+02
439             	3.30583141e+02
440             	3.30583970e+02
441             	3.30584672e+02
442             	3.30585331e+02
443             	3.30585882e+02
444             	3.30586401e+02
445             	3.30586907e+02
446             	3.30587384e+02
447             	3.30588069e+02
448             	3.30588822e+02
449             	3.30589625e+02
450             	3.30590577e+02
451             	3.30591473e+02
452             	3.30592162e+02
453             	3.30592614e+02
454             	3.30592857e+02
455             	3.30592889e+02
456             	3.30592730e+02
457             	3.30592720e+02
458             	3.30592614e+02
459             	3.30592587e+02
460             	3.30592358e+02
461             	3.30592199e+02
462             	3.30592152e+02
463             	3.30592122e+02
464             	3.30591753e+02
465             	3.30591333e+02
466             	3.30590991e+02
467             	3.30590641e+02
468             	3.30590239e+02
469             	3.30590200e+02
470             	3.30590390e+02
471             	3.30590451e+02
472             	3.30590566e+02
473             	3.30590918e+02
474             	3.30591536e+02
475             	3.30592385e+02
476             	3.30593524e+02
477             	3.30594942e+02
478             	3.30596678e+02
479             	3.30598686e+02
480             	3.30600888e+02
481             	3.30603180e+02
482             	3.30605505e+02
483             	3.30607788e+02
484             	3.30609944e+02
485             	3.30611883e+02
486             	3.30613586e+02
487             	3.30615172e+02
488             	3.30616667e+02
489             	3.30618036e+02
490             	3.30619254e+02
491             	3.30620302e+02
492             	3.30621260e+02
493             	3.30622262e+02
494             	3.30623236e+02
495             	3.30624013e+02
496             	3.30624649e+02
497             	3.30625176e+02
498             	3.30625615e+02
499             	3.30625962e+02
500             	3.30626011e+02
501             	3.30626108e+02
502             	3.30626178e+02
503             	3.30626176e+02
504             	3.30626111e+02
505             	3.30626054e+02
506             	3.30626096e+02
507             	3.30626212e+02
508             	3.30626493e+02
509             	3.30626816e+02
510             	3.30627238e+02
511             	3.30627788e+02
512             	3.30628489e+02
513             	3.30629354e+02
514             	3.30630288e+02
515             	3.30631360e+02
516             	3.30632609e+02
517             	3.30633945e+02
518             	3.30635371e+02
519             	3.30636798e+02
520             	3.30638182e+02
521             	3.30639520e+02
522             	3.30640841e+02
523             	3.30642022e+02
524             	3.30643174e+02
525             	3.30644365e+02
526             	3.30645515e+02
527             	3.30646552e+02
528             	3.30647550e+02
529             	3.30648419e+02
530             	3.30649182e+02
531             	3.30649819e+02
532             	3.30650319e+02
533             	3.30650680e+02
534             	3.30650894e+02
535             	3.30650972e+02
536             	3.30650913e+02
537             	3.30650719e+02
538             	3.30650397e+02
539             	3.30649982e+02
540             	3.30649486e+02
541             	3.30648939e+02
542             	3.30648376e+02
543             	3.30647871e+02
544             	3.30647395e+02
545             	3.30646972e+02
546             	3.30646621e+02
547             	3.30646344e+02
548             	3.30646128e+02
549             	3.30645831e+02
550             	3.30645569e+02
551             	3.30645293e+02
552             	3.30644958e+02
553             	3.30644543e+02
554             	3.30644092e+02
555             	3.30643545e+02
556             	3.30642919e+02
557             	3.30642260e+02
558             	3.30641678e+02
559             	3.30641094e+02
560             	3.30640663e+02
561             	3.30640277e+02
562             	3.30639956e+02
563             	3.30639791e+02
564             	3.30639784e+02
565             	3.30639921e+02
566             	3.30640186e+02
567             	3.30640528e+02
568             	3.30640938e+02
569             	3.30641381e+02
570             	3.30641905e+02
571             	3.30642480e+02
572             	3.30642996e+02
573             	3.30643518e+02
574             	3.30643981e+02
575             	3.30644371e+02
576             	3.30644702e+02
577             	3.30644977e+02
578             	3.30645174e+02
579             	3.30645287e+02
580             	3.30645362e+02
581             	3.30645392e+02
582             	3.30645408e+02
583             	3.30645378e+02
584             	3.30645371e+02
585             	3.30645450e+02
586             	3.30645719e+02
587             	3.30646045e+02
588             	3.30646566e+02
589             	3.30647193e+02
590             	3.30647874e+02
591             	3.30648567e+02
592             	3.30649224e+02
593             	3.30649862e+02
594             	3.30650456e+02
595             	3.30650858e+02
596             	3.30651280e+02
597             	3.30651660e+02
598             	3.30652037e+02
599             	3.30652454e+02
600             	3.30652846e+02
601             	3.30653183e+02
602             	3.30653438e+02
603             	3.30653730e+02
604             	3.30654190e+02
605             	3.30654712e+02
606             	3.30655260e+02
607             	3.30655887e+02
608             	3.30656577e+02
609             	3.30657295e+02
610             	3.30658009e+02
611             	3.30658691e+02
612             	3.30659370e+02
613             	3.30660047e+02
614             	3.30660716e+02
615             	3.30661475e+02
616             	3.30662165e+02
617             	3.30662748e+02
618             	3.30663290e+02
619             	3.30663734e+02
620             	3.30664044e+02
621             	3.30664201e+02
