# Region        : cellZone component_1
# Cells         : 56
# Volume        : 4.78967262e-02
# Time          	volAverage(T)
1               	3.01597677e+02
2               	3.03169367e+02
3               	3.04511252e+02
4               	3.05677645e+02
5               	3.06732209e+02
6               	3.07704761e+02
7               	3.08609410e+02
8               	3.09457586e+02
9               	3.10257530e+02
10              	3.11015323e+02
11              	3.11736658e+02
12              	3.12428010e+02
13              	3.13093976e+02
14              	3.13738097e+02
15              	3.14360561e+02
16              	3.14966673e+02
17              	3.15553549e+02
18              	3.16123000e+02
19              	3.16677622e+02
20              	3.17218614e+02
21              	3.17744182e+02
22              	3.18259875e+02
23              	3.18768420e+02
24              	3.19275842e+02
25              	3.19783710e+02
26              	3.20284185e+02
27              	3.20752343e+02
28              	3.21171438e+02
29              	3.21536982e+02
30              	3.21847426e+02
31              	3.22103067e+02
32              	3.22305537e+02
33              	3.22465259e+02
34              	3.22594689e+02
35              	3.22702149e+02
36              	3.22798972e+02
37              	3.22896403e+02
38              	3.23005168e+02
39              	3.23132453e+02
40              	3.23281043e+02
41              	3.23452514e+02
42              	3.23634358e+02
43              	3.23814165e+02
44              	3.23966103e+02
45              	3.24086434e+02
46              	3.24166599e+02
47              	3.24203149e+02
48              	3.24196706e+02
49              	3.24156940e+02
50              	3.24098132e+02
51              	3.24036476e+02
52              	3.23982931e+02
53              	3.23948052e+02
54              	3.23945003e+02
55              	3.23980691e+02
56              	3.24038378e+02
57              	3.24112840e+02
58              	3.24177769e+02
59              	3.24234879e+02
60              	3.24264160e+02
61              	3.24260418e+02
62              	3.24232618e+02
63              	3.24194053e+02
64              	3.24147053e+02
65              	3.24110522e+02
66              	3.24090082e+02
67              	3.24088797e+02
68              	3.24112266e+02
69              	3.24165690e+02
70              	3.24244541e+02
71              	3.24355676e+02
72              	3.24473292e+02
73              	3.24574702e+02
74              	3.24676137e+02
75              	3.24747092e+02
76              	3.24779278e+02
77              	3.24782028e+02
78              	3.24763286e+02
79              	3.24730168e+02
80              	3.24697585e+02
81              	3.24672399e+02
82              	3.24659371e+02
83              	3.24663153e+02
84              	3.24688950e+02
85              	3.24735313e+02
86              	3.24804730e+02
87              	3.24901855e+02
88              	3.25017943e+02
89              	3.25129544e+02
90              	3.25237000e+02
91              	3.25322336e+02
92              	3.25377004e+02
93              	3.25394014e+02
94              	3.25374841e+02
95              	3.25324167e+02
96              	3.25254352e+02
97              	3.25182239e+02
98              	3.25109274e+02
99              	3.25052116e+02
100             	3.25021686e+02
101             	3.25016520e+02
102             	3.25053731e+02
103             	3.25118171e+02
104             	3.25197363e+02
105             	3.25272365e+02
106             	3.25330974e+02
107             	3.25348663e+02
108             	3.25319927e+02
109             	3.25254050e+02
110             	3.25169376e+02
111             	3.25086416e+02
112             	3.25011760e+02
113             	3.24966568e+02
114             	3.24958269e+02
115             	3.24987845e+02
116             	3.25052369e+02
117             	3.25139611e+02
118             	3.25261239e+02
119             	3.25367335e+02
120             	3.25451836e+02
121             	3.25507395e+02
122             	3.25529185e+02
123             	3.25515939e+02
124             	3.25471835e+02
125             	3.25408060e+02
126             	3.25337760e+02
127             	3.25268406e+02
128             	3.25210071e+02
129             	3.25167471e+02
130             	3.25147404e+02
131             	3.25154474e+02
132             	3.25189036e+02
133             	3.25245682e+02
134             	3.25318628e+02
135             	3.25399971e+02
136             	3.25467154e+02
137             	3.25521771e+02
138             	3.25550726e+02
139             	3.25547840e+02
140             	3.25505895e+02
141             	3.25435806e+02
142             	3.25348344e+02
143             	3.25254184e+02
144             	3.25164868e+02
145             	3.25090712e+02
146             	3.25036331e+02
147             	3.25003331e+02
148             	3.25000565e+02
149             	3.25027375e+02
150             	3.25080533e+02
151             	3.25180050e+02
152             	3.25290339e+02
153             	3.25371931e+02
154             	3.25428133e+02
155             	3.25457941e+02
156             	3.25450827e+02
157             	3.25405157e+02
158             	3.25334544e+02
159             	3.25246981e+02
160             	3.25156135e+02
161             	3.25076108e+02
162             	3.25010760e+02
163             	3.24971232e+02
164             	3.24961839e+02
165             	3.24982778e+02
166             	3.25035649e+02
167             	3.25116471e+02
168             	3.25210280e+02
169             	3.25316108e+02
170             	3.25430368e+02
171             	3.25546777e+02
172             	3.25641006e+02
173             	3.25722526e+02
174             	3.25779518e+02
175             	3.25808321e+02
176             	3.25812716e+02
177             	3.25796857e+02
178             	3.25763742e+02
179             	3.25720140e+02
180             	3.25674152e+02
181             	3.25627195e+02
182             	3.25581707e+02
183             	3.25543560e+02
184             	3.25513203e+02
185             	3.25493591e+02
186             	3.25487370e+02
187             	3.25496721e+02
188             	3.25521922e+02
189             	3.25561348e+02
190             	3.25614580e+02
191             	3.25677821e+02
192             	3.25747900e+02
193             	3.25819962e+02
194             	3.25886695e+02
195             	3.25943866e+02
196             	3.25988914e+02
197             	3.26018949e+02
198             	3.26033464e+02
199             	3.26032537e+02
200             	3.26016734e+02
201             	3.25987267e+02
202             	3.25947652e+02
203             	3.25900512e+02
204             	3.25848470e+02
205             	3.25795227e+02
206             	3.25743964e+02
207             	3.25695626e+02
208             	3.25650061e+02
209             	3.25607622e+02
210             	3.25568439e+02
211             	3.25530707e+02
212             	3.25496898e+02
213             	3.25465324e+02
214             	3.25436953e+02
215             	3.25415015e+02
216             	3.25399642e+02
217             	3.25391462e+02
218             	3.25389982e+02
219             	3.25395303e+02
220             	3.25407682e+02
221             	3.25426646e+02
222             	3.25451777e+02
223             	3.25477868e+02
224             	3.25500079e+02
225             	3.25515334e+02
226             	3.25522565e+02
227             	3.25520990e+02
228             	3.25513551e+02
229             	3.25500054e+02
230             	3.25483266e+02
231             	3.25465740e+02
232             	3.25449546e+02
233             	3.25435710e+02
234             	3.25425258e+02
235             	3.25417051e+02
236             	3.25410532e+02
237             	3.25407575e+02
238             	3.25406184e+02
239             	3.25405285e+02
240             	3.25406071e+02
241             	3.25408810e+02
242             	3.25416501e+02
243             	3.25427891e+02
244             	3.25444307e+02
245             	3.25467488e+02
246             	3.25494805e+02
247             	3.25525343e+02
248             	3.25555634e+02
249             	3.25582269e+02
250             	3.25602751e+02
251             	3.25612665e+02
252             	3.25612071e+02
253             	3.25600184e+02
254             	3.25577910e+02
255             	3.25547624e+02
256             	3.25510995e+02
257             	3.25472810e+02
258             	3.25436269e+02
259             	3.25404869e+02
260             	3.25381715e+02
261             	3.25368820e+02
262             	3.25366912e+02
263             	3.25375835e+02
264             	3.25394164e+02
265             	3.25416730e+02
266             	3.25444188e+02
267             	3.25471302e+02
268             	3.25495812e+02
269             	3.25515482e+02
270             	3.25531413e+02
271             	3.25545281e+02
272             	3.25557549e+02
273             	3.25569703e+02
274             	3.25582532e+02
275             	3.25596903e+02
276             	3.25609067e+02
277             	3.25617305e+02
278             	3.25622080e+02
279             	3.25620502e+02
280             	3.25611980e+02
281             	3.25597946e+02
282             	3.25579954e+02
283             	3.25561202e+02
284             	3.25543924e+02
285             	3.25529368e+02
286             	3.25519891e+02
287             	3.25515407e+02
288             	3.25513530e+02
289             	3.25513375e+02
290             	3.25513032e+02
291             	3.25511525e+02
292             	3.25506571e+02
293             	3.25498761e+02
294             	3.25490158e+02
295             	3.25482535e+02
296             	3.25477572e+02
297             	3.25477161e+02
298             	3.25482217e+02
299             	3.25492556e+02
300             	3.25506308e+02
301             	3.25522318e+02
302             	3.25539063e+02
303             	3.25554339e+02
304             	3.25564951e+02
305             	3.25571428e+02
306             	3.25573608e+02
307             	3.25572046e+02
308             	3.25568295e+02
309             	3.25564078e+02
310             	3.25560033e+02
311             	3.25557105e+02
312             	3.25555290e+02
313             	3.25554615e+02
314             	3.25553649e+02
315             	3.25551623e+02
316             	3.25548246e+02
317             	3.25542544e+02
318             	3.25534140e+02
319             	3.25523719e+02
320             	3.25512293e+02
321             	3.25500985e+02
322             	3.25489977e+02
323             	3.25480256e+02
324             	3.25472463e+02
325             	3.25466438e+02
326             	3.25461768e+02
327             	3.25457965e+02
328             	3.25454426e+02
329             	3.25451079e+02
330             	3.25447397e+02
331             	3.25443318e+02
332             	3.25439148e+02
333             	3.25435279e+02
334             	3.25432029e+02
335             	3.25429708e+02
336             	3.25428842e+02
337             	3.25429718e+02
338             	3.25432499e+02
339             	3.25436728e+02
340             	3.25441054e+02
341             	3.25445899e+02
342             	3.25450186e+02
343             	3.25453194e+02
344             	3.25454597e+02
345             	3.25454378e+02
346             	3.25452637e+02
347             	3.25449917e+02
348             	3.25446857e+02
349             	3.25443492e+02
350             	3.25440508e+02
351             	3.25438202e+02
352             	3.25436572e+02
353             	3.25435318e+02
354             	3.25433908e+02
355             	3.25432450e+02
356             	3.25430580e+02
357             	3.25428450e+02
358             	3.25425818e+02
359             	3.25423662e+02
360             	3.25421933e+02
361             	3.25421000e+02
362             	3.25421290e+02
363             	3.25422736e+02
364             	3.25425209e+02
365             	3.25428473e+02
366             	3.25432136e+02
367             	3.25436008e+02
368             	3.25439964e+02
369             	3.25443813e+02
370             	3.25446899e+02
371             	3.25449068e+02
372             	3.25450318e+02
373             	3.25450368e+02
374             	3.25449007e+02
375             	3.25446287e+02
376             	3.25442593e+02
377             	3.25438917e+02
378             	3.25435177e+02
379             	3.25432057e+02
380             	3.25430189e+02
381             	3.25429799e+02
382             	3.25430941e+02
383             	3.25433549e+02
384             	3.25437481e+02
385             	3.25442511e+02
386             	3.25448510e+02
387             	3.25454141e+02
388             	3.25459252e+02
389             	3.25463474e+02
390             	3.25465951e+02
391             	3.25466253e+02
392             	3.25464095e+02
393             	3.25460582e+02
394             	3.25455771e+02
395             	3.25450306e+02
396             	3.25445096e+02
397             	3.25440905e+02
398             	3.25438339e+02
399             	3.25437744e+02
400             	3.25439558e+02
401             	3.25443705e+02
402             	3.25449895e+02
403             	3.25457094e+02
404             	3.25464555e+02
405             	3.25471568e+02
406             	3.25477177e+02
407             	3.25480656e+02
408             	3.25481712e+02
409             	3.25480139e+02
410             	3.25476026e+02
411             	3.25469854e+02
412             	3.25463352e+02
413             	3.25457656e+02
414             	3.25452954e+02
415             	3.25450792e+02
416             	3.25452340e+02
417             	3.25457774e+02
418             	3.25466043e+02
419             	3.25475932e+02
420             	3.25485131e+02
421             	3.25492694e+02
422             	3.25496969e+02
423             	3.25496078e+02
424             	3.25490486e+02
425             	3.25481977e+02
426             	3.25472779e+02
427             	3.25463313e+02
428             	3.25455899e+02
429             	3.25452879e+02
430             	3.25455292e+02
431             	3.25461428e+02
432             	3.25468997e+02
433             	3.25476155e+02
434             	3.25481136e+02
435             	3.25481187e+02
436             	3.25475219e+02
437             	3.25465535e+02
438             	3.25453409e+02
439             	3.25441423e+02
440             	3.25431220e+02
441             	3.25425872e+02
442             	3.25428006e+02
443             	3.25436792e+02
444             	3.25450934e+02
445             	3.25466709e+02
446             	3.25480811e+02
447             	3.25490998e+02
448             	3.25493239e+02
449             	3.25487669e+02
450             	3.25476815e+02
451             	3.25461952e+02
452             	3.25446369e+02
453             	3.25432404e+02
454             	3.25423486e+02
455             	3.25422037e+02
456             	3.25427423e+02
457             	3.25435294e+02
458             	3.25444867e+02
459             	3.25454605e+02
460             	3.25460014e+02
461             	3.25460337e+02
462             	3.25456240e+02
463             	3.25449707e+02
464             	3.25441147e+02
465             	3.25432731e+02
466             	3.25426827e+02
467             	3.25424787e+02
468             	3.25426446e+02
469             	3.25431409e+02
470             	3.25439087e+02
471             	3.25447173e+02
472             	3.25454691e+02
473             	3.25460686e+02
474             	3.25464182e+02
475             	3.25464713e+02
476             	3.25461959e+02
477             	3.25457162e+02
478             	3.25450954e+02
479             	3.25443814e+02
480             	3.25437098e+02
481             	3.25431691e+02
482             	3.25428136e+02
483             	3.25427081e+02
484             	3.25428557e+02
485             	3.25432361e+02
486             	3.25438034e+02
487             	3.25445261e+02
488             	3.25453592e+02
489             	3.25462118e+02
490             	3.25469986e+02
491             	3.25476298e+02
492             	3.25480692e+02
493             	3.25482695e+02
494             	3.25481927e+02
495             	3.25478777e+02
496             	3.25473658e+02
497             	3.25466938e+02
498             	3.25460162e+02
499             	3.25453510e+02
500             	3.25447326e+02
501             	3.25442479e+02
502             	3.25439535e+02
503             	3.25438185e+02
504             	3.25438621e+02
505             	3.25440860e+02
506             	3.25444740e+02
507             	3.25449942e+02
508             	3.25456188e+02
509             	3.25463249e+02
510             	3.25470885e+02
511             	3.25478085e+02
512             	3.25485058e+02
513             	3.25491172e+02
514             	3.25496051e+02
515             	3.25499564e+02
516             	3.25501424e+02
517             	3.25501685e+02
518             	3.25500134e+02
519             	3.25496625e+02
520             	3.25491090e+02
521             	3.25483589e+02
522             	3.25474664e+02
523             	3.25465117e+02
524             	3.25455836e+02
525             	3.25447252e+02
526             	3.25439843e+02
527             	3.25435007e+02
528             	3.25432509e+02
529             	3.25432121e+02
530             	3.25433992e+02
531             	3.25437939e+02
532             	3.25443880e+02
533             	3.25449781e+02
534             	3.25454482e+02
535             	3.25457823e+02
536             	3.25458589e+02
537             	3.25456317e+02
538             	3.25451224e+02
539             	3.25444163e+02
540             	3.25436165e+02
541             	3.25428499e+02
542             	3.25421789e+02
543             	3.25417025e+02
544             	3.25414854e+02
545             	3.25415546e+02
546             	3.25418988e+02
547             	3.25425048e+02
548             	3.25433262e+02
549             	3.25442412e+02
550             	3.25451258e+02
551             	3.25458408e+02
552             	3.25463159e+02
553             	3.25464298e+02
554             	3.25461573e+02
555             	3.25455672e+02
556             	3.25447661e+02
557             	3.25439286e+02
558             	3.25431272e+02
559             	3.25424941e+02
560             	3.25421568e+02
561             	3.25421971e+02
562             	3.25426048e+02
563             	3.25433254e+02
564             	3.25441896e+02
565             	3.25451865e+02
566             	3.25461608e+02
567             	3.25469558e+02
568             	3.25474925e+02
569             	3.25476992e+02
570             	3.25475718e+02
571             	3.25470965e+02
572             	3.25464743e+02
573             	3.25457203e+02
574             	3.25449584e+02
575             	3.25443343e+02
576             	3.25438980e+02
577             	3.25437267e+02
578             	3.25438273e+02
579             	3.25441992e+02
580             	3.25448627e+02
581             	3.25457582e+02
582             	3.25466064e+02
583             	3.25474520e+02
584             	3.25481919e+02
585             	3.25486379e+02
586             	3.25487123e+02
587             	3.25483049e+02
588             	3.25474957e+02
589             	3.25466104e+02
590             	3.25455554e+02
591             	3.25444832e+02
592             	3.25436264e+02
593             	3.25430889e+02
594             	3.25429091e+02
595             	3.25431192e+02
596             	3.25437138e+02
597             	3.25446318e+02
598             	3.25454745e+02
599             	3.25462956e+02
600             	3.25469422e+02
601             	3.25471738e+02
602             	3.25470123e+02
603             	3.25464762e+02
604             	3.25456421e+02
605             	3.25446158e+02
606             	3.25436051e+02
607             	3.25426464e+02
608             	3.25418537e+02
609             	3.25413260e+02
610             	3.25410833e+02
611             	3.25411380e+02
612             	3.25414708e+02
613             	3.25420494e+02
614             	3.25428615e+02
615             	3.25436720e+02
616             	3.25445187e+02
617             	3.25453108e+02
618             	3.25459309e+02
619             	3.25463437e+02
620             	3.25465213e+02
621             	3.25464676e+02
