# Region        : cellZone component_4
# Cells         : 295
# Volume        : 5.94773832e-01
# Time          	volAverage(T)
1               	3.00142395e+02
2               	3.00283529e+02
3               	3.00416531e+02
4               	3.00543283e+02
5               	3.00666490e+02
6               	3.00786744e+02
7               	3.00904559e+02
8               	3.01020059e+02
9               	3.01132610e+02
10              	3.01244119e+02
11              	3.01354011e+02
12              	3.01462406e+02
13              	3.01569332e+02
14              	3.01674486e+02
15              	3.01778028e+02
16              	3.01880134e+02
17              	3.01981784e+02
18              	3.02082852e+02
19              	3.02183609e+02
20              	3.02283626e+02
21              	3.02382597e+02
22              	3.02480273e+02
23              	3.02577663e+02
24              	3.02673493e+02
25              	3.02766228e+02
26              	3.02856779e+02
27              	3.02944632e+02
28              	3.03035148e+02
29              	3.03121664e+02
30              	3.03203656e+02
31              	3.03286011e+02
32              	3.03364757e+02
33              	3.03446134e+02
34              	3.03520479e+02
35              	3.03596118e+02
36              	3.03666995e+02
37              	3.03736601e+02
38              	3.03804019e+02
39              	3.03870383e+02
40              	3.03936142e+02
41              	3.04005764e+02
42              	3.04069956e+02
43              	3.04132740e+02
44              	3.04194221e+02
45              	3.04255244e+02
46              	3.04314475e+02
47              	3.04372798e+02
48              	3.04430225e+02
49              	3.04487288e+02
50              	3.04547000e+02
51              	3.04603654e+02
52              	3.04657830e+02
53              	3.04715181e+02
54              	3.04771902e+02
55              	3.04827070e+02
56              	3.04881144e+02
57              	3.04932424e+02
58              	3.04982814e+02
59              	3.05032078e+02
60              	3.05078854e+02
61              	3.05122754e+02
62              	3.05165053e+02
63              	3.05205475e+02
64              	3.05245166e+02
65              	3.05284834e+02
66              	3.05325279e+02
67              	3.05366326e+02
68              	3.05407823e+02
69              	3.05450781e+02
70              	3.05494117e+02
71              	3.05534755e+02
72              	3.05578175e+02
73              	3.05620354e+02
74              	3.05661055e+02
75              	3.05700755e+02
76              	3.05738417e+02
77              	3.05773474e+02
78              	3.05804835e+02
79              	3.05835140e+02
80              	3.05864507e+02
81              	3.05893173e+02
82              	3.05924174e+02
83              	3.05956271e+02
84              	3.05986845e+02
85              	3.06015278e+02
86              	3.06044962e+02
87              	3.06073420e+02
88              	3.06102015e+02
89              	3.06128336e+02
90              	3.06152025e+02
91              	3.06173674e+02
92              	3.06193370e+02
93              	3.06213760e+02
94              	3.06233976e+02
95              	3.06254057e+02
96              	3.06274397e+02
97              	3.06295847e+02
98              	3.06319372e+02
99              	3.06339755e+02
100             	3.06357730e+02
101             	3.06373654e+02
102             	3.06388933e+02
103             	3.06404357e+02
104             	3.06419829e+02
105             	3.06435193e+02
106             	3.06449881e+02
107             	3.06463632e+02
108             	3.06475737e+02
109             	3.06488663e+02
110             	3.06502456e+02
111             	3.06517388e+02
112             	3.06533189e+02
113             	3.06549978e+02
114             	3.06568425e+02
115             	3.06588168e+02
116             	3.06608606e+02
117             	3.06629908e+02
118             	3.06650969e+02
119             	3.06670778e+02
120             	3.06692450e+02
121             	3.06712393e+02
122             	3.06733435e+02
123             	3.06754108e+02
124             	3.06773488e+02
125             	3.06791115e+02
126             	3.06807837e+02
127             	3.06823874e+02
128             	3.06839537e+02
129             	3.06855137e+02
130             	3.06870490e+02
131             	3.06886123e+02
132             	3.06902582e+02
133             	3.06919962e+02
134             	3.06938240e+02
135             	3.06956389e+02
136             	3.06973377e+02
137             	3.06991740e+02
138             	3.07006277e+02
139             	3.07020813e+02
140             	3.07035128e+02
141             	3.07049046e+02
142             	3.07062472e+02
143             	3.07075547e+02
144             	3.07088533e+02
145             	3.07101569e+02
146             	3.07114659e+02
147             	3.07127836e+02
148             	3.07140962e+02
149             	3.07154119e+02
150             	3.07167237e+02
151             	3.07180257e+02
152             	3.07193102e+02
153             	3.07205884e+02
154             	3.07218043e+02
155             	3.07229834e+02
156             	3.07241579e+02
157             	3.07253424e+02
158             	3.07265620e+02
159             	3.07277644e+02
160             	3.07288975e+02
161             	3.07299723e+02
162             	3.07309951e+02
163             	3.07319716e+02
164             	3.07328829e+02
165             	3.07337661e+02
166             	3.07346228e+02
167             	3.07354847e+02
168             	3.07363388e+02
169             	3.07371873e+02
170             	3.07380267e+02
171             	3.07388635e+02
172             	3.07396648e+02
173             	3.07404967e+02
174             	3.07413388e+02
175             	3.07421746e+02
176             	3.07430163e+02
177             	3.07438718e+02
178             	3.07447399e+02
179             	3.07456123e+02
180             	3.07464850e+02
181             	3.07473355e+02
182             	3.07481695e+02
183             	3.07489729e+02
184             	3.07497585e+02
185             	3.07505175e+02
186             	3.07512503e+02
187             	3.07519518e+02
188             	3.07526243e+02
189             	3.07532750e+02
190             	3.07539140e+02
191             	3.07545473e+02
192             	3.07551833e+02
193             	3.07557896e+02
194             	3.07563899e+02
195             	3.07570063e+02
196             	3.07576176e+02
197             	3.07582249e+02
198             	3.07588119e+02
199             	3.07594181e+02
200             	3.07600245e+02
201             	3.07606302e+02
202             	3.07612231e+02
203             	3.07617994e+02
204             	3.07623584e+02
205             	3.07628988e+02
206             	3.07634253e+02
207             	3.07639402e+02
208             	3.07644281e+02
209             	3.07649043e+02
210             	3.07653639e+02
211             	3.07658106e+02
212             	3.07662607e+02
213             	3.07666813e+02
214             	3.07670948e+02
215             	3.07674957e+02
216             	3.07678801e+02
217             	3.07682574e+02
218             	3.07686231e+02
219             	3.07689861e+02
220             	3.07693411e+02
221             	3.07697044e+02
222             	3.07700600e+02
223             	3.07704050e+02
224             	3.07707313e+02
225             	3.07710556e+02
226             	3.07713903e+02
227             	3.07717221e+02
228             	3.07720551e+02
229             	3.07723712e+02
230             	3.07726851e+02
231             	3.07730101e+02
232             	3.07733267e+02
233             	3.07736318e+02
234             	3.07739422e+02
235             	3.07742707e+02
236             	3.07746166e+02
237             	3.07749798e+02
238             	3.07753342e+02
239             	3.07756840e+02
240             	3.07760380e+02
241             	3.07763882e+02
242             	3.07767004e+02
243             	3.07769824e+02
244             	3.07772289e+02
245             	3.07774622e+02
246             	3.07776802e+02
247             	3.07778981e+02
248             	3.07781085e+02
249             	3.07783166e+02
250             	3.07785242e+02
251             	3.07787579e+02
252             	3.07789640e+02
253             	3.07791802e+02
254             	3.07794327e+02
255             	3.07797005e+02
256             	3.07799523e+02
257             	3.07801802e+02
258             	3.07803974e+02
259             	3.07805952e+02
260             	3.07807795e+02
261             	3.07809607e+02
262             	3.07811343e+02
263             	3.07813016e+02
264             	3.07814672e+02
265             	3.07816182e+02
266             	3.07817620e+02
267             	3.07819028e+02
268             	3.07820453e+02
269             	3.07821926e+02
270             	3.07823395e+02
271             	3.07824956e+02
272             	3.07826472e+02
273             	3.07828065e+02
274             	3.07829704e+02
275             	3.07831280e+02
276             	3.07832834e+02
277             	3.07834329e+02
278             	3.07835773e+02
279             	3.07837155e+02
280             	3.07838506e+02
281             	3.07839880e+02
282             	3.07841230e+02
283             	3.07842504e+02
284             	3.07843753e+02
285             	3.07844936e+02
286             	3.07846069e+02
287             	3.07847138e+02
288             	3.07848106e+02
289             	3.07848898e+02
290             	3.07849574e+02
291             	3.07850172e+02
292             	3.07850766e+02
293             	3.07851425e+02
294             	3.07852190e+02
295             	3.07852996e+02
296             	3.07853815e+02
297             	3.07854680e+02
298             	3.07855670e+02
299             	3.07856678e+02
300             	3.07857753e+02
301             	3.07858893e+02
302             	3.07860008e+02
303             	3.07861094e+02
304             	3.07862162e+02
305             	3.07863192e+02
306             	3.07864242e+02
307             	3.07865219e+02
308             	3.07866159e+02
309             	3.07867039e+02
310             	3.07867878e+02
311             	3.07868748e+02
312             	3.07869662e+02
313             	3.07870588e+02
314             	3.07871526e+02
315             	3.07872435e+02
316             	3.07873329e+02
317             	3.07874184e+02
318             	3.07875021e+02
319             	3.07875799e+02
320             	3.07876533e+02
321             	3.07877169e+02
322             	3.07877741e+02
323             	3.07878286e+02
324             	3.07878809e+02
325             	3.07879375e+02
326             	3.07879974e+02
327             	3.07880598e+02
328             	3.07881223e+02
329             	3.07881822e+02
330             	3.07882407e+02
331             	3.07882995e+02
332             	3.07883552e+02
333             	3.07884058e+02
334             	3.07884626e+02
335             	3.07885187e+02
336             	3.07885758e+02
337             	3.07886330e+02
338             	3.07886899e+02
339             	3.07887447e+02
340             	3.07888008e+02
341             	3.07888599e+02
342             	3.07889200e+02
343             	3.07889856e+02
344             	3.07890535e+02
345             	3.07891153e+02
346             	3.07891738e+02
347             	3.07892262e+02
348             	3.07892686e+02
349             	3.07893113e+02
350             	3.07893520e+02
351             	3.07893901e+02
352             	3.07894278e+02
353             	3.07894627e+02
354             	3.07894954e+02
355             	3.07895267e+02
356             	3.07895582e+02
357             	3.07895890e+02
358             	3.07896182e+02
359             	3.07896473e+02
360             	3.07896768e+02
361             	3.07897059e+02
362             	3.07897354e+02
363             	3.07897662e+02
364             	3.07897985e+02
365             	3.07898325e+02
366             	3.07898644e+02
367             	3.07898994e+02
368             	3.07899306e+02
369             	3.07899608e+02
370             	3.07899901e+02
371             	3.07900219e+02
372             	3.07900542e+02
373             	3.07900885e+02
374             	3.07901254e+02
375             	3.07901621e+02
376             	3.07902020e+02
377             	3.07902423e+02
378             	3.07902837e+02
379             	3.07903278e+02
380             	3.07903731e+02
381             	3.07904184e+02
382             	3.07904628e+02
383             	3.07905037e+02
384             	3.07905387e+02
385             	3.07905695e+02
386             	3.07905965e+02
387             	3.07906192e+02
388             	3.07906413e+02
389             	3.07906620e+02
390             	3.07906829e+02
391             	3.07907039e+02
392             	3.07907255e+02
393             	3.07907468e+02
394             	3.07907688e+02
395             	3.07907899e+02
396             	3.07908129e+02
397             	3.07908361e+02
398             	3.07908612e+02
399             	3.07908844e+02
400             	3.07909047e+02
401             	3.07909237e+02
402             	3.07909419e+02
403             	3.07909600e+02
404             	3.07909788e+02
405             	3.07909987e+02
406             	3.07910251e+02
407             	3.07910526e+02
408             	3.07910815e+02
409             	3.07911104e+02
410             	3.07911345e+02
411             	3.07911539e+02
412             	3.07911713e+02
413             	3.07911840e+02
414             	3.07912005e+02
415             	3.07912174e+02
416             	3.07912344e+02
417             	3.07912528e+02
418             	3.07912749e+02
419             	3.07912975e+02
420             	3.07913142e+02
421             	3.07913325e+02
422             	3.07913503e+02
423             	3.07913663e+02
424             	3.07913811e+02
425             	3.07913949e+02
426             	3.07914076e+02
427             	3.07914165e+02
428             	3.07914224e+02
429             	3.07914301e+02
430             	3.07914377e+02
431             	3.07914472e+02
432             	3.07914579e+02
433             	3.07914694e+02
434             	3.07914807e+02
435             	3.07914914e+02
436             	3.07915024e+02
437             	3.07915133e+02
438             	3.07915243e+02
439             	3.07915340e+02
440             	3.07915448e+02
441             	3.07915557e+02
442             	3.07915670e+02
443             	3.07915810e+02
444             	3.07915944e+02
445             	3.07916075e+02
446             	3.07916195e+02
447             	3.07916307e+02
448             	3.07916414e+02
449             	3.07916512e+02
450             	3.07916601e+02
451             	3.07916677e+02
452             	3.07916760e+02
453             	3.07916836e+02
454             	3.07916909e+02
455             	3.07916984e+02
456             	3.07917056e+02
457             	3.07917124e+02
458             	3.07917191e+02
459             	3.07917255e+02
460             	3.07917316e+02
461             	3.07917372e+02
462             	3.07917425e+02
463             	3.07917476e+02
464             	3.07917534e+02
465             	3.07917582e+02
466             	3.07917644e+02
467             	3.07917695e+02
468             	3.07917738e+02
469             	3.07917774e+02
470             	3.07917797e+02
471             	3.07917803e+02
472             	3.07917780e+02
473             	3.07917756e+02
474             	3.07917728e+02
475             	3.07917696e+02
476             	3.07917660e+02
477             	3.07917620e+02
478             	3.07917567e+02
479             	3.07917515e+02
480             	3.07917448e+02
481             	3.07917355e+02
482             	3.07917247e+02
483             	3.07917132e+02
484             	3.07917022e+02
485             	3.07916918e+02
486             	3.07916831e+02
487             	3.07916769e+02
488             	3.07916745e+02
489             	3.07916749e+02
490             	3.07916777e+02
491             	3.07916824e+02
492             	3.07916893e+02
493             	3.07916957e+02
494             	3.07917014e+02
495             	3.07917060e+02
496             	3.07917091e+02
497             	3.07917103e+02
498             	3.07917098e+02
499             	3.07917072e+02
500             	3.07917039e+02
501             	3.07917000e+02
502             	3.07916959e+02
503             	3.07916918e+02
504             	3.07916878e+02
505             	3.07916838e+02
506             	3.07916794e+02
507             	3.07916742e+02
508             	3.07916669e+02
509             	3.07916581e+02
510             	3.07916488e+02
511             	3.07916386e+02
512             	3.07916288e+02
513             	3.07916190e+02
514             	3.07916101e+02
515             	3.07916022e+02
516             	3.07915948e+02
517             	3.07915888e+02
518             	3.07915838e+02
519             	3.07915794e+02
520             	3.07915752e+02
521             	3.07915713e+02
522             	3.07915674e+02
523             	3.07915654e+02
524             	3.07915638e+02
525             	3.07915628e+02
526             	3.07915630e+02
527             	3.07915635e+02
528             	3.07915641e+02
529             	3.07915649e+02
530             	3.07915654e+02
531             	3.07915639e+02
532             	3.07915631e+02
533             	3.07915625e+02
534             	3.07915622e+02
535             	3.07915616e+02
536             	3.07915608e+02
537             	3.07915589e+02
538             	3.07915559e+02
539             	3.07915516e+02
540             	3.07915464e+02
541             	3.07915413e+02
542             	3.07915365e+02
543             	3.07915320e+02
544             	3.07915279e+02
545             	3.07915239e+02
546             	3.07915202e+02
547             	3.07915166e+02
548             	3.07915131e+02
549             	3.07915096e+02
550             	3.07915059e+02
551             	3.07915022e+02
552             	3.07914988e+02
553             	3.07914958e+02
554             	3.07914930e+02
555             	3.07914906e+02
556             	3.07914891e+02
557             	3.07914883e+02
558             	3.07914880e+02
559             	3.07914882e+02
560             	3.07914885e+02
561             	3.07914892e+02
562             	3.07914898e+02
563             	3.07914907e+02
564             	3.07914910e+02
565             	3.07914907e+02
566             	3.07914900e+02
567             	3.07914888e+02
568             	3.07914871e+02
569             	3.07914847e+02
570             	3.07914819e+02
571             	3.07914790e+02
572             	3.07914761e+02
573             	3.07914733e+02
574             	3.07914703e+02
575             	3.07914676e+02
576             	3.07914649e+02
577             	3.07914621e+02
578             	3.07914594e+02
579             	3.07914571e+02
580             	3.07914552e+02
581             	3.07914540e+02
582             	3.07914541e+02
583             	3.07914552e+02
584             	3.07914572e+02
585             	3.07914601e+02
586             	3.07914635e+02
587             	3.07914673e+02
588             	3.07914712e+02
589             	3.07914749e+02
590             	3.07914782e+02
591             	3.07914811e+02
592             	3.07914836e+02
593             	3.07914855e+02
594             	3.07914870e+02
595             	3.07914876e+02
596             	3.07914881e+02
597             	3.07914885e+02
598             	3.07914888e+02
599             	3.07914889e+02
600             	3.07914894e+02
601             	3.07914900e+02
602             	3.07914906e+02
603             	3.07914913e+02
604             	3.07914922e+02
605             	3.07914925e+02
606             	3.07914928e+02
607             	3.07914929e+02
608             	3.07914929e+02
609             	3.07914928e+02
610             	3.07914927e+02
611             	3.07914923e+02
612             	3.07914915e+02
613             	3.07914903e+02
614             	3.07914886e+02
615             	3.07914865e+02
616             	3.07914842e+02
617             	3.07914821e+02
618             	3.07914800e+02
619             	3.07914781e+02
620             	3.07914763e+02
621             	3.07914748e+02
