# Region        : cellZone component_3
# Cells         : 85
# Volume        : 1.33982570e-01
# Time          	volAverage(T)
1               	3.00526176e+02
2               	3.01044918e+02
3               	3.01534353e+02
4               	3.02008262e+02
5               	3.02474434e+02
6               	3.02935660e+02
7               	3.03393168e+02
8               	3.03848303e+02
9               	3.04302677e+02
10              	3.04755320e+02
11              	3.05205538e+02
12              	3.05652695e+02
13              	3.06096491e+02
14              	3.06538762e+02
15              	3.06975871e+02
16              	3.07406477e+02
17              	3.07832354e+02
18              	3.08252964e+02
19              	3.08670801e+02
20              	3.09085013e+02
21              	3.09496725e+02
22              	3.09906594e+02
23              	3.10316324e+02
24              	3.10724313e+02
25              	3.11131293e+02
26              	3.11533290e+02
27              	3.11935314e+02
28              	3.12333909e+02
29              	3.12728184e+02
30              	3.13117090e+02
31              	3.13500272e+02
32              	3.13876955e+02
33              	3.14245994e+02
34              	3.14612627e+02
35              	3.14973537e+02
36              	3.15331458e+02
37              	3.15687491e+02
38              	3.16042766e+02
39              	3.16399408e+02
40              	3.16756607e+02
41              	3.17109673e+02
42              	3.17459203e+02
43              	3.17806631e+02
44              	3.18149120e+02
45              	3.18485165e+02
46              	3.18818811e+02
47              	3.19148378e+02
48              	3.19475048e+02
49              	3.19796889e+02
50              	3.20122214e+02
51              	3.20445216e+02
52              	3.20770859e+02
53              	3.21095626e+02
54              	3.21416937e+02
55              	3.21734066e+02
56              	3.22047765e+02
57              	3.22357706e+02
58              	3.22665703e+02
59              	3.22969800e+02
60              	3.23272438e+02
61              	3.23574035e+02
62              	3.23870824e+02
63              	3.24168977e+02
64              	3.24464649e+02
65              	3.24756044e+02
66              	3.25044856e+02
67              	3.25323496e+02
68              	3.25605854e+02
69              	3.25886046e+02
70              	3.26167532e+02
71              	3.26447267e+02
72              	3.26727881e+02
73              	3.27000642e+02
74              	3.27277216e+02
75              	3.27550360e+02
76              	3.27820566e+02
77              	3.28089139e+02
78              	3.28350482e+02
79              	3.28605086e+02
80              	3.28856864e+02
81              	3.29107328e+02
82              	3.29357244e+02
83              	3.29605080e+02
84              	3.29849674e+02
85              	3.30093560e+02
86              	3.30334403e+02
87              	3.30573486e+02
88              	3.30810575e+02
89              	3.31045433e+02
90              	3.31277515e+02
91              	3.31506593e+02
92              	3.31733001e+02
93              	3.31956654e+02
94              	3.32179311e+02
95              	3.32399694e+02
96              	3.32616955e+02
97              	3.32831042e+02
98              	3.33042220e+02
99              	3.33253045e+02
100             	3.33462753e+02
101             	3.33670669e+02
102             	3.33875830e+02
103             	3.34079196e+02
104             	3.34280982e+02
105             	3.34478673e+02
106             	3.34675419e+02
107             	3.34870297e+02
108             	3.35063059e+02
109             	3.35253902e+02
110             	3.35442692e+02
111             	3.35629695e+02
112             	3.35814700e+02
113             	3.35997528e+02
114             	3.36178182e+02
115             	3.36357896e+02
116             	3.36535770e+02
117             	3.36712473e+02
118             	3.36886841e+02
119             	3.37060566e+02
120             	3.37232957e+02
121             	3.37403188e+02
122             	3.37571679e+02
123             	3.37738430e+02
124             	3.37904923e+02
125             	3.38068132e+02
126             	3.38226773e+02
127             	3.38385764e+02
128             	3.38543127e+02
129             	3.38698757e+02
130             	3.38851879e+02
131             	3.39003153e+02
132             	3.39152347e+02
133             	3.39299428e+02
134             	3.39443744e+02
135             	3.39587932e+02
136             	3.39730314e+02
137             	3.39871474e+02
138             	3.40011938e+02
139             	3.40151614e+02
140             	3.40288696e+02
141             	3.40424898e+02
142             	3.40559451e+02
143             	3.40692703e+02
144             	3.40824389e+02
145             	3.40954260e+02
146             	3.41082328e+02
147             	3.41209077e+02
148             	3.41334108e+02
149             	3.41457505e+02
150             	3.41579289e+02
151             	3.41699540e+02
152             	3.41817386e+02
153             	3.41934039e+02
154             	3.42048450e+02
155             	3.42163443e+02
156             	3.42277040e+02
157             	3.42389105e+02
158             	3.42499251e+02
159             	3.42609316e+02
160             	3.42717740e+02
161             	3.42825076e+02
162             	3.42931554e+02
163             	3.43037407e+02
164             	3.43142752e+02
165             	3.43244222e+02
166             	3.43345166e+02
167             	3.43445871e+02
168             	3.43545010e+02
169             	3.43642821e+02
170             	3.43739073e+02
171             	3.43833672e+02
172             	3.43925420e+02
173             	3.44016591e+02
174             	3.44105566e+02
175             	3.44193449e+02
176             	3.44281003e+02
177             	3.44367850e+02
178             	3.44454743e+02
179             	3.44539197e+02
180             	3.44622678e+02
181             	3.44705530e+02
182             	3.44787545e+02
183             	3.44868912e+02
184             	3.44948785e+02
185             	3.45027654e+02
186             	3.45106147e+02
187             	3.45183055e+02
188             	3.45258788e+02
189             	3.45333683e+02
190             	3.45407360e+02
191             	3.45480820e+02
192             	3.45552170e+02
193             	3.45623372e+02
194             	3.45694156e+02
195             	3.45764235e+02
196             	3.45833344e+02
197             	3.45901467e+02
198             	3.45968702e+02
199             	3.46035126e+02
200             	3.46100254e+02
201             	3.46164202e+02
202             	3.46227129e+02
203             	3.46289367e+02
204             	3.46351270e+02
205             	3.46411796e+02
206             	3.46471647e+02
207             	3.46531007e+02
208             	3.46589462e+02
209             	3.46647171e+02
210             	3.46703815e+02
211             	3.46759376e+02
212             	3.46814099e+02
213             	3.46867818e+02
214             	3.46921058e+02
215             	3.46973754e+02
216             	3.47025921e+02
217             	3.47077559e+02
218             	3.47128448e+02
219             	3.47179112e+02
220             	3.47229320e+02
221             	3.47278788e+02
222             	3.47327664e+02
223             	3.47375848e+02
224             	3.47423492e+02
225             	3.47470432e+02
226             	3.47516617e+02
227             	3.47561952e+02
228             	3.47606544e+02
229             	3.47650561e+02
230             	3.47693966e+02
231             	3.47736672e+02
232             	3.47778937e+02
233             	3.47820802e+02
234             	3.47862214e+02
235             	3.47902969e+02
236             	3.47943047e+02
237             	3.47982433e+02
238             	3.48021185e+02
239             	3.48059207e+02
240             	3.48096493e+02
241             	3.48133936e+02
242             	3.48171201e+02
243             	3.48207198e+02
244             	3.48242801e+02
245             	3.48277870e+02
246             	3.48312494e+02
247             	3.48346493e+02
248             	3.48379963e+02
249             	3.48412922e+02
250             	3.48445646e+02
251             	3.48477687e+02
252             	3.48509254e+02
253             	3.48540481e+02
254             	3.48571447e+02
255             	3.48601760e+02
256             	3.48631658e+02
257             	3.48661138e+02
258             	3.48690235e+02
259             	3.48718657e+02
260             	3.48747012e+02
261             	3.48774838e+02
262             	3.48802267e+02
263             	3.48829154e+02
264             	3.48855606e+02
265             	3.48881550e+02
266             	3.48907282e+02
267             	3.48932603e+02
268             	3.48957402e+02
269             	3.48981664e+02
270             	3.49005553e+02
271             	3.49029075e+02
272             	3.49052327e+02
273             	3.49075235e+02
274             	3.49097885e+02
275             	3.49120113e+02
276             	3.49141910e+02
277             	3.49163365e+02
278             	3.49184565e+02
279             	3.49205325e+02
280             	3.49225738e+02
281             	3.49245749e+02
282             	3.49265404e+02
283             	3.49284635e+02
284             	3.49303600e+02
285             	3.49322213e+02
286             	3.49340642e+02
287             	3.49358753e+02
288             	3.49376665e+02
289             	3.49394256e+02
290             	3.49411621e+02
291             	3.49428639e+02
292             	3.49445395e+02
293             	3.49461818e+02
294             	3.49477983e+02
295             	3.49493840e+02
296             	3.49509474e+02
297             	3.49524854e+02
298             	3.49540065e+02
299             	3.49555066e+02
300             	3.49569915e+02
301             	3.49584458e+02
302             	3.49598713e+02
303             	3.49612812e+02
304             	3.49626722e+02
305             	3.49640363e+02
306             	3.49653803e+02
307             	3.49666981e+02
308             	3.49679967e+02
309             	3.49692692e+02
310             	3.49705218e+02
311             	3.49717495e+02
312             	3.49729655e+02
313             	3.49741572e+02
314             	3.49753308e+02
315             	3.49764845e+02
316             	3.49776199e+02
317             	3.49787355e+02
318             	3.49798322e+02
319             	3.49809077e+02
320             	3.49819635e+02
321             	3.49829983e+02
322             	3.49840121e+02
323             	3.49850037e+02
324             	3.49859741e+02
325             	3.49869256e+02
326             	3.49878602e+02
327             	3.49887756e+02
328             	3.49896735e+02
329             	3.49905546e+02
330             	3.49914188e+02
331             	3.49922669e+02
332             	3.49930977e+02
333             	3.49939130e+02
334             	3.49947134e+02
335             	3.49954981e+02
336             	3.49962667e+02
337             	3.49970228e+02
338             	3.49977647e+02
339             	3.49985076e+02
340             	3.49992282e+02
341             	3.49999376e+02
342             	3.50006349e+02
343             	3.50013225e+02
344             	3.50019964e+02
345             	3.50026581e+02
346             	3.50033017e+02
347             	3.50039306e+02
348             	3.50045455e+02
349             	3.50051434e+02
350             	3.50057259e+02
351             	3.50062946e+02
352             	3.50068464e+02
353             	3.50073874e+02
354             	3.50079148e+02
355             	3.50084340e+02
356             	3.50089428e+02
357             	3.50094531e+02
358             	3.50099500e+02
359             	3.50104398e+02
360             	3.50109113e+02
361             	3.50113867e+02
362             	3.50118523e+02
363             	3.50123104e+02
364             	3.50127569e+02
365             	3.50131964e+02
366             	3.50136242e+02
367             	3.50140438e+02
368             	3.50144496e+02
369             	3.50148460e+02
370             	3.50152302e+02
371             	3.50156039e+02
372             	3.50159650e+02
373             	3.50163182e+02
374             	3.50166610e+02
375             	3.50169973e+02
376             	3.50173225e+02
377             	3.50176407e+02
378             	3.50179490e+02
379             	3.50182494e+02
380             	3.50185393e+02
381             	3.50188225e+02
382             	3.50190951e+02
383             	3.50193609e+02
384             	3.50196219e+02
385             	3.50198742e+02
386             	3.50201187e+02
387             	3.50203603e+02
388             	3.50205959e+02
389             	3.50208290e+02
390             	3.50210527e+02
391             	3.50212750e+02
392             	3.50214908e+02
393             	3.50217028e+02
394             	3.50219078e+02
395             	3.50221086e+02
396             	3.50223024e+02
397             	3.50224912e+02
398             	3.50226733e+02
399             	3.50228513e+02
400             	3.50230225e+02
401             	3.50231894e+02
402             	3.50233492e+02
403             	3.50235043e+02
404             	3.50236524e+02
405             	3.50237956e+02
406             	3.50239321e+02
407             	3.50240637e+02
408             	3.50241884e+02
409             	3.50243081e+02
410             	3.50244208e+02
411             	3.50245286e+02
412             	3.50246317e+02
413             	3.50247295e+02
414             	3.50248216e+02
415             	3.50249101e+02
416             	3.50249939e+02
417             	3.50250752e+02
418             	3.50251524e+02
419             	3.50252269e+02
420             	3.50252971e+02
421             	3.50253651e+02
422             	3.50254277e+02
423             	3.50254866e+02
424             	3.50255430e+02
425             	3.50255965e+02
426             	3.50256459e+02
427             	3.50256925e+02
428             	3.50257360e+02
429             	3.50257758e+02
430             	3.50258117e+02
431             	3.50258455e+02
432             	3.50258759e+02
433             	3.50259038e+02
434             	3.50259294e+02
435             	3.50259528e+02
436             	3.50259737e+02
437             	3.50259922e+02
438             	3.50260080e+02
439             	3.50260213e+02
440             	3.50260315e+02
441             	3.50260389e+02
442             	3.50260433e+02
443             	3.50260446e+02
444             	3.50260427e+02
445             	3.50260378e+02
446             	3.50260294e+02
447             	3.50260174e+02
448             	3.50260030e+02
449             	3.50259856e+02
450             	3.50259654e+02
451             	3.50259423e+02
452             	3.50259174e+02
453             	3.50258905e+02
454             	3.50258618e+02
455             	3.50258303e+02
456             	3.50257972e+02
457             	3.50257624e+02
458             	3.50257263e+02
459             	3.50256887e+02
460             	3.50256502e+02
461             	3.50256101e+02
462             	3.50255661e+02
463             	3.50255220e+02
464             	3.50254768e+02
465             	3.50254296e+02
466             	3.50253839e+02
467             	3.50253345e+02
468             	3.50252838e+02
469             	3.50252317e+02
470             	3.50251788e+02
471             	3.50251241e+02
472             	3.50250683e+02
473             	3.50250106e+02
474             	3.50249519e+02
475             	3.50248911e+02
476             	3.50248292e+02
477             	3.50247652e+02
478             	3.50247002e+02
479             	3.50246331e+02
480             	3.50245650e+02
481             	3.50244962e+02
482             	3.50244256e+02
483             	3.50243533e+02
484             	3.50242803e+02
485             	3.50242058e+02
486             	3.50241310e+02
487             	3.50240550e+02
488             	3.50239788e+02
489             	3.50239013e+02
490             	3.50238237e+02
491             	3.50237449e+02
492             	3.50236660e+02
493             	3.50235857e+02
494             	3.50235048e+02
495             	3.50234230e+02
496             	3.50233408e+02
497             	3.50232573e+02
498             	3.50231732e+02
499             	3.50230878e+02
500             	3.50230017e+02
501             	3.50229142e+02
502             	3.50228264e+02
503             	3.50227373e+02
504             	3.50226478e+02
505             	3.50225586e+02
506             	3.50224684e+02
507             	3.50223770e+02
508             	3.50222858e+02
509             	3.50221936e+02
510             	3.50221016e+02
511             	3.50220084e+02
512             	3.50219151e+02
513             	3.50218208e+02
514             	3.50217264e+02
515             	3.50216310e+02
516             	3.50215354e+02
517             	3.50214387e+02
518             	3.50213416e+02
519             	3.50212439e+02
520             	3.50211457e+02
521             	3.50210463e+02
522             	3.50209467e+02
523             	3.50208461e+02
524             	3.50207456e+02
525             	3.50206441e+02
526             	3.50205433e+02
527             	3.50204416e+02
528             	3.50203404e+02
529             	3.50202394e+02
530             	3.50201388e+02
531             	3.50200365e+02
532             	3.50199355e+02
533             	3.50198341e+02
534             	3.50197330e+02
535             	3.50196335e+02
536             	3.50195331e+02
537             	3.50194324e+02
538             	3.50193324e+02
539             	3.50192323e+02
540             	3.50191327e+02
541             	3.50190328e+02
542             	3.50189336e+02
543             	3.50188339e+02
544             	3.50187341e+02
545             	3.50186342e+02
546             	3.50185347e+02
547             	3.50184322e+02
548             	3.50183310e+02
549             	3.50182291e+02
550             	3.50181275e+02
551             	3.50180245e+02
552             	3.50179225e+02
553             	3.50178195e+02
554             	3.50177168e+02
555             	3.50176139e+02
556             	3.50175115e+02
557             	3.50174088e+02
558             	3.50173066e+02
559             	3.50172045e+02
560             	3.50171027e+02
561             	3.50170011e+02
562             	3.50168998e+02
563             	3.50167984e+02
564             	3.50166977e+02
565             	3.50165966e+02
566             	3.50164960e+02
567             	3.50163952e+02
568             	3.50162949e+02
569             	3.50161943e+02
570             	3.50160941e+02
571             	3.50159935e+02
572             	3.50158934e+02
573             	3.50157933e+02
574             	3.50156946e+02
575             	3.50155954e+02
576             	3.50154968e+02
577             	3.50153984e+02
578             	3.50153010e+02
579             	3.50152039e+02
580             	3.50151070e+02
581             	3.50150105e+02
582             	3.50149146e+02
583             	3.50148180e+02
584             	3.50147222e+02
585             	3.50146264e+02
586             	3.50145310e+02
587             	3.50144354e+02
588             	3.50143403e+02
589             	3.50142454e+02
590             	3.50141508e+02
591             	3.50140561e+02
592             	3.50139618e+02
593             	3.50138672e+02
594             	3.50137731e+02
595             	3.50136796e+02
596             	3.50135860e+02
597             	3.50134923e+02
598             	3.50133992e+02
599             	3.50133060e+02
600             	3.50132126e+02
601             	3.50131192e+02
602             	3.50130264e+02
603             	3.50129331e+02
604             	3.50128399e+02
605             	3.50127465e+02
606             	3.50126536e+02
607             	3.50125616e+02
608             	3.50124691e+02
609             	3.50123768e+02
610             	3.50122862e+02
611             	3.50121955e+02
612             	3.50121053e+02
613             	3.50120158e+02
614             	3.50119272e+02
615             	3.50118391e+02
616             	3.50117517e+02
617             	3.50116647e+02
618             	3.50115786e+02
619             	3.50114926e+02
620             	3.50114074e+02
621             	3.50113225e+02
