# Region        : cellZone pcb
# Cells         : 509
# Volume        : 8.44673141e-01
# Time          	volAverage(T)
1               	3.00005951e+02
2               	3.00017216e+02
3               	3.00032678e+02
4               	3.00051641e+02
5               	3.00073459e+02
6               	3.00097947e+02
7               	3.00124840e+02
8               	3.00153899e+02
9               	3.00185069e+02
10              	3.00218379e+02
11              	3.00253636e+02
12              	3.00290196e+02
13              	3.00328195e+02
14              	3.00367559e+02
15              	3.00407251e+02
16              	3.00446809e+02
17              	3.00486207e+02
18              	3.00526300e+02
19              	3.00567846e+02
20              	3.00610729e+02
21              	3.00654050e+02
22              	3.00697590e+02
23              	3.00741989e+02
24              	3.00787514e+02
25              	3.00833403e+02
26              	3.00880157e+02
27              	3.00927979e+02
28              	3.00976372e+02
29              	3.01024883e+02
30              	3.01073036e+02
31              	3.01121807e+02
32              	3.01171596e+02
33              	3.01220945e+02
34              	3.01268966e+02
35              	3.01316672e+02
36              	3.01365119e+02
37              	3.01414135e+02
38              	3.01463716e+02
39              	3.01511073e+02
40              	3.01556118e+02
41              	3.01601360e+02
42              	3.01647360e+02
43              	3.01693968e+02
44              	3.01738623e+02
45              	3.01782175e+02
46              	3.01826219e+02
47              	3.01869764e+02
48              	3.01912367e+02
49              	3.01954233e+02
50              	3.01994823e+02
51              	3.02034169e+02
52              	3.02074666e+02
53              	3.02112292e+02
54              	3.02148279e+02
55              	3.02184262e+02
56              	3.02219644e+02
57              	3.02254943e+02
58              	3.02291491e+02
59              	3.02328331e+02
60              	3.02362633e+02
61              	3.02396174e+02
62              	3.02427943e+02
63              	3.02458138e+02
64              	3.02488175e+02
65              	3.02515051e+02
66              	3.02539947e+02
67              	3.02565426e+02
68              	3.02594080e+02
69              	3.02623122e+02
70              	3.02651092e+02
71              	3.02678215e+02
72              	3.02706594e+02
73              	3.02738211e+02
74              	3.02767947e+02
75              	3.02793161e+02
76              	3.02817262e+02
77              	3.02842146e+02
78              	3.02869003e+02
79              	3.02896495e+02
80              	3.02919560e+02
81              	3.02942017e+02
82              	3.02964743e+02
83              	3.02987809e+02
84              	3.03009203e+02
85              	3.03028588e+02
86              	3.03050347e+02
87              	3.03073167e+02
88              	3.03095835e+02
89              	3.03117648e+02
90              	3.03137618e+02
91              	3.03157248e+02
92              	3.03174083e+02
93              	3.03188784e+02
94              	3.03204858e+02
95              	3.03220294e+02
96              	3.03236430e+02
97              	3.03251739e+02
98              	3.03267732e+02
99              	3.03285510e+02
100             	3.03302239e+02
101             	3.03318490e+02
102             	3.03334499e+02
103             	3.03351043e+02
104             	3.03369889e+02
105             	3.03387475e+02
106             	3.03402783e+02
107             	3.03417796e+02
108             	3.03431471e+02
109             	3.03446370e+02
110             	3.03457937e+02
111             	3.03469001e+02
112             	3.03481607e+02
113             	3.03493398e+02
114             	3.03505807e+02
115             	3.03518172e+02
116             	3.03531488e+02
117             	3.03543716e+02
118             	3.03552378e+02
119             	3.03559686e+02
120             	3.03569659e+02
121             	3.03579500e+02
122             	3.03589699e+02
123             	3.03598844e+02
124             	3.03609919e+02
125             	3.03621956e+02
126             	3.03632715e+02
127             	3.03643970e+02
128             	3.03653280e+02
129             	3.03661639e+02
130             	3.03672998e+02
131             	3.03682756e+02
132             	3.03688594e+02
133             	3.03696071e+02
134             	3.03703075e+02
135             	3.03709550e+02
136             	3.03715732e+02
137             	3.03725199e+02
138             	3.03735881e+02
139             	3.03743916e+02
140             	3.03750958e+02
141             	3.03758537e+02
142             	3.03765964e+02
143             	3.03775032e+02
144             	3.03781089e+02
145             	3.03782927e+02
146             	3.03786151e+02
147             	3.03790699e+02
148             	3.03797829e+02
149             	3.03804196e+02
150             	3.03809483e+02
151             	3.03818402e+02
152             	3.03829552e+02
153             	3.03838359e+02
154             	3.03845694e+02
155             	3.03852588e+02
156             	3.03860665e+02
157             	3.03871020e+02
158             	3.03879313e+02
159             	3.03883896e+02
160             	3.03891156e+02
161             	3.03896091e+02
162             	3.03899061e+02
163             	3.03902007e+02
164             	3.03906690e+02
165             	3.03912333e+02
166             	3.03917141e+02
167             	3.03922083e+02
168             	3.03928194e+02
169             	3.03935981e+02
170             	3.03941527e+02
171             	3.03947538e+02
172             	3.03951551e+02
173             	3.03954453e+02
174             	3.03956193e+02
175             	3.03958317e+02
176             	3.03963016e+02
177             	3.03968475e+02
178             	3.03973316e+02
179             	3.03977600e+02
180             	3.03981992e+02
181             	3.03987377e+02
182             	3.03994483e+02
183             	3.03999519e+02
184             	3.04001043e+02
185             	3.04001841e+02
186             	3.04003009e+02
187             	3.04006079e+02
188             	3.04008135e+02
189             	3.04010085e+02
190             	3.04012911e+02
191             	3.04016924e+02
192             	3.04021543e+02
193             	3.04026784e+02
194             	3.04032185e+02
195             	3.04037266e+02
196             	3.04039449e+02
197             	3.04038100e+02
198             	3.04037836e+02
199             	3.04039644e+02
200             	3.04042302e+02
201             	3.04044469e+02
202             	3.04046491e+02
203             	3.04049186e+02
204             	3.04053452e+02
205             	3.04058551e+02
206             	3.04064140e+02
207             	3.04070825e+02
208             	3.04077308e+02
209             	3.04079216e+02
210             	3.04080868e+02
211             	3.04082083e+02
212             	3.04083057e+02
213             	3.04084056e+02
214             	3.04084500e+02
215             	3.04086632e+02
216             	3.04089972e+02
217             	3.04092527e+02
218             	3.04094883e+02
219             	3.04098163e+02
220             	3.04103590e+02
221             	3.04110259e+02
222             	3.04113880e+02
223             	3.04114568e+02
224             	3.04116004e+02
225             	3.04117261e+02
226             	3.04118196e+02
227             	3.04118701e+02
228             	3.04121561e+02
229             	3.04125253e+02
230             	3.04128082e+02
231             	3.04130210e+02
232             	3.04132832e+02
233             	3.04137461e+02
234             	3.04143215e+02
235             	3.04146647e+02
236             	3.04147182e+02
237             	3.04148472e+02
238             	3.04148624e+02
239             	3.04149653e+02
240             	3.04149708e+02
241             	3.04151741e+02
242             	3.04155425e+02
243             	3.04159119e+02
244             	3.04163239e+02
245             	3.04167730e+02
246             	3.04171250e+02
247             	3.04172819e+02
248             	3.04173139e+02
249             	3.04173245e+02
250             	3.04172064e+02
251             	3.04172349e+02
252             	3.04170799e+02
253             	3.04169925e+02
254             	3.04170961e+02
255             	3.04174429e+02
256             	3.04179061e+02
257             	3.04182516e+02
258             	3.04185020e+02
259             	3.04186228e+02
260             	3.04186589e+02
261             	3.04187426e+02
262             	3.04186140e+02
263             	3.04183141e+02
264             	3.04182690e+02
265             	3.04183695e+02
266             	3.04186313e+02
267             	3.04188808e+02
268             	3.04191242e+02
269             	3.04194184e+02
270             	3.04195009e+02
271             	3.04194896e+02
272             	3.04191201e+02
273             	3.04189901e+02
274             	3.04187618e+02
275             	3.04186319e+02
276             	3.04185792e+02
277             	3.04187588e+02
278             	3.04190214e+02
279             	3.04189653e+02
280             	3.04188936e+02
281             	3.04189761e+02
282             	3.04192509e+02
283             	3.04193973e+02
284             	3.04194850e+02
285             	3.04194890e+02
286             	3.04193751e+02
287             	3.04191332e+02
288             	3.04188709e+02
289             	3.04188596e+02
290             	3.04190367e+02
291             	3.04190949e+02
292             	3.04191990e+02
293             	3.04193368e+02
294             	3.04195117e+02
295             	3.04193859e+02
296             	3.04188764e+02
297             	3.04187942e+02
298             	3.04187024e+02
299             	3.04183572e+02
300             	3.04181050e+02
301             	3.04180963e+02
302             	3.04183245e+02
303             	3.04186836e+02
304             	3.04190477e+02
305             	3.04193933e+02
306             	3.04196387e+02
307             	3.04196260e+02
308             	3.04193407e+02
309             	3.04188696e+02
310             	3.04186571e+02
311             	3.04185285e+02
312             	3.04182891e+02
313             	3.04180755e+02
314             	3.04181783e+02
315             	3.04184663e+02
316             	3.04185781e+02
317             	3.04186025e+02
318             	3.04187144e+02
319             	3.04188388e+02
320             	3.04190439e+02
321             	3.04189475e+02
322             	3.04184240e+02
323             	3.04181906e+02
324             	3.04179405e+02
325             	3.04178186e+02
326             	3.04176184e+02
327             	3.04174556e+02
328             	3.04175680e+02
329             	3.04177104e+02
330             	3.04179018e+02
331             	3.04181778e+02
332             	3.04183576e+02
333             	3.04184889e+02
334             	3.04182507e+02
335             	3.04181061e+02
336             	3.04179810e+02
337             	3.04178914e+02
338             	3.04177821e+02
339             	3.04176583e+02
340             	3.04178229e+02
341             	3.04180710e+02
342             	3.04181857e+02
343             	3.04182107e+02
344             	3.04182890e+02
345             	3.04185092e+02
346             	3.04188617e+02
347             	3.04187863e+02
348             	3.04185510e+02
349             	3.04183420e+02
350             	3.04180509e+02
351             	3.04177873e+02
352             	3.04175607e+02
353             	3.04175997e+02
354             	3.04177976e+02
355             	3.04179172e+02
356             	3.04181001e+02
357             	3.04181430e+02
358             	3.04181910e+02
359             	3.04183139e+02
360             	3.04180890e+02
361             	3.04178240e+02
362             	3.04175833e+02
363             	3.04175017e+02
364             	3.04175912e+02
365             	3.04176875e+02
366             	3.04178108e+02
367             	3.04181119e+02
368             	3.04184941e+02
369             	3.04188292e+02
370             	3.04190389e+02
371             	3.04191507e+02
372             	3.04192228e+02
373             	3.04194969e+02
374             	3.04197631e+02
375             	3.04198457e+02
376             	3.04197850e+02
377             	3.04197577e+02
378             	3.04197299e+02
379             	3.04196832e+02
380             	3.04196488e+02
381             	3.04197398e+02
382             	3.04199284e+02
383             	3.04200724e+02
384             	3.04202702e+02
385             	3.04205962e+02
386             	3.04209793e+02
387             	3.04211790e+02
388             	3.04210636e+02
389             	3.04210007e+02
390             	3.04208957e+02
391             	3.04208802e+02
392             	3.04210293e+02
393             	3.04212716e+02
394             	3.04215500e+02
395             	3.04218456e+02
396             	3.04221533e+02
397             	3.04223496e+02
398             	3.04224559e+02
399             	3.04225172e+02
400             	3.04225223e+02
401             	3.04225242e+02
402             	3.04226225e+02
403             	3.04226165e+02
404             	3.04227171e+02
405             	3.04227674e+02
406             	3.04228269e+02
407             	3.04229126e+02
408             	3.04230268e+02
409             	3.04231469e+02
410             	3.04233082e+02
411             	3.04235068e+02
412             	3.04237728e+02
413             	3.04240305e+02
414             	3.04242678e+02
415             	3.04244899e+02
416             	3.04247534e+02
417             	3.04248738e+02
418             	3.04249695e+02
419             	3.04250470e+02
420             	3.04251512e+02
421             	3.04252868e+02
422             	3.04254372e+02
423             	3.04255958e+02
424             	3.04257467e+02
425             	3.04259063e+02
426             	3.04260884e+02
427             	3.04262852e+02
428             	3.04264851e+02
429             	3.04266615e+02
430             	3.04268145e+02
431             	3.04269551e+02
432             	3.04271259e+02
433             	3.04272633e+02
434             	3.04273492e+02
435             	3.04274335e+02
436             	3.04275410e+02
437             	3.04276747e+02
438             	3.04278421e+02
439             	3.04280342e+02
440             	3.04282140e+02
441             	3.04284173e+02
442             	3.04286238e+02
443             	3.04288167e+02
444             	3.04289801e+02
445             	3.04291253e+02
446             	3.04292628e+02
447             	3.04293972e+02
448             	3.04295336e+02
449             	3.04296724e+02
450             	3.04298057e+02
451             	3.04299262e+02
452             	3.04300520e+02
453             	3.04301891e+02
454             	3.04303393e+02
455             	3.04304993e+02
456             	3.04306679e+02
457             	3.04308376e+02
458             	3.04309952e+02
459             	3.04311640e+02
460             	3.04313309e+02
461             	3.04314851e+02
462             	3.04316325e+02
463             	3.04317722e+02
464             	3.04319040e+02
465             	3.04320308e+02
466             	3.04321477e+02
467             	3.04322566e+02
468             	3.04323590e+02
469             	3.04324606e+02
470             	3.04325552e+02
471             	3.04326499e+02
472             	3.04327523e+02
473             	3.04328590e+02
474             	3.04329672e+02
475             	3.04330784e+02
476             	3.04331911e+02
477             	3.04333088e+02
478             	3.04334312e+02
479             	3.04335544e+02
480             	3.04336737e+02
481             	3.04337951e+02
482             	3.04339167e+02
483             	3.04340387e+02
484             	3.04341501e+02
485             	3.04342678e+02
486             	3.04343808e+02
487             	3.04344863e+02
488             	3.04345841e+02
489             	3.04346780e+02
490             	3.04347690e+02
491             	3.04348589e+02
492             	3.04349436e+02
493             	3.04350273e+02
494             	3.04351096e+02
495             	3.04351944e+02
496             	3.04352833e+02
497             	3.04353797e+02
498             	3.04354793e+02
499             	3.04355806e+02
500             	3.04356732e+02
501             	3.04357703e+02
502             	3.04358659e+02
503             	3.04359583e+02
504             	3.04360478e+02
505             	3.04361321e+02
506             	3.04362123e+02
507             	3.04362903e+02
508             	3.04363683e+02
509             	3.04364459e+02
510             	3.04365223e+02
511             	3.04365976e+02
512             	3.04366711e+02
513             	3.04367426e+02
514             	3.04368141e+02
515             	3.04368883e+02
516             	3.04369638e+02
517             	3.04370408e+02
518             	3.04371197e+02
519             	3.04371987e+02
520             	3.04372739e+02
521             	3.04373429e+02
522             	3.04374038e+02
523             	3.04374630e+02
524             	3.04375244e+02
525             	3.04375890e+02
526             	3.04376585e+02
527             	3.04377269e+02
528             	3.04377906e+02
529             	3.04378497e+02
530             	3.04379056e+02
531             	3.04379566e+02
532             	3.04380010e+02
533             	3.04380420e+02
534             	3.04380798e+02
535             	3.04381203e+02
536             	3.04381640e+02
537             	3.04382121e+02
538             	3.04382638e+02
539             	3.04383173e+02
540             	3.04383704e+02
541             	3.04384224e+02
542             	3.04384739e+02
543             	3.04385249e+02
544             	3.04385749e+02
545             	3.04386259e+02
546             	3.04386765e+02
547             	3.04387274e+02
548             	3.04387794e+02
549             	3.04388295e+02
550             	3.04388772e+02
551             	3.04389239e+02
552             	3.04389698e+02
553             	3.04390146e+02
554             	3.04390577e+02
555             	3.04390983e+02
556             	3.04391361e+02
557             	3.04391715e+02
558             	3.04392058e+02
559             	3.04392364e+02
560             	3.04392647e+02
561             	3.04392962e+02
562             	3.04393267e+02
563             	3.04393571e+02
564             	3.04393895e+02
565             	3.04394235e+02
566             	3.04394591e+02
567             	3.04394951e+02
568             	3.04395309e+02
569             	3.04395643e+02
570             	3.04395975e+02
571             	3.04396288e+02
572             	3.04396591e+02
573             	3.04396882e+02
574             	3.04397167e+02
575             	3.04397448e+02
576             	3.04397715e+02
577             	3.04397978e+02
578             	3.04398234e+02
579             	3.04398483e+02
580             	3.04398725e+02
581             	3.04398957e+02
582             	3.04399198e+02
583             	3.04399454e+02
584             	3.04399709e+02
585             	3.04399968e+02
586             	3.04400237e+02
587             	3.04400514e+02
588             	3.04400775e+02
589             	3.04401018e+02
590             	3.04401242e+02
591             	3.04401484e+02
592             	3.04401720e+02
593             	3.04401958e+02
594             	3.04402199e+02
595             	3.04402434e+02
596             	3.04402657e+02
597             	3.04402868e+02
598             	3.04403077e+02
599             	3.04403254e+02
600             	3.04403425e+02
601             	3.04403594e+02
602             	3.04403765e+02
603             	3.04403942e+02
604             	3.04404124e+02
605             	3.04404311e+02
606             	3.04404502e+02
607             	3.04404696e+02
608             	3.04404873e+02
609             	3.04405049e+02
610             	3.04405217e+02
611             	3.04405372e+02
612             	3.04405518e+02
613             	3.04405661e+02
614             	3.04405804e+02
615             	3.04405948e+02
616             	3.04406095e+02
617             	3.04406244e+02
618             	3.04406381e+02
619             	3.04406515e+02
620             	3.04406653e+02
621             	3.04406793e+02
