# Region        : cellZone component_1
# Cells         : 135
# Volume        : 2.57128111e-01
# Time          	volAverage(T)
1               	3.00155676e+02
2               	3.00308600e+02
3               	3.00451960e+02
4               	3.00589191e+02
5               	3.00722852e+02
6               	3.00853942e+02
7               	3.00982921e+02
8               	3.01110268e+02
9               	3.01236048e+02
10              	3.01358114e+02
11              	3.01480858e+02
12              	3.01602600e+02
13              	3.01723340e+02
14              	3.01843407e+02
15              	3.01962948e+02
16              	3.02081233e+02
17              	3.02198741e+02
18              	3.02314916e+02
19              	3.02429718e+02
20              	3.02542719e+02
21              	3.02654027e+02
22              	3.02763822e+02
23              	3.02871896e+02
24              	3.02978621e+02
25              	3.03083978e+02
26              	3.03187607e+02
27              	3.03289428e+02
28              	3.03389537e+02
29              	3.03488084e+02
30              	3.03585110e+02
31              	3.03680864e+02
32              	3.03775071e+02
33              	3.03868011e+02
34              	3.03959621e+02
35              	3.04050261e+02
36              	3.04140410e+02
37              	3.04230328e+02
38              	3.04317867e+02
39              	3.04404830e+02
40              	3.04489937e+02
41              	3.04572707e+02
42              	3.04653281e+02
43              	3.04730552e+02
44              	3.04806891e+02
45              	3.04881183e+02
46              	3.04954513e+02
47              	3.05027604e+02
48              	3.05100612e+02
49              	3.05173119e+02
50              	3.05246215e+02
51              	3.05319441e+02
52              	3.05392154e+02
53              	3.05464432e+02
54              	3.05535529e+02
55              	3.05605927e+02
56              	3.05675172e+02
57              	3.05742501e+02
58              	3.05808315e+02
59              	3.05872585e+02
60              	3.05934749e+02
61              	3.05996151e+02
62              	3.06055525e+02
63              	3.06111596e+02
64              	3.06167665e+02
65              	3.06223163e+02
66              	3.06278117e+02
67              	3.06333028e+02
68              	3.06388237e+02
69              	3.06442882e+02
70              	3.06496533e+02
71              	3.06551578e+02
72              	3.06608483e+02
73              	3.06664631e+02
74              	3.06720235e+02
75              	3.06774328e+02
76              	3.06825102e+02
77              	3.06876176e+02
78              	3.06926522e+02
79              	3.06976333e+02
80              	3.07025489e+02
81              	3.07075089e+02
82              	3.07124150e+02
83              	3.07173026e+02
84              	3.07221627e+02
85              	3.07269205e+02
86              	3.07314345e+02
87              	3.07360214e+02
88              	3.07404860e+02
89              	3.07448308e+02
90              	3.07490057e+02
91              	3.07531513e+02
92              	3.07572655e+02
93              	3.07613762e+02
94              	3.07654674e+02
95              	3.07696016e+02
96              	3.07735837e+02
97              	3.07774937e+02
98              	3.07813217e+02
99              	3.07851475e+02
100             	3.07889019e+02
101             	3.07925587e+02
102             	3.07962814e+02
103             	3.08000248e+02
104             	3.08037778e+02
105             	3.08075829e+02
106             	3.08114147e+02
107             	3.08152443e+02
108             	3.08190685e+02
109             	3.08228774e+02
110             	3.08265674e+02
111             	3.08302280e+02
112             	3.08337889e+02
113             	3.08371168e+02
114             	3.08404065e+02
115             	3.08436183e+02
116             	3.08467025e+02
117             	3.08497218e+02
118             	3.08526546e+02
119             	3.08554537e+02
120             	3.08582300e+02
121             	3.08609829e+02
122             	3.08637138e+02
123             	3.08664552e+02
124             	3.08692013e+02
125             	3.08719169e+02
126             	3.08746417e+02
127             	3.08773293e+02
128             	3.08799890e+02
129             	3.08826049e+02
130             	3.08849717e+02
131             	3.08874082e+02
132             	3.08898709e+02
133             	3.08923394e+02
134             	3.08948580e+02
135             	3.08973409e+02
136             	3.08998148e+02
137             	3.09022740e+02
138             	3.09047336e+02
139             	3.09072153e+02
140             	3.09096614e+02
141             	3.09120889e+02
142             	3.09144832e+02
143             	3.09168488e+02
144             	3.09191672e+02
145             	3.09214089e+02
146             	3.09235333e+02
147             	3.09254239e+02
148             	3.09273497e+02
149             	3.09293299e+02
150             	3.09312327e+02
151             	3.09330893e+02
152             	3.09349773e+02
153             	3.09369262e+02
154             	3.09387928e+02
155             	3.09406676e+02
156             	3.09425834e+02
157             	3.09444460e+02
158             	3.09462520e+02
159             	3.09480657e+02
160             	3.09498301e+02
161             	3.09515087e+02
162             	3.09531661e+02
163             	3.09548166e+02
164             	3.09564037e+02
165             	3.09579833e+02
166             	3.09595544e+02
167             	3.09611641e+02
168             	3.09627784e+02
169             	3.09643074e+02
170             	3.09658284e+02
171             	3.09673214e+02
172             	3.09687626e+02
173             	3.09702446e+02
174             	3.09717063e+02
175             	3.09731405e+02
176             	3.09746002e+02
177             	3.09760532e+02
178             	3.09775350e+02
179             	3.09790654e+02
180             	3.09805774e+02
181             	3.09821274e+02
182             	3.09835952e+02
183             	3.09849953e+02
184             	3.09863548e+02
185             	3.09876315e+02
186             	3.09888689e+02
187             	3.09901476e+02
188             	3.09913388e+02
189             	3.09925688e+02
190             	3.09938238e+02
191             	3.09950212e+02
192             	3.09962996e+02
193             	3.09974760e+02
194             	3.09987343e+02
195             	3.09999449e+02
196             	3.10011874e+02
197             	3.10024543e+02
198             	3.10036552e+02
199             	3.10048424e+02
200             	3.10060132e+02
201             	3.10071442e+02
202             	3.10082397e+02
203             	3.10092680e+02
204             	3.10102997e+02
205             	3.10112843e+02
206             	3.10122761e+02
207             	3.10132394e+02
208             	3.10142246e+02
209             	3.10151944e+02
210             	3.10162008e+02
211             	3.10171465e+02
212             	3.10181066e+02
213             	3.10190502e+02
214             	3.10200384e+02
215             	3.10209503e+02
216             	3.10218563e+02
217             	3.10227377e+02
218             	3.10235931e+02
219             	3.10243660e+02
220             	3.10251696e+02
221             	3.10259891e+02
222             	3.10267686e+02
223             	3.10275812e+02
224             	3.10284514e+02
225             	3.10293576e+02
226             	3.10301887e+02
227             	3.10310321e+02
228             	3.10318434e+02
229             	3.10326134e+02
230             	3.10333572e+02
231             	3.10340901e+02
232             	3.10348001e+02
233             	3.10354402e+02
234             	3.10360492e+02
235             	3.10366284e+02
236             	3.10372082e+02
237             	3.10377468e+02
238             	3.10382984e+02
239             	3.10388247e+02
240             	3.10393754e+02
241             	3.10399098e+02
242             	3.10404605e+02
243             	3.10410179e+02
244             	3.10416173e+02
245             	3.10422119e+02
246             	3.10428364e+02
247             	3.10434894e+02
248             	3.10441192e+02
249             	3.10447689e+02
250             	3.10454460e+02
251             	3.10461305e+02
252             	3.10467376e+02
253             	3.10473154e+02
254             	3.10478796e+02
255             	3.10484327e+02
256             	3.10489506e+02
257             	3.10494375e+02
258             	3.10498860e+02
259             	3.10503350e+02
260             	3.10507249e+02
261             	3.10511369e+02
262             	3.10515707e+02
263             	3.10520121e+02
264             	3.10524284e+02
265             	3.10528705e+02
266             	3.10533113e+02
267             	3.10537738e+02
268             	3.10542350e+02
269             	3.10546975e+02
270             	3.10551570e+02
271             	3.10555872e+02
272             	3.10560031e+02
273             	3.10563989e+02
274             	3.10567727e+02
275             	3.10571310e+02
276             	3.10574845e+02
277             	3.10578247e+02
278             	3.10581886e+02
279             	3.10585486e+02
280             	3.10589089e+02
281             	3.10592731e+02
282             	3.10596045e+02
283             	3.10599651e+02
284             	3.10603515e+02
285             	3.10607106e+02
286             	3.10610904e+02
287             	3.10614590e+02
288             	3.10618241e+02
289             	3.10621634e+02
290             	3.10624737e+02
291             	3.10627604e+02
292             	3.10630239e+02
293             	3.10632393e+02
294             	3.10634921e+02
295             	3.10637267e+02
296             	3.10639413e+02
297             	3.10641441e+02
298             	3.10643642e+02
299             	3.10645946e+02
300             	3.10648397e+02
301             	3.10651075e+02
302             	3.10653901e+02
303             	3.10656986e+02
304             	3.10659986e+02
305             	3.10663186e+02
306             	3.10666354e+02
307             	3.10669701e+02
308             	3.10672979e+02
309             	3.10675970e+02
310             	3.10678929e+02
311             	3.10682234e+02
312             	3.10685335e+02
313             	3.10688291e+02
314             	3.10691164e+02
315             	3.10693953e+02
316             	3.10696670e+02
317             	3.10699330e+02
318             	3.10701978e+02
319             	3.10704611e+02
320             	3.10707205e+02
321             	3.10709760e+02
322             	3.10712249e+02
323             	3.10714607e+02
324             	3.10716861e+02
325             	3.10718829e+02
326             	3.10720797e+02
327             	3.10722841e+02
328             	3.10724891e+02
329             	3.10726931e+02
330             	3.10728916e+02
331             	3.10730891e+02
332             	3.10732857e+02
333             	3.10734890e+02
334             	3.10736966e+02
335             	3.10739073e+02
336             	3.10741020e+02
337             	3.10742798e+02
338             	3.10744815e+02
339             	3.10747033e+02
340             	3.10748976e+02
341             	3.10750985e+02
342             	3.10753367e+02
343             	3.10755446e+02
344             	3.10757466e+02
345             	3.10759465e+02
346             	3.10761001e+02
347             	3.10762582e+02
348             	3.10764317e+02
349             	3.10765644e+02
350             	3.10766951e+02
351             	3.10768457e+02
352             	3.10769624e+02
353             	3.10770964e+02
354             	3.10772401e+02
355             	3.10773553e+02
356             	3.10774843e+02
357             	3.10776418e+02
358             	3.10777667e+02
359             	3.10779133e+02
360             	3.10780864e+02
361             	3.10782278e+02
362             	3.10783785e+02
363             	3.10785359e+02
364             	3.10786953e+02
365             	3.10788427e+02
366             	3.10789740e+02
367             	3.10790898e+02
368             	3.10791920e+02
369             	3.10792832e+02
370             	3.10793662e+02
371             	3.10794446e+02
372             	3.10795212e+02
373             	3.10796007e+02
374             	3.10796846e+02
375             	3.10797761e+02
376             	3.10798725e+02
377             	3.10799385e+02
378             	3.10800292e+02
379             	3.10801446e+02
380             	3.10802362e+02
381             	3.10803529e+02
382             	3.10804861e+02
383             	3.10805910e+02
384             	3.10807140e+02
385             	3.10808538e+02
386             	3.10809582e+02
387             	3.10810755e+02
388             	3.10812151e+02
389             	3.10813160e+02
390             	3.10814284e+02
391             	3.10815557e+02
392             	3.10816499e+02
393             	3.10817575e+02
394             	3.10818744e+02
395             	3.10819945e+02
396             	3.10821112e+02
397             	3.10822227e+02
398             	3.10823291e+02
399             	3.10824281e+02
400             	3.10825243e+02
401             	3.10826270e+02
402             	3.10827273e+02
403             	3.10828243e+02
404             	3.10829194e+02
405             	3.10829759e+02
406             	3.10830492e+02
407             	3.10831420e+02
408             	3.10832038e+02
409             	3.10832867e+02
410             	3.10833924e+02
411             	3.10834643e+02
412             	3.10835580e+02
413             	3.10836738e+02
414             	3.10837548e+02
415             	3.10838541e+02
416             	3.10839712e+02
417             	3.10840477e+02
418             	3.10841357e+02
419             	3.10842361e+02
420             	3.10842947e+02
421             	3.10843627e+02
422             	3.10844384e+02
423             	3.10845134e+02
424             	3.10845424e+02
425             	3.10845787e+02
426             	3.10846219e+02
427             	3.10846682e+02
428             	3.10847116e+02
429             	3.10847474e+02
430             	3.10847790e+02
431             	3.10848084e+02
432             	3.10848374e+02
433             	3.10848667e+02
434             	3.10848929e+02
435             	3.10849292e+02
436             	3.10849697e+02
437             	3.10850132e+02
438             	3.10850596e+02
439             	3.10851123e+02
440             	3.10851683e+02
441             	3.10852267e+02
442             	3.10852876e+02
443             	3.10853496e+02
444             	3.10854135e+02
445             	3.10854784e+02
446             	3.10855444e+02
447             	3.10856096e+02
448             	3.10856742e+02
449             	3.10857376e+02
450             	3.10857989e+02
451             	3.10858575e+02
452             	3.10859129e+02
453             	3.10859631e+02
454             	3.10860089e+02
455             	3.10860509e+02
456             	3.10860868e+02
457             	3.10861188e+02
458             	3.10861483e+02
459             	3.10861745e+02
460             	3.10861983e+02
461             	3.10862213e+02
462             	3.10862434e+02
463             	3.10862659e+02
464             	3.10862837e+02
465             	3.10863138e+02
466             	3.10863466e+02
467             	3.10863821e+02
468             	3.10864216e+02
469             	3.10864652e+02
470             	3.10865124e+02
471             	3.10865621e+02
472             	3.10866140e+02
473             	3.10866296e+02
474             	3.10866638e+02
475             	3.10867177e+02
476             	3.10867514e+02
477             	3.10867916e+02
478             	3.10868423e+02
479             	3.10869007e+02
480             	3.10869530e+02
481             	3.10870031e+02
482             	3.10870471e+02
483             	3.10870843e+02
484             	3.10871139e+02
485             	3.10871455e+02
486             	3.10871383e+02
487             	3.10871486e+02
488             	3.10871774e+02
489             	3.10871759e+02
490             	3.10871952e+02
491             	3.10872381e+02
492             	3.10872510e+02
493             	3.10872844e+02
494             	3.10873399e+02
495             	3.10873637e+02
496             	3.10874050e+02
497             	3.10874661e+02
498             	3.10874928e+02
499             	3.10875357e+02
500             	3.10875923e+02
501             	3.10876119e+02
502             	3.10876422e+02
503             	3.10876812e+02
504             	3.10877200e+02
505             	3.10877504e+02
506             	3.10877778e+02
507             	3.10877859e+02
508             	3.10877858e+02
509             	3.10877824e+02
510             	3.10877766e+02
511             	3.10877577e+02
512             	3.10877542e+02
513             	3.10877530e+02
514             	3.10877513e+02
515             	3.10877532e+02
516             	3.10877621e+02
517             	3.10877810e+02
518             	3.10878101e+02
519             	3.10878473e+02
520             	3.10878520e+02
521             	3.10878791e+02
522             	3.10879313e+02
523             	3.10879554e+02
524             	3.10879988e+02
525             	3.10880606e+02
526             	3.10880871e+02
527             	3.10881263e+02
528             	3.10881804e+02
529             	3.10881986e+02
530             	3.10882286e+02
531             	3.10882690e+02
532             	3.10882718e+02
533             	3.10882834e+02
534             	3.10883017e+02
535             	3.10883215e+02
536             	3.10883384e+02
537             	3.10883361e+02
538             	3.10883246e+02
539             	3.10883072e+02
540             	3.10882842e+02
541             	3.10882565e+02
542             	3.10882253e+02
543             	3.10881915e+02
544             	3.10881537e+02
545             	3.10881122e+02
546             	3.10880899e+02
547             	3.10880757e+02
548             	3.10880697e+02
549             	3.10880690e+02
550             	3.10880768e+02
551             	3.10880931e+02
552             	3.10881175e+02
553             	3.10881504e+02
554             	3.10881893e+02
555             	3.10882276e+02
556             	3.10882682e+02
557             	3.10883097e+02
558             	3.10883508e+02
559             	3.10883887e+02
560             	3.10884267e+02
561             	3.10884557e+02
562             	3.10884760e+02
563             	3.10884890e+02
564             	3.10884968e+02
565             	3.10885008e+02
566             	3.10885020e+02
567             	3.10885013e+02
568             	3.10885019e+02
569             	3.10884990e+02
570             	3.10884970e+02
571             	3.10884983e+02
572             	3.10885042e+02
573             	3.10885151e+02
574             	3.10885317e+02
575             	3.10885513e+02
576             	3.10885361e+02
577             	3.10885391e+02
578             	3.10885747e+02
579             	3.10885780e+02
580             	3.10886078e+02
581             	3.10886265e+02
582             	3.10886732e+02
583             	3.10887039e+02
584             	3.10887581e+02
585             	3.10887939e+02
586             	3.10888465e+02
587             	3.10889157e+02
588             	3.10889419e+02
589             	3.10889816e+02
590             	3.10890183e+02
591             	3.10890549e+02
592             	3.10890835e+02
593             	3.10891021e+02
594             	3.10891073e+02
595             	3.10891031e+02
596             	3.10890917e+02
597             	3.10890743e+02
598             	3.10890520e+02
599             	3.10890291e+02
600             	3.10890049e+02
601             	3.10889826e+02
602             	3.10889669e+02
603             	3.10889575e+02
604             	3.10889547e+02
605             	3.10889604e+02
606             	3.10889747e+02
607             	3.10889970e+02
608             	3.10889885e+02
609             	3.10890056e+02
610             	3.10890511e+02
611             	3.10890647e+02
612             	3.10891041e+02
613             	3.10891302e+02
614             	3.10891831e+02
615             	3.10892194e+02
616             	3.10892784e+02
617             	3.10893175e+02
618             	3.10893749e+02
619             	3.10894178e+02
620             	3.10894615e+02
621             	3.10895106e+02
