# Region        : cellZone component_4
# Cells         : 27
# Volume        : 3.07110039e-02
# Time          	volAverage(T)
1               	3.11647067e+02
2               	3.22969408e+02
3               	3.32362417e+02
4               	3.40715183e+02
5               	3.48466421e+02
6               	3.55712168e+02
7               	3.62605431e+02
8               	3.69292642e+02
9               	3.75892842e+02
10              	3.82330307e+02
11              	3.88322230e+02
12              	3.94046376e+02
13              	3.99407300e+02
14              	4.04630791e+02
15              	4.09472351e+02
16              	4.14256422e+02
17              	4.18833597e+02
18              	4.23414655e+02
19              	4.28098245e+02
20              	4.32840595e+02
21              	4.37571230e+02
22              	4.42438199e+02
23              	4.47397860e+02
24              	4.52060530e+02
25              	4.56462418e+02
26              	4.61032928e+02
27              	4.65661741e+02
28              	4.70368380e+02
29              	4.74811529e+02
30              	4.78357475e+02
31              	4.82144240e+02
32              	4.85329497e+02
33              	4.88056732e+02
34              	4.90304960e+02
35              	4.92092392e+02
36              	4.93526555e+02
37              	4.95025346e+02
38              	4.96257774e+02
39              	4.97642376e+02
40              	4.98461003e+02
41              	4.99160793e+02
42              	4.99932526e+02
43              	5.00845231e+02
44              	5.01249352e+02
45              	5.01125030e+02
46              	5.00362368e+02
47              	4.99392844e+02
48              	4.97840402e+02
49              	4.96142148e+02
50              	4.94403820e+02
51              	4.92712233e+02
52              	4.91264620e+02
53              	4.90042477e+02
54              	4.88998110e+02
55              	4.88301516e+02
56              	4.87676306e+02
57              	4.87410384e+02
58              	4.87376002e+02
59              	4.87566092e+02
60              	4.87951733e+02
61              	4.88678433e+02
62              	4.89365851e+02
63              	4.90152170e+02
64              	4.91018544e+02
65              	4.91874365e+02
66              	4.92581630e+02
67              	4.92319632e+02
68              	4.92422746e+02
69              	4.92742572e+02
70              	4.92969266e+02
71              	4.93042208e+02
72              	4.93194221e+02
73              	4.93350273e+02
74              	4.93554952e+02
75              	4.93968000e+02
76              	4.94682624e+02
77              	4.95325003e+02
78              	4.95841343e+02
79              	4.96090632e+02
80              	4.96262251e+02
81              	4.96434769e+02
82              	4.96583655e+02
83              	4.96502075e+02
84              	4.96636232e+02
85              	4.96856204e+02
86              	4.97043188e+02
87              	4.97277149e+02
88              	4.97606133e+02
89              	4.97999424e+02
90              	4.98368079e+02
91              	4.98812203e+02
92              	4.99430702e+02
93              	4.99880730e+02
94              	5.00106890e+02
95              	5.00506278e+02
96              	5.00772252e+02
97              	5.01342156e+02
98              	5.01973464e+02
99              	5.02618144e+02
100             	5.03293222e+02
101             	5.03919031e+02
102             	5.04574336e+02
103             	5.05171790e+02
104             	5.05990821e+02
105             	5.07052242e+02
106             	5.08267085e+02
107             	5.09568150e+02
108             	5.10881313e+02
109             	5.12060031e+02
110             	5.13098744e+02
111             	5.14047152e+02
112             	5.15055206e+02
113             	5.16005338e+02
114             	5.17032419e+02
115             	5.18165717e+02
116             	5.19254916e+02
117             	5.20381521e+02
118             	5.21601272e+02
119             	5.22907284e+02
120             	5.23971729e+02
121             	5.25190888e+02
122             	5.26534147e+02
123             	5.27659062e+02
124             	5.28901433e+02
125             	5.30071260e+02
126             	5.31400708e+02
127             	5.32631288e+02
128             	5.33941773e+02
129             	5.35243018e+02
130             	5.36284063e+02
131             	5.37312875e+02
132             	5.37981256e+02
133             	5.38698611e+02
134             	5.39406631e+02
135             	5.40098242e+02
136             	5.40570131e+02
137             	5.41094520e+02
138             	5.41657911e+02
139             	5.42173914e+02
140             	5.42697969e+02
141             	5.43021466e+02
142             	5.43406445e+02
143             	5.43872230e+02
144             	5.44213855e+02
145             	5.44696533e+02
146             	5.45045394e+02
147             	5.45576322e+02
148             	5.45945962e+02
149             	5.46492005e+02
150             	5.46923870e+02
151             	5.47489570e+02
152             	5.47900498e+02
153             	5.48405142e+02
154             	5.48771094e+02
155             	5.49263111e+02
156             	5.49443576e+02
157             	5.49711778e+02
158             	5.49855871e+02
159             	5.50107239e+02
160             	5.50453283e+02
161             	5.50771815e+02
162             	5.51070407e+02
163             	5.51194175e+02
164             	5.51423015e+02
165             	5.51526697e+02
166             	5.51737872e+02
167             	5.52055917e+02
168             	5.52161471e+02
169             	5.52454841e+02
170             	5.52549610e+02
171             	5.52662984e+02
172             	5.52753926e+02
173             	5.53049781e+02
174             	5.53108301e+02
175             	5.53289651e+02
176             	5.53354466e+02
177             	5.53508059e+02
178             	5.53566448e+02
179             	5.53736819e+02
180             	5.53741155e+02
181             	5.53864967e+02
182             	5.53841550e+02
183             	5.53944514e+02
184             	5.53922126e+02
185             	5.54011602e+02
186             	5.54014453e+02
187             	5.54174635e+02
188             	5.54166056e+02
189             	5.54320854e+02
190             	5.54316252e+02
191             	5.54457724e+02
192             	5.54442652e+02
193             	5.54587238e+02
194             	5.54562892e+02
195             	5.54697849e+02
196             	5.54671869e+02
197             	5.54814180e+02
198             	5.54782648e+02
199             	5.54935812e+02
200             	5.54885283e+02
201             	5.54993008e+02
202             	5.54935491e+02
203             	5.55026952e+02
204             	5.54970366e+02
205             	5.55054529e+02
206             	5.54985201e+02
207             	5.55059132e+02
208             	5.54983331e+02
209             	5.55055768e+02
210             	5.54991499e+02
211             	5.55090802e+02
212             	5.55032907e+02
213             	5.55129600e+02
214             	5.55097203e+02
215             	5.55232690e+02
216             	5.55210241e+02
217             	5.55339679e+02
218             	5.55328367e+02
219             	5.55489914e+02
220             	5.55476302e+02
221             	5.55623992e+02
222             	5.55604587e+02
223             	5.55750607e+02
224             	5.55715000e+02
225             	5.55848688e+02
226             	5.55797837e+02
227             	5.55911746e+02
228             	5.55851919e+02
229             	5.56000701e+02
230             	5.55925397e+02
231             	5.55997118e+02
232             	5.55919057e+02
233             	5.55993381e+02
234             	5.55912559e+02
235             	5.55985027e+02
236             	5.55901750e+02
237             	5.55982532e+02
238             	5.55903464e+02
239             	5.55983337e+02
240             	5.55910347e+02
241             	5.55998430e+02
242             	5.55930245e+02
243             	5.56036797e+02
244             	5.55970708e+02
245             	5.56073389e+02
246             	5.56011212e+02
247             	5.56118284e+02
248             	5.56060051e+02
249             	5.56175693e+02
250             	5.56118157e+02
251             	5.56229704e+02
252             	5.56171851e+02
253             	5.56286053e+02
254             	5.56223016e+02
255             	5.56334727e+02
256             	5.56265160e+02
257             	5.56365367e+02
258             	5.56292810e+02
259             	5.56391895e+02
260             	5.56312972e+02
261             	5.56400740e+02
262             	5.56322397e+02
263             	5.56413765e+02
264             	5.56334839e+02
265             	5.56418452e+02
266             	5.56337257e+02
267             	5.56420139e+02
268             	5.56341405e+02
269             	5.56414971e+02
270             	5.56338576e+02
271             	5.56429852e+02
272             	5.56354199e+02
273             	5.56436592e+02
274             	5.56364807e+02
275             	5.56463074e+02
276             	5.56391045e+02
277             	5.56482698e+02
278             	5.56408967e+02
279             	5.56498571e+02
280             	5.56422540e+02
281             	5.56517324e+02
282             	5.56436977e+02
283             	5.56525986e+02
284             	5.56440359e+02
285             	5.56519030e+02
286             	5.56433834e+02
287             	5.56518645e+02
288             	5.56432195e+02
289             	5.56511614e+02
290             	5.56427461e+02
291             	5.56506350e+02
292             	5.56426826e+02
293             	5.56524715e+02
294             	5.56446500e+02
295             	5.56540545e+02
296             	5.56463455e+02
297             	5.56557755e+02
298             	5.56480968e+02
299             	5.56569604e+02
300             	5.56492293e+02
301             	5.56587158e+02
302             	5.56511765e+02
303             	5.56605403e+02
304             	5.56531318e+02
305             	5.56623508e+02
306             	5.56553275e+02
307             	5.56656792e+02
308             	5.56584804e+02
309             	5.56683569e+02
310             	5.56608056e+02
311             	5.56703630e+02
312             	5.56624528e+02
313             	5.56719032e+02
314             	5.56638613e+02
315             	5.56726982e+02
316             	5.56646555e+02
317             	5.56731770e+02
318             	5.56650188e+02
319             	5.56740610e+02
320             	5.56656535e+02
321             	5.56740070e+02
322             	5.56654115e+02
323             	5.56736329e+02
324             	5.56650038e+02
325             	5.56737138e+02
326             	5.56651971e+02
327             	5.56734654e+02
328             	5.56649927e+02
329             	5.56730717e+02
330             	5.56646975e+02
331             	5.56738176e+02
332             	5.56655311e+02
333             	5.56739572e+02
334             	5.56658986e+02
335             	5.56743652e+02
336             	5.56663792e+02
337             	5.56756284e+02
338             	5.56676565e+02
339             	5.56761841e+02
340             	5.56682267e+02
341             	5.56767097e+02
342             	5.56688309e+02
343             	5.56780581e+02
344             	5.56699336e+02
345             	5.56783684e+02
346             	5.56700609e+02
347             	5.56784063e+02
348             	5.56699232e+02
349             	5.56785703e+02
350             	5.56700157e+02
351             	5.56779821e+02
352             	5.56693647e+02
353             	5.56772774e+02
354             	5.56685654e+02
355             	5.56772025e+02
356             	5.56685003e+02
357             	5.56766585e+02
358             	5.56680343e+02
359             	5.56760767e+02
360             	5.56676007e+02
361             	5.56765513e+02
362             	5.56681565e+02
363             	5.56765894e+02
364             	5.56682967e+02
365             	5.56766863e+02
366             	5.56685791e+02
367             	5.56777965e+02
368             	5.56697586e+02
369             	5.56785280e+02
370             	5.56705823e+02
371             	5.56793161e+02
372             	5.56714212e+02
373             	5.56809601e+02
374             	5.56730012e+02
375             	5.56819061e+02
376             	5.56739778e+02
377             	5.56829087e+02
378             	5.56749933e+02
379             	5.56845611e+02
380             	5.56765348e+02
381             	5.56854851e+02
382             	5.56774107e+02
383             	5.56859640e+02
384             	5.56778002e+02
385             	5.56868389e+02
386             	5.56785520e+02
387             	5.56869337e+02
388             	5.56785052e+02
389             	5.56864973e+02
390             	5.56779322e+02
391             	5.56865496e+02
392             	5.56780017e+02
393             	5.56862677e+02
394             	5.56775608e+02
395             	5.56855565e+02
396             	5.56768841e+02
397             	5.56845489e+02
398             	5.56757599e+02
399             	5.56840164e+02
400             	5.56751765e+02
401             	5.56827840e+02
402             	5.56740986e+02
403             	5.56817280e+02
404             	5.56731837e+02
405             	5.56817073e+02
406             	5.56732270e+02
407             	5.56814608e+02
408             	5.56729204e+02
409             	5.56809900e+02
410             	5.56725386e+02
411             	5.56813316e+02
412             	5.56728408e+02
413             	5.56809800e+02
414             	5.56727004e+02
415             	5.56810154e+02
416             	5.56728826e+02
417             	5.56819691e+02
418             	5.56738580e+02
419             	5.56824055e+02
420             	5.56742503e+02
421             	5.56827171e+02
422             	5.56745141e+02
423             	5.56835534e+02
424             	5.56754282e+02
425             	5.56839325e+02
426             	5.56759135e+02
427             	5.56843736e+02
428             	5.56763842e+02
429             	5.56856560e+02
430             	5.56775967e+02
431             	5.56864837e+02
432             	5.56782015e+02
433             	5.56867564e+02
434             	5.56784537e+02
435             	5.56865633e+02
436             	5.56782794e+02
437             	5.56871234e+02
438             	5.56788087e+02
439             	5.56871426e+02
440             	5.56787454e+02
441             	5.56867502e+02
442             	5.56782833e+02
443             	5.56870477e+02
444             	5.56784967e+02
445             	5.56869412e+02
446             	5.56781747e+02
447             	5.56862588e+02
448             	5.56775811e+02
449             	5.56853419e+02
450             	5.56766341e+02
451             	5.56850676e+02
452             	5.56763686e+02
453             	5.56841963e+02
454             	5.56755592e+02
455             	5.56832577e+02
456             	5.56747114e+02
457             	5.56832613e+02
458             	5.56747883e+02
459             	5.56832082e+02
460             	5.56745797e+02
461             	5.56826637e+02
462             	5.56741688e+02
463             	5.56819338e+02
464             	5.56734429e+02
465             	5.56819046e+02
466             	5.56734877e+02
467             	5.56814301e+02
468             	5.56731263e+02
469             	5.56810780e+02
470             	5.56728383e+02
471             	5.56817587e+02
472             	5.56736067e+02
473             	5.56823801e+02
474             	5.56741100e+02
475             	5.56826373e+02
476             	5.56745493e+02
477             	5.56829541e+02
478             	5.56748565e+02
479             	5.56838755e+02
480             	5.56757557e+02
481             	5.56842751e+02
482             	5.56761244e+02
483             	5.56844113e+02
484             	5.56762585e+02
485             	5.56853373e+02
486             	5.56772158e+02
487             	5.56860359e+02
488             	5.56777479e+02
489             	5.56863084e+02
490             	5.56780212e+02
491             	5.56860881e+02
492             	5.56777093e+02
493             	5.56863142e+02
494             	5.56778718e+02
495             	5.56858866e+02
496             	5.56774643e+02
497             	5.56853187e+02
498             	5.56769348e+02
499             	5.56856435e+02
500             	5.56772601e+02
501             	5.56857549e+02
502             	5.56771963e+02
503             	5.56854558e+02
504             	5.56769784e+02
505             	5.56849294e+02
506             	5.56764440e+02
507             	5.56850317e+02
508             	5.56765702e+02
509             	5.56846432e+02
510             	5.56761843e+02
511             	5.56840640e+02
512             	5.56756160e+02
513             	5.56842154e+02
514             	5.56758017e+02
515             	5.56842276e+02
516             	5.56757019e+02
517             	5.56838977e+02
518             	5.56755416e+02
519             	5.56835114e+02
520             	5.56751806e+02
521             	5.56837791e+02
522             	5.56754423e+02
523             	5.56834517e+02
524             	5.56750504e+02
525             	5.56827973e+02
526             	5.56744018e+02
527             	5.56829099e+02
528             	5.56745886e+02
529             	5.56828632e+02
530             	5.56744757e+02
531             	5.56827889e+02
532             	5.56745693e+02
533             	5.56826290e+02
534             	5.56744017e+02
535             	5.56831777e+02
536             	5.56748928e+02
537             	5.56830275e+02
538             	5.56747671e+02
539             	5.56827364e+02
540             	5.56745200e+02
541             	5.56833601e+02
542             	5.56752002e+02
543             	5.56838448e+02
544             	5.56755631e+02
545             	5.56840949e+02
546             	5.56759158e+02
547             	5.56841457e+02
548             	5.56759538e+02
549             	5.56848026e+02
550             	5.56766121e+02
551             	5.56848988e+02
552             	5.56767269e+02
553             	5.56848114e+02
554             	5.56766409e+02
555             	5.56855105e+02
556             	5.56773223e+02
557             	5.56858447e+02
558             	5.56774511e+02
559             	5.56856733e+02
560             	5.56773729e+02
561             	5.56852920e+02
562             	5.56769731e+02
563             	5.56855653e+02
564             	5.56772614e+02
565             	5.56853526e+02
566             	5.56770647e+02
567             	5.56850676e+02
568             	5.56767809e+02
569             	5.56854671e+02
570             	5.56771874e+02
571             	5.56856607e+02
572             	5.56771661e+02
573             	5.56853129e+02
574             	5.56768986e+02
575             	5.56846928e+02
576             	5.56763632e+02
577             	5.56849503e+02
578             	5.56765742e+02
579             	5.56845622e+02
580             	5.56762408e+02
581             	5.56841189e+02
582             	5.56758145e+02
583             	5.56845459e+02
584             	5.56762562e+02
585             	5.56846491e+02
586             	5.56762047e+02
587             	5.56842982e+02
588             	5.56759908e+02
589             	5.56838160e+02
590             	5.56754826e+02
591             	5.56838872e+02
592             	5.56755452e+02
593             	5.56834201e+02
594             	5.56750650e+02
595             	5.56828049e+02
596             	5.56744869e+02
597             	5.56830803e+02
598             	5.56748531e+02
599             	5.56832949e+02
600             	5.56749687e+02
601             	5.56832864e+02
602             	5.56750979e+02
603             	5.56831982e+02
604             	5.56750249e+02
605             	5.56838034e+02
606             	5.56756757e+02
607             	5.56839600e+02
608             	5.56758529e+02
609             	5.56840430e+02
610             	5.56759029e+02
611             	5.56848168e+02
612             	5.56766929e+02
613             	5.56853083e+02
614             	5.56769726e+02
615             	5.56852568e+02
616             	5.56770283e+02
617             	5.56850158e+02
618             	5.56767334e+02
619             	5.56853040e+02
620             	5.56770383e+02
621             	5.56850281e+02
