# Region        : cellZone component_2
# Cells         : 120
# Volume        : 1.05786147e-01
# Time          	volAverage(T)
1               	3.02775807e+02
2               	3.05511978e+02
3               	3.08004168e+02
4               	3.10332260e+02
5               	3.12569502e+02
6               	3.14741031e+02
7               	3.16854558e+02
8               	3.18913910e+02
9               	3.20929310e+02
10              	3.22903590e+02
11              	3.24846825e+02
12              	3.26744096e+02
13              	3.28608373e+02
14              	3.30451131e+02
15              	3.32262437e+02
16              	3.34032624e+02
17              	3.35777378e+02
18              	3.37462499e+02
19              	3.39102247e+02
20              	3.40741171e+02
21              	3.42340317e+02
22              	3.43875710e+02
23              	3.45355888e+02
24              	3.46769190e+02
25              	3.48125677e+02
26              	3.49420000e+02
27              	3.50700631e+02
28              	3.51960072e+02
29              	3.53200739e+02
30              	3.54433066e+02
31              	3.55660258e+02
32              	3.56884790e+02
33              	3.58063860e+02
34              	3.59206892e+02
35              	3.60327951e+02
36              	3.61417539e+02
37              	3.62480527e+02
38              	3.63513263e+02
39              	3.64553758e+02
40              	3.65594948e+02
41              	3.66648060e+02
42              	3.67703493e+02
43              	3.68772098e+02
44              	3.69823077e+02
45              	3.70855058e+02
46              	3.71862724e+02
47              	3.72843057e+02
48              	3.73794150e+02
49              	3.74730634e+02
50              	3.75628590e+02
51              	3.76482913e+02
52              	3.77284727e+02
53              	3.78028564e+02
54              	3.78779873e+02
55              	3.79537697e+02
56              	3.80324296e+02
57              	3.81115786e+02
58              	3.81921252e+02
59              	3.82728921e+02
60              	3.83518043e+02
61              	3.84280524e+02
62              	3.85020623e+02
63              	3.85723157e+02
64              	3.86381822e+02
65              	3.87001495e+02
66              	3.87599429e+02
67              	3.88193703e+02
68              	3.88798294e+02
69              	3.89396117e+02
70              	3.89996209e+02
71              	3.90602482e+02
72              	3.91215916e+02
73              	3.91826639e+02
74              	3.92430250e+02
75              	3.93017381e+02
76              	3.93581619e+02
77              	3.94141824e+02
78              	3.94680847e+02
79              	3.95215779e+02
80              	3.95727877e+02
81              	3.96200470e+02
82              	3.96657831e+02
83              	3.97134519e+02
84              	3.97610571e+02
85              	3.98107022e+02
86              	3.98629130e+02
87              	3.99144872e+02
88              	3.99666827e+02
89              	4.00194391e+02
90              	4.00712827e+02
91              	4.01210418e+02
92              	4.01685568e+02
93              	4.02148225e+02
94              	4.02614344e+02
95              	4.03075915e+02
96              	4.03544059e+02
97              	4.03990962e+02
98              	4.04432914e+02
99              	4.04850746e+02
100             	4.05262086e+02
101             	4.05670110e+02
102             	4.06055667e+02
103             	4.06415449e+02
104             	4.06763428e+02
105             	4.07101387e+02
106             	4.07420169e+02
107             	4.07718870e+02
108             	4.07996510e+02
109             	4.08267608e+02
110             	4.08545251e+02
111             	4.08835348e+02
112             	4.09141519e+02
113             	4.09469114e+02
114             	4.09804605e+02
115             	4.10140727e+02
116             	4.10468467e+02
117             	4.10783017e+02
118             	4.11087412e+02
119             	4.11378368e+02
120             	4.11662221e+02
121             	4.11946636e+02
122             	4.12226139e+02
123             	4.12511789e+02
124             	4.12802885e+02
125             	4.13094708e+02
126             	4.13380829e+02
127             	4.13653900e+02
128             	4.13908403e+02
129             	4.14145317e+02
130             	4.14362649e+02
131             	4.14553779e+02
132             	4.14704252e+02
133             	4.14840389e+02
134             	4.14959511e+02
135             	4.15089163e+02
136             	4.15245947e+02
137             	4.15427419e+02
138             	4.15636552e+02
139             	4.15866451e+02
140             	4.16110810e+02
141             	4.16359534e+02
142             	4.16604555e+02
143             	4.16836900e+02
144             	4.17031964e+02
145             	4.17212365e+02
146             	4.17378086e+02
147             	4.17542851e+02
148             	4.17709757e+02
149             	4.17884939e+02
150             	4.18067718e+02
151             	4.18262770e+02
152             	4.18467930e+02
153             	4.18680571e+02
154             	4.18855289e+02
155             	4.19030242e+02
156             	4.19192614e+02
157             	4.19339013e+02
158             	4.19470757e+02
159             	4.19569362e+02
160             	4.19680910e+02
161             	4.19794221e+02
162             	4.19907758e+02
163             	4.20031320e+02
164             	4.20155411e+02
165             	4.20286428e+02
166             	4.20422158e+02
167             	4.20561701e+02
168             	4.20702311e+02
169             	4.20845036e+02
170             	4.20987709e+02
171             	4.21107276e+02
172             	4.21231554e+02
173             	4.21357878e+02
174             	4.21478058e+02
175             	4.21600103e+02
176             	4.21723777e+02
177             	4.21848302e+02
178             	4.21973620e+02
179             	4.22101403e+02
180             	4.22229251e+02
181             	4.22356011e+02
182             	4.22472106e+02
183             	4.22584664e+02
184             	4.22685624e+02
185             	4.22777869e+02
186             	4.22839001e+02
187             	4.22921944e+02
188             	4.23011982e+02
189             	4.23101554e+02
190             	4.23198366e+02
191             	4.23303598e+02
192             	4.23414186e+02
193             	4.23515075e+02
194             	4.23612826e+02
195             	4.23707806e+02
196             	4.23797525e+02
197             	4.23881587e+02
198             	4.23957333e+02
199             	4.24029120e+02
200             	4.24102599e+02
201             	4.24174354e+02
202             	4.24244401e+02
203             	4.24310867e+02
204             	4.24377298e+02
205             	4.24445087e+02
206             	4.24510836e+02
207             	4.24575787e+02
208             	4.24640204e+02
209             	4.24696372e+02
210             	4.24749830e+02
211             	4.24803700e+02
212             	4.24859915e+02
213             	4.24917922e+02
214             	4.24979109e+02
215             	4.25044968e+02
216             	4.25114220e+02
217             	4.25170764e+02
218             	4.25230451e+02
219             	4.25294683e+02
220             	4.25361313e+02
221             	4.25427521e+02
222             	4.25489770e+02
223             	4.25548947e+02
224             	4.25606037e+02
225             	4.25660754e+02
226             	4.25705883e+02
227             	4.25750064e+02
228             	4.25791383e+02
229             	4.25831180e+02
230             	4.25874902e+02
231             	4.25918069e+02
232             	4.25961771e+02
233             	4.26007579e+02
234             	4.26055196e+02
235             	4.26105770e+02
236             	4.26155584e+02
237             	4.26206225e+02
238             	4.26257532e+02
239             	4.26307467e+02
240             	4.26355107e+02
241             	4.26401440e+02
242             	4.26449411e+02
243             	4.26496247e+02
244             	4.26545259e+02
245             	4.26595752e+02
246             	4.26647710e+02
247             	4.26699876e+02
248             	4.26750708e+02
249             	4.26796844e+02
250             	4.26842185e+02
251             	4.26881501e+02
252             	4.26915045e+02
253             	4.26943189e+02
254             	4.26970570e+02
255             	4.26990208e+02
256             	4.27011612e+02
257             	4.27038668e+02
258             	4.27073000e+02
259             	4.27110568e+02
260             	4.27144376e+02
261             	4.27183172e+02
262             	4.27223880e+02
263             	4.27262976e+02
264             	4.27299564e+02
265             	4.27331563e+02
266             	4.27364241e+02
267             	4.27393515e+02
268             	4.27420574e+02
269             	4.27451026e+02
270             	4.27473281e+02
271             	4.27497351e+02
272             	4.27525071e+02
273             	4.27555557e+02
274             	4.27585009e+02
275             	4.27612752e+02
276             	4.27639276e+02
277             	4.27660685e+02
278             	4.27678125e+02
279             	4.27691560e+02
280             	4.27704402e+02
281             	4.27719820e+02
282             	4.27735921e+02
283             	4.27754037e+02
284             	4.27774787e+02
285             	4.27797378e+02
286             	4.27824243e+02
287             	4.27852908e+02
288             	4.27881748e+02
289             	4.27910407e+02
290             	4.27937180e+02
291             	4.27961633e+02
292             	4.27984144e+02
293             	4.28004513e+02
294             	4.28020640e+02
295             	4.28035600e+02
296             	4.28050674e+02
297             	4.28068126e+02
298             	4.28086183e+02
299             	4.28103812e+02
300             	4.28120446e+02
301             	4.28134330e+02
302             	4.28145692e+02
303             	4.28156555e+02
304             	4.28166081e+02
305             	4.28178111e+02
306             	4.28192055e+02
307             	4.28207139e+02
308             	4.28223316e+02
309             	4.28241926e+02
310             	4.28263534e+02
311             	4.28287403e+02
312             	4.28309870e+02
313             	4.28331448e+02
314             	4.28351309e+02
315             	4.28367761e+02
316             	4.28383723e+02
317             	4.28396535e+02
318             	4.28406583e+02
319             	4.28415035e+02
320             	4.28423886e+02
321             	4.28432931e+02
322             	4.28442463e+02
323             	4.28452927e+02
324             	4.28463798e+02
325             	4.28474686e+02
326             	4.28485842e+02
327             	4.28496421e+02
328             	4.28507837e+02
329             	4.28517716e+02
330             	4.28526986e+02
331             	4.28536745e+02
332             	4.28546171e+02
333             	4.28555652e+02
334             	4.28565390e+02
335             	4.28575628e+02
336             	4.28586242e+02
337             	4.28596411e+02
338             	4.28606878e+02
339             	4.28617543e+02
340             	4.28627654e+02
341             	4.28639451e+02
342             	4.28651635e+02
343             	4.28664234e+02
344             	4.28677974e+02
345             	4.28692685e+02
346             	4.28707704e+02
347             	4.28722721e+02
348             	4.28737296e+02
349             	4.28750925e+02
350             	4.28763453e+02
351             	4.28773514e+02
352             	4.28781398e+02
353             	4.28787702e+02
354             	4.28792381e+02
355             	4.28795967e+02
356             	4.28801068e+02
357             	4.28806292e+02
358             	4.28813838e+02
359             	4.28823413e+02
360             	4.28834092e+02
361             	4.28844204e+02
362             	4.28856470e+02
363             	4.28867954e+02
364             	4.28879258e+02
365             	4.28888284e+02
366             	4.28896545e+02
367             	4.28903888e+02
368             	4.28910249e+02
369             	4.28916384e+02
370             	4.28922905e+02
371             	4.28930001e+02
372             	4.28937544e+02
373             	4.28943351e+02
374             	4.28950633e+02
375             	4.28958030e+02
376             	4.28965652e+02
377             	4.28971574e+02
378             	4.28977463e+02
379             	4.28981980e+02
380             	4.28985772e+02
381             	4.28990070e+02
382             	4.28994775e+02
383             	4.28999977e+02
384             	4.29006941e+02
385             	4.29015408e+02
386             	4.29025146e+02
387             	4.29034278e+02
388             	4.29044814e+02
389             	4.29054870e+02
390             	4.29063396e+02
391             	4.29070376e+02
392             	4.29075860e+02
393             	4.29080030e+02
394             	4.29083185e+02
395             	4.29085448e+02
396             	4.29086929e+02
397             	4.29088884e+02
398             	4.29090317e+02
399             	4.29091646e+02
400             	4.29093569e+02
401             	4.29095043e+02
402             	4.29096916e+02
403             	4.29098797e+02
404             	4.29100523e+02
405             	4.29102621e+02
406             	4.29104885e+02
407             	4.29108035e+02
408             	4.29110660e+02
409             	4.29113804e+02
410             	4.29116793e+02
411             	4.29120124e+02
412             	4.29123781e+02
413             	4.29127660e+02
414             	4.29131005e+02
415             	4.29134958e+02
416             	4.29139523e+02
417             	4.29144595e+02
418             	4.29149926e+02
419             	4.29154846e+02
420             	4.29159568e+02
421             	4.29164464e+02
422             	4.29168989e+02
423             	4.29173012e+02
424             	4.29176629e+02
425             	4.29180002e+02
426             	4.29183258e+02
427             	4.29186351e+02
428             	4.29189082e+02
429             	4.29190853e+02
430             	4.29192047e+02
431             	4.29192692e+02
432             	4.29192942e+02
433             	4.29193631e+02
434             	4.29194055e+02
435             	4.29195070e+02
436             	4.29197058e+02
437             	4.29200135e+02
438             	4.29203439e+02
439             	4.29207470e+02
440             	4.29211316e+02
441             	4.29214625e+02
442             	4.29217313e+02
443             	4.29219376e+02
444             	4.29221482e+02
445             	4.29223579e+02
446             	4.29225526e+02
447             	4.29227178e+02
448             	4.29228523e+02
449             	4.29229528e+02
450             	4.29230392e+02
451             	4.29231127e+02
452             	4.29232048e+02
453             	4.29233335e+02
454             	4.29234714e+02
455             	4.29236472e+02
456             	4.29238449e+02
457             	4.29240332e+02
458             	4.29242102e+02
459             	4.29243199e+02
460             	4.29243961e+02
461             	4.29244451e+02
462             	4.29244891e+02
463             	4.29245555e+02
464             	4.29246503e+02
465             	4.29247213e+02
466             	4.29248693e+02
467             	4.29251797e+02
468             	4.29255954e+02
469             	4.29260695e+02
470             	4.29265174e+02
471             	4.29269923e+02
472             	4.29274288e+02
473             	4.29277877e+02
474             	4.29280702e+02
475             	4.29282554e+02
476             	4.29283381e+02
477             	4.29283897e+02
478             	4.29284474e+02
479             	4.29285421e+02
480             	4.29286794e+02
481             	4.29288694e+02
482             	4.29291088e+02
483             	4.29293657e+02
484             	4.29296427e+02
485             	4.29298869e+02
486             	4.29300735e+02
487             	4.29301785e+02
488             	4.29302150e+02
489             	4.29302530e+02
490             	4.29302173e+02
491             	4.29301854e+02
492             	4.29301852e+02
493             	4.29302157e+02
494             	4.29303029e+02
495             	4.29304620e+02
496             	4.29306359e+02
497             	4.29308422e+02
498             	4.29310646e+02
499             	4.29312482e+02
500             	4.29314694e+02
501             	4.29316736e+02
502             	4.29318235e+02
503             	4.29319004e+02
504             	4.29319497e+02
505             	4.29319903e+02
506             	4.29320016e+02
507             	4.29319934e+02
508             	4.29319730e+02
509             	4.29319586e+02
510             	4.29319027e+02
511             	4.29318445e+02
512             	4.29318105e+02
513             	4.29317850e+02
514             	4.29317830e+02
515             	4.29318019e+02
516             	4.29318584e+02
517             	4.29319530e+02
518             	4.29320762e+02
519             	4.29322274e+02
520             	4.29323864e+02
521             	4.29325714e+02
522             	4.29327996e+02
523             	4.29330180e+02
524             	4.29331835e+02
525             	4.29333276e+02
526             	4.29334650e+02
527             	4.29336003e+02
528             	4.29336965e+02
529             	4.29337446e+02
530             	4.29338036e+02
531             	4.29337921e+02
532             	4.29337363e+02
533             	4.29336845e+02
534             	4.29336238e+02
535             	4.29335658e+02
536             	4.29335230e+02
537             	4.29334559e+02
538             	4.29334038e+02
539             	4.29333843e+02
540             	4.29333982e+02
541             	4.29334297e+02
542             	4.29334565e+02
543             	4.29335879e+02
544             	4.29337367e+02
545             	4.29339052e+02
546             	4.29340993e+02
547             	4.29343080e+02
548             	4.29344914e+02
549             	4.29346590e+02
550             	4.29347877e+02
551             	4.29348681e+02
552             	4.29349386e+02
553             	4.29349259e+02
554             	4.29348466e+02
555             	4.29347617e+02
556             	4.29347400e+02
557             	4.29347500e+02
558             	4.29348311e+02
559             	4.29349434e+02
560             	4.29350468e+02
561             	4.29351821e+02
562             	4.29353248e+02
563             	4.29354589e+02
564             	4.29355929e+02
565             	4.29356872e+02
566             	4.29357240e+02
567             	4.29357094e+02
568             	4.29356711e+02
569             	4.29356281e+02
570             	4.29356190e+02
571             	4.29355924e+02
572             	4.29355630e+02
573             	4.29355530e+02
574             	4.29355642e+02
575             	4.29355373e+02
576             	4.29355026e+02
577             	4.29354677e+02
578             	4.29354144e+02
579             	4.29353566e+02
580             	4.29353064e+02
581             	4.29352792e+02
582             	4.29352729e+02
583             	4.29352881e+02
584             	4.29353279e+02
585             	4.29353876e+02
586             	4.29354731e+02
587             	4.29355669e+02
588             	4.29356724e+02
589             	4.29357764e+02
590             	4.29358748e+02
591             	4.29359565e+02
592             	4.29360463e+02
593             	4.29361305e+02
594             	4.29362128e+02
595             	4.29362863e+02
596             	4.29363531e+02
597             	4.29364127e+02
598             	4.29364609e+02
599             	4.29364889e+02
600             	4.29364976e+02
601             	4.29364702e+02
602             	4.29364071e+02
603             	4.29363354e+02
604             	4.29362840e+02
605             	4.29362341e+02
606             	4.29362175e+02
607             	4.29362392e+02
608             	4.29362794e+02
609             	4.29363472e+02
610             	4.29364470e+02
611             	4.29365544e+02
612             	4.29366489e+02
613             	4.29367550e+02
614             	4.29368317e+02
615             	4.29368456e+02
616             	4.29368324e+02
617             	4.29368173e+02
618             	4.29368000e+02
619             	4.29367878e+02
620             	4.29367677e+02
621             	4.29367598e+02
