# Region        : cellZone component_2
# Cells         : 180
# Volume        : 3.44401764e-01
# Time          	volAverage(T)
1               	3.00889985e+02
2               	3.01771955e+02
3               	3.02601455e+02
4               	3.03393269e+02
5               	3.04162170e+02
6               	3.04913722e+02
7               	3.05650392e+02
8               	3.06374198e+02
9               	3.07088299e+02
10              	3.07794840e+02
11              	3.08494431e+02
12              	3.09185003e+02
13              	3.09861630e+02
14              	3.10530273e+02
15              	3.11192044e+02
16              	3.11842082e+02
17              	3.12482023e+02
18              	3.13099787e+02
19              	3.13701822e+02
20              	3.14277752e+02
21              	3.14823845e+02
22              	3.15353204e+02
23              	3.15913000e+02
24              	3.16464876e+02
25              	3.17003670e+02
26              	3.17529275e+02
27              	3.18049654e+02
28              	3.18562069e+02
29              	3.19060283e+02
30              	3.19541005e+02
31              	3.20015235e+02
32              	3.20460376e+02
33              	3.20894874e+02
34              	3.21303851e+02
35              	3.21722302e+02
36              	3.22096192e+02
37              	3.22460789e+02
38              	3.22811761e+02
39              	3.23162766e+02
40              	3.23543713e+02
41              	3.23954814e+02
42              	3.24355756e+02
43              	3.24737656e+02
44              	3.25096212e+02
45              	3.25440758e+02
46              	3.25767107e+02
47              	3.26082772e+02
48              	3.26393948e+02
49              	3.26704889e+02
50              	3.27010591e+02
51              	3.27322117e+02
52              	3.27644568e+02
53              	3.27957547e+02
54              	3.28226658e+02
55              	3.28478866e+02
56              	3.28743734e+02
57              	3.29014112e+02
58              	3.29275780e+02
59              	3.29546212e+02
60              	3.29799375e+02
61              	3.30040522e+02
62              	3.30264812e+02
63              	3.30475793e+02
64              	3.30661825e+02
65              	3.30841377e+02
66              	3.31025536e+02
67              	3.31208744e+02
68              	3.31403255e+02
69              	3.31613674e+02
70              	3.31794892e+02
71              	3.31959528e+02
72              	3.32072261e+02
73              	3.32189765e+02
74              	3.32311453e+02
75              	3.32460675e+02
76              	3.32612783e+02
77              	3.32754665e+02
78              	3.32888510e+02
79              	3.33015513e+02
80              	3.33138645e+02
81              	3.33208745e+02
82              	3.33280355e+02
83              	3.33359053e+02
84              	3.33438648e+02
85              	3.33518453e+02
86              	3.33600017e+02
87              	3.33680411e+02
88              	3.33757728e+02
89              	3.33834556e+02
90              	3.33907764e+02
91              	3.33982802e+02
92              	3.34055603e+02
93              	3.34129492e+02
94              	3.34202456e+02
95              	3.34278647e+02
96              	3.34354591e+02
97              	3.34433726e+02
98              	3.34512024e+02
99              	3.34592190e+02
100             	3.34671233e+02
101             	3.34747736e+02
102             	3.34822947e+02
103             	3.34934666e+02
104             	3.35059155e+02
105             	3.35183933e+02
106             	3.35306749e+02
107             	3.35425489e+02
108             	3.35544828e+02
109             	3.35668937e+02
110             	3.35810358e+02
111             	3.35975734e+02
112             	3.36155416e+02
113             	3.36350726e+02
114             	3.36536285e+02
115             	3.36728286e+02
116             	3.36907917e+02
117             	3.37085869e+02
118             	3.37259044e+02
119             	3.37425451e+02
120             	3.37588118e+02
121             	3.37746689e+02
122             	3.37901508e+02
123             	3.38056849e+02
124             	3.38214503e+02
125             	3.38375749e+02
126             	3.38539306e+02
127             	3.38704939e+02
128             	3.38872384e+02
129             	3.39039921e+02
130             	3.39206819e+02
131             	3.39373851e+02
132             	3.39539865e+02
133             	3.39702685e+02
134             	3.39863913e+02
135             	3.40023714e+02
136             	3.40181044e+02
137             	3.40334414e+02
138             	3.40485018e+02
139             	3.40634199e+02
140             	3.40783193e+02
141             	3.40937904e+02
142             	3.41093160e+02
143             	3.41247512e+02
144             	3.41393400e+02
145             	3.41533424e+02
146             	3.41661286e+02
147             	3.41775381e+02
148             	3.41875300e+02
149             	3.41962845e+02
150             	3.42039454e+02
151             	3.42107877e+02
152             	3.42170656e+02
153             	3.42225233e+02
154             	3.42279980e+02
155             	3.42328703e+02
156             	3.42373181e+02
157             	3.42411169e+02
158             	3.42440807e+02
159             	3.42463998e+02
160             	3.42479824e+02
161             	3.42485443e+02
162             	3.42479529e+02
163             	3.42468228e+02
164             	3.42451440e+02
165             	3.42429786e+02
166             	3.42403757e+02
167             	3.42374222e+02
168             	3.42343533e+02
169             	3.42314015e+02
170             	3.42289957e+02
171             	3.42267276e+02
172             	3.42244218e+02
173             	3.42223589e+02
174             	3.42209154e+02
175             	3.42200497e+02
176             	3.42194720e+02
177             	3.42195008e+02
178             	3.42199455e+02
179             	3.42207860e+02
180             	3.42220780e+02
181             	3.42239122e+02
182             	3.42263322e+02
183             	3.42291193e+02
184             	3.42324304e+02
185             	3.42363086e+02
186             	3.42407735e+02
187             	3.42458223e+02
188             	3.42511890e+02
189             	3.42570384e+02
190             	3.42634965e+02
191             	3.42703803e+02
192             	3.42774727e+02
193             	3.42846410e+02
194             	3.42916819e+02
195             	3.42984645e+02
196             	3.43050255e+02
197             	3.43109802e+02
198             	3.43165076e+02
199             	3.43214575e+02
200             	3.43257728e+02
201             	3.43293931e+02
202             	3.43322953e+02
203             	3.43344806e+02
204             	3.43360166e+02
205             	3.43370263e+02
206             	3.43376499e+02
207             	3.43377038e+02
208             	3.43375671e+02
209             	3.43372080e+02
210             	3.43363294e+02
211             	3.43351988e+02
212             	3.43340200e+02
213             	3.43327741e+02
214             	3.43314574e+02
215             	3.43301309e+02
216             	3.43289801e+02
217             	3.43277011e+02
218             	3.43267360e+02
219             	3.43258107e+02
220             	3.43250546e+02
221             	3.43246194e+02
222             	3.43244726e+02
223             	3.43247997e+02
224             	3.43256033e+02
225             	3.43268817e+02
226             	3.43285553e+02
227             	3.43305030e+02
228             	3.43327891e+02
229             	3.43353978e+02
230             	3.43381904e+02
231             	3.43411892e+02
232             	3.43443931e+02
233             	3.43477575e+02
234             	3.43512430e+02
235             	3.43548227e+02
236             	3.43584662e+02
237             	3.43617655e+02
238             	3.43651770e+02
239             	3.43686048e+02
240             	3.43719884e+02
241             	3.43750226e+02
242             	3.43781436e+02
243             	3.43810137e+02
244             	3.43836005e+02
245             	3.43860852e+02
246             	3.43884055e+02
247             	3.43905764e+02
248             	3.43926187e+02
249             	3.43945162e+02
250             	3.43963399e+02
251             	3.43980424e+02
252             	3.43996354e+02
253             	3.44011219e+02
254             	3.44025078e+02
255             	3.44037826e+02
256             	3.44050532e+02
257             	3.44061506e+02
258             	3.44071950e+02
259             	3.44081084e+02
260             	3.44088983e+02
261             	3.44097174e+02
262             	3.44105587e+02
263             	3.44113454e+02
264             	3.44121831e+02
265             	3.44130519e+02
266             	3.44139558e+02
267             	3.44148862e+02
268             	3.44158415e+02
269             	3.44168003e+02
270             	3.44177903e+02
271             	3.44186474e+02
272             	3.44194947e+02
273             	3.44203633e+02
274             	3.44210266e+02
275             	3.44217744e+02
276             	3.44226392e+02
277             	3.44234165e+02
278             	3.44242296e+02
279             	3.44250410e+02
280             	3.44258177e+02
281             	3.44265602e+02
282             	3.44273478e+02
283             	3.44280943e+02
284             	3.44288199e+02
285             	3.44296485e+02
286             	3.44304913e+02
287             	3.44313955e+02
288             	3.44323887e+02
289             	3.44334970e+02
290             	3.44346365e+02
291             	3.44358598e+02
292             	3.44372111e+02
293             	3.44386107e+02
294             	3.44400276e+02
295             	3.44415131e+02
296             	3.44430798e+02
297             	3.44446943e+02
298             	3.44463983e+02
299             	3.44481617e+02
300             	3.44499722e+02
301             	3.44517808e+02
302             	3.44536502e+02
303             	3.44554922e+02
304             	3.44574127e+02
305             	3.44592004e+02
306             	3.44609282e+02
307             	3.44626352e+02
308             	3.44642511e+02
309             	3.44657803e+02
310             	3.44670299e+02
311             	3.44682152e+02
312             	3.44692939e+02
313             	3.44703157e+02
314             	3.44711862e+02
315             	3.44719103e+02
316             	3.44724889e+02
317             	3.44729189e+02
318             	3.44731196e+02
319             	3.44732592e+02
320             	3.44733142e+02
321             	3.44732964e+02
322             	3.44733553e+02
323             	3.44733826e+02
324             	3.44734286e+02
325             	3.44735277e+02
326             	3.44736797e+02
327             	3.44738846e+02
328             	3.44741318e+02
329             	3.44744178e+02
330             	3.44747935e+02
331             	3.44752304e+02
332             	3.44757262e+02
333             	3.44762787e+02
334             	3.44769278e+02
335             	3.44777011e+02
336             	3.44785997e+02
337             	3.44796390e+02
338             	3.44808321e+02
339             	3.44820507e+02
340             	3.44833156e+02
341             	3.44846169e+02
342             	3.44859526e+02
343             	3.44872839e+02
344             	3.44886241e+02
345             	3.44899268e+02
346             	3.44911965e+02
347             	3.44924588e+02
348             	3.44936561e+02
349             	3.44947936e+02
350             	3.44958935e+02
351             	3.44969247e+02
352             	3.44978963e+02
353             	3.44987667e+02
354             	3.44993962e+02
355             	3.44999673e+02
356             	3.45004233e+02
357             	3.45008063e+02
358             	3.45010560e+02
359             	3.45012059e+02
360             	3.45012639e+02
361             	3.45012391e+02
362             	3.45011286e+02
363             	3.45009473e+02
364             	3.45007021e+02
365             	3.45004292e+02
366             	3.45001610e+02
367             	3.44998987e+02
368             	3.44997363e+02
369             	3.44996200e+02
370             	3.44995725e+02
371             	3.44996087e+02
372             	3.44997211e+02
373             	3.44998483e+02
374             	3.45000945e+02
375             	3.45004547e+02
376             	3.45008941e+02
377             	3.45014226e+02
378             	3.45021044e+02
379             	3.45028726e+02
380             	3.45037576e+02
381             	3.45046592e+02
382             	3.45055771e+02
383             	3.45064598e+02
384             	3.45074286e+02
385             	3.45084230e+02
386             	3.45093712e+02
387             	3.45102980e+02
388             	3.45111750e+02
389             	3.45120221e+02
390             	3.45128807e+02
391             	3.45137717e+02
392             	3.45146377e+02
393             	3.45153958e+02
394             	3.45160854e+02
395             	3.45166175e+02
396             	3.45170174e+02
397             	3.45173753e+02
398             	3.45176611e+02
399             	3.45178804e+02
400             	3.45180464e+02
401             	3.45181558e+02
402             	3.45182063e+02
403             	3.45182873e+02
404             	3.45183046e+02
405             	3.45182829e+02
406             	3.45182303e+02
407             	3.45181431e+02
408             	3.45180587e+02
409             	3.45180156e+02
410             	3.45180287e+02
411             	3.45179722e+02
412             	3.45179711e+02
413             	3.45180023e+02
414             	3.45180621e+02
415             	3.45181370e+02
416             	3.45182259e+02
417             	3.45183263e+02
418             	3.45184338e+02
419             	3.45185570e+02
420             	3.45187339e+02
421             	3.45189303e+02
422             	3.45191520e+02
423             	3.45194200e+02
424             	3.45197435e+02
425             	3.45201197e+02
426             	3.45204825e+02
427             	3.45208501e+02
428             	3.45212468e+02
429             	3.45216457e+02
430             	3.45220558e+02
431             	3.45224719e+02
432             	3.45228768e+02
433             	3.45232511e+02
434             	3.45236182e+02
435             	3.45239959e+02
436             	3.45243762e+02
437             	3.45247727e+02
438             	3.45251756e+02
439             	3.45255922e+02
440             	3.45260172e+02
441             	3.45264446e+02
442             	3.45268514e+02
443             	3.45271682e+02
444             	3.45275075e+02
445             	3.45278121e+02
446             	3.45280940e+02
447             	3.45283211e+02
448             	3.45285866e+02
449             	3.45288002e+02
450             	3.45289862e+02
451             	3.45291853e+02
452             	3.45294280e+02
453             	3.45296680e+02
454             	3.45298892e+02
455             	3.45301411e+02
456             	3.45303832e+02
457             	3.45306177e+02
458             	3.45307559e+02
459             	3.45308342e+02
460             	3.45308952e+02
461             	3.45309336e+02
462             	3.45309410e+02
463             	3.45309192e+02
464             	3.45308714e+02
465             	3.45308133e+02
466             	3.45307528e+02
467             	3.45307254e+02
468             	3.45307712e+02
469             	3.45308826e+02
470             	3.45309771e+02
471             	3.45310664e+02
472             	3.45311578e+02
473             	3.45312444e+02
474             	3.45313592e+02
475             	3.45314937e+02
476             	3.45316359e+02
477             	3.45317823e+02
478             	3.45319325e+02
479             	3.45320850e+02
480             	3.45322435e+02
481             	3.45324079e+02
482             	3.45325943e+02
483             	3.45327934e+02
484             	3.45329928e+02
485             	3.45332715e+02
486             	3.45335090e+02
487             	3.45337357e+02
488             	3.45339541e+02
489             	3.45341624e+02
490             	3.45343607e+02
491             	3.45345333e+02
492             	3.45346904e+02
493             	3.45348282e+02
494             	3.45349460e+02
495             	3.45350478e+02
496             	3.45351325e+02
497             	3.45352020e+02
498             	3.45352716e+02
499             	3.45353598e+02
500             	3.45354328e+02
501             	3.45355126e+02
502             	3.45355847e+02
503             	3.45356606e+02
504             	3.45357412e+02
505             	3.45358292e+02
506             	3.45359216e+02
507             	3.45360201e+02
508             	3.45361278e+02
509             	3.45362438e+02
510             	3.45363623e+02
511             	3.45364893e+02
512             	3.45366229e+02
513             	3.45367822e+02
514             	3.45369579e+02
515             	3.45371275e+02
516             	3.45373083e+02
517             	3.45374964e+02
518             	3.45377017e+02
519             	3.45378979e+02
520             	3.45381093e+02
521             	3.45383020e+02
522             	3.45384794e+02
523             	3.45386446e+02
524             	3.45387863e+02
525             	3.45389151e+02
526             	3.45390413e+02
527             	3.45391545e+02
528             	3.45392408e+02
529             	3.45393176e+02
530             	3.45393820e+02
531             	3.45394326e+02
532             	3.45394726e+02
533             	3.45395317e+02
534             	3.45395737e+02
535             	3.45396245e+02
536             	3.45396640e+02
537             	3.45396907e+02
538             	3.45397179e+02
539             	3.45397557e+02
540             	3.45397998e+02
541             	3.45398477e+02
542             	3.45398914e+02
543             	3.45399422e+02
544             	3.45399949e+02
545             	3.45400523e+02
546             	3.45401104e+02
547             	3.45401672e+02
548             	3.45402250e+02
549             	3.45402843e+02
550             	3.45403476e+02
551             	3.45404113e+02
552             	3.45404728e+02
553             	3.45405333e+02
554             	3.45405913e+02
555             	3.45406466e+02
556             	3.45407001e+02
557             	3.45407565e+02
558             	3.45408122e+02
559             	3.45408674e+02
560             	3.45409226e+02
561             	3.45409780e+02
562             	3.45410386e+02
563             	3.45411035e+02
564             	3.45411743e+02
565             	3.45412517e+02
566             	3.45413347e+02
567             	3.45414322e+02
568             	3.45415372e+02
569             	3.45416487e+02
570             	3.45417663e+02
571             	3.45418904e+02
572             	3.45420250e+02
573             	3.45421454e+02
574             	3.45422734e+02
575             	3.45424047e+02
576             	3.45425342e+02
577             	3.45426692e+02
578             	3.45428103e+02
579             	3.45429503e+02
580             	3.45430914e+02
581             	3.45432238e+02
582             	3.45433462e+02
583             	3.45434587e+02
584             	3.45435522e+02
585             	3.45436361e+02
586             	3.45437125e+02
587             	3.45437764e+02
588             	3.45438320e+02
589             	3.45438710e+02
590             	3.45439069e+02
591             	3.45439279e+02
592             	3.45439378e+02
593             	3.45439365e+02
594             	3.45439239e+02
595             	3.45438938e+02
596             	3.45438622e+02
597             	3.45438284e+02
598             	3.45437911e+02
599             	3.45437520e+02
600             	3.45437118e+02
601             	3.45436846e+02
602             	3.45436559e+02
603             	3.45436288e+02
604             	3.45436074e+02
605             	3.45435909e+02
606             	3.45435803e+02
607             	3.45435768e+02
608             	3.45435826e+02
609             	3.45435983e+02
610             	3.45436248e+02
611             	3.45436625e+02
612             	3.45437119e+02
613             	3.45437696e+02
614             	3.45438385e+02
615             	3.45439174e+02
616             	3.45440026e+02
617             	3.45440932e+02
618             	3.45441878e+02
619             	3.45442844e+02
620             	3.45443830e+02
621             	3.45444829e+02
