# Region        : cellZone component_0
# Cells         : 95
# Volume        : 1.63190296e-01
# Time          	volAverage(T)
1               	3.00709621e+02
2               	3.01407722e+02
3               	3.02049732e+02
4               	3.02658618e+02
5               	3.03252263e+02
6               	3.03836543e+02
7               	3.04414009e+02
8               	3.04991190e+02
9               	3.05566691e+02
10              	3.06135162e+02
11              	3.06688701e+02
12              	3.07225394e+02
13              	3.07750333e+02
14              	3.08257914e+02
15              	3.08745799e+02
16              	3.09245080e+02
17              	3.09747189e+02
18              	3.10248532e+02
19              	3.10743365e+02
20              	3.11230289e+02
21              	3.11713717e+02
22              	3.12196584e+02
23              	3.12672198e+02
24              	3.13133759e+02
25              	3.13585289e+02
26              	3.14024141e+02
27              	3.14445949e+02
28              	3.14842759e+02
29              	3.15244406e+02
30              	3.15624223e+02
31              	3.16012111e+02
32              	3.16393939e+02
33              	3.16757769e+02
34              	3.17112124e+02
35              	3.17472095e+02
36              	3.17844550e+02
37              	3.18201069e+02
38              	3.18519215e+02
39              	3.18809475e+02
40              	3.19080076e+02
41              	3.19365800e+02
42              	3.19667976e+02
43              	3.19969577e+02
44              	3.20264961e+02
45              	3.20547916e+02
46              	3.20818285e+02
47              	3.21092910e+02
48              	3.21370530e+02
49              	3.21631713e+02
50              	3.21892027e+02
51              	3.22139730e+02
52              	3.22374745e+02
53              	3.22604357e+02
54              	3.22817769e+02
55              	3.23018029e+02
56              	3.23213880e+02
57              	3.23403332e+02
58              	3.23585049e+02
59              	3.23755978e+02
60              	3.23920568e+02
61              	3.24079454e+02
62              	3.24248753e+02
63              	3.24426331e+02
64              	3.24587949e+02
65              	3.24719314e+02
66              	3.24833821e+02
67              	3.24943066e+02
68              	3.25058059e+02
69              	3.25180158e+02
70              	3.25301604e+02
71              	3.25427190e+02
72              	3.25546375e+02
73              	3.25658394e+02
74              	3.25766395e+02
75              	3.25869416e+02
76              	3.25968385e+02
77              	3.26075467e+02
78              	3.26190185e+02
79              	3.26317843e+02
80              	3.26445898e+02
81              	3.26566515e+02
82              	3.26672607e+02
83              	3.26762222e+02
84              	3.26831635e+02
85              	3.26894731e+02
86              	3.26955784e+02
87              	3.27017611e+02
88              	3.27072632e+02
89              	3.27122262e+02
90              	3.27179918e+02
91              	3.27241340e+02
92              	3.27308480e+02
93              	3.27381658e+02
94              	3.27459468e+02
95              	3.27536406e+02
96              	3.27603332e+02
97              	3.27668147e+02
98              	3.27733741e+02
99              	3.27796675e+02
100             	3.27855933e+02
101             	3.27915571e+02
102             	3.27972536e+02
103             	3.28025029e+02
104             	3.28073632e+02
105             	3.28120930e+02
106             	3.28169040e+02
107             	3.28222560e+02
108             	3.28278662e+02
109             	3.28335245e+02
110             	3.28392765e+02
111             	3.28447680e+02
112             	3.28508230e+02
113             	3.28565292e+02
114             	3.28616111e+02
115             	3.28663088e+02
116             	3.28704906e+02
117             	3.28734041e+02
118             	3.28760419e+02
119             	3.28785429e+02
120             	3.28808328e+02
121             	3.28830228e+02
122             	3.28853006e+02
123             	3.28879125e+02
124             	3.28909581e+02
125             	3.28934827e+02
126             	3.28959674e+02
127             	3.28989246e+02
128             	3.29017524e+02
129             	3.29043038e+02
130             	3.29065394e+02
131             	3.29084643e+02
132             	3.29102206e+02
133             	3.29123503e+02
134             	3.29145867e+02
135             	3.29164886e+02
136             	3.29184847e+02
137             	3.29206363e+02
138             	3.29228128e+02
139             	3.29248894e+02
140             	3.29267832e+02
141             	3.29285345e+02
142             	3.29303086e+02
143             	3.29318457e+02
144             	3.29333748e+02
145             	3.29346668e+02
146             	3.29362964e+02
147             	3.29381546e+02
148             	3.29397802e+02
149             	3.29416169e+02
150             	3.29432856e+02
151             	3.29452097e+02
152             	3.29470143e+02
153             	3.29484585e+02
154             	3.29496022e+02
155             	3.29506269e+02
156             	3.29514865e+02
157             	3.29519979e+02
158             	3.29523297e+02
159             	3.29525492e+02
160             	3.29528233e+02
161             	3.29531307e+02
162             	3.29534768e+02
163             	3.29538817e+02
164             	3.29543890e+02
165             	3.29550269e+02
166             	3.29556784e+02
167             	3.29564629e+02
168             	3.29572824e+02
169             	3.29581721e+02
170             	3.29589641e+02
171             	3.29596856e+02
172             	3.29604178e+02
173             	3.29611510e+02
174             	3.29618072e+02
175             	3.29623917e+02
176             	3.29629253e+02
177             	3.29634286e+02
178             	3.29639424e+02
179             	3.29644292e+02
180             	3.29647523e+02
181             	3.29650462e+02
182             	3.29653489e+02
183             	3.29655450e+02
184             	3.29657914e+02
185             	3.29659368e+02
186             	3.29662132e+02
187             	3.29665152e+02
188             	3.29670109e+02
189             	3.29675192e+02
190             	3.29681089e+02
191             	3.29687886e+02
192             	3.29694467e+02
193             	3.29697539e+02
194             	3.29701717e+02
195             	3.29705960e+02
196             	3.29709703e+02
197             	3.29711889e+02
198             	3.29712377e+02
199             	3.29712927e+02
200             	3.29714818e+02
201             	3.29716962e+02
202             	3.29718628e+02
203             	3.29721188e+02
204             	3.29725088e+02
205             	3.29729963e+02
206             	3.29735083e+02
207             	3.29739720e+02
208             	3.29743895e+02
209             	3.29747856e+02
210             	3.29752569e+02
211             	3.29756078e+02
212             	3.29758372e+02
213             	3.29760972e+02
214             	3.29763812e+02
215             	3.29766753e+02
216             	3.29767717e+02
217             	3.29768238e+02
218             	3.29768931e+02
219             	3.29770644e+02
220             	3.29770881e+02
221             	3.29770372e+02
222             	3.29770103e+02
223             	3.29770295e+02
224             	3.29770617e+02
225             	3.29771851e+02
226             	3.29773378e+02
227             	3.29775124e+02
228             	3.29777654e+02
229             	3.29780807e+02
230             	3.29782710e+02
231             	3.29785426e+02
232             	3.29788363e+02
233             	3.29790867e+02
234             	3.29793066e+02
235             	3.29795170e+02
236             	3.29797326e+02
237             	3.29799576e+02
238             	3.29803354e+02
239             	3.29807010e+02
240             	3.29810195e+02
241             	3.29813553e+02
242             	3.29815291e+02
243             	3.29817405e+02
244             	3.29820136e+02
245             	3.29822282e+02
246             	3.29823672e+02
247             	3.29824641e+02
248             	3.29825467e+02
249             	3.29826539e+02
250             	3.29828137e+02
251             	3.29829305e+02
252             	3.29831378e+02
253             	3.29832898e+02
254             	3.29835126e+02
255             	3.29837652e+02
256             	3.29840695e+02
257             	3.29843689e+02
258             	3.29846407e+02
259             	3.29848837e+02
260             	3.29850943e+02
261             	3.29852077e+02
262             	3.29853328e+02
263             	3.29854294e+02
264             	3.29855568e+02
265             	3.29856243e+02
266             	3.29857380e+02
267             	3.29858695e+02
268             	3.29860265e+02
269             	3.29862413e+02
270             	3.29864910e+02
271             	3.29867458e+02
272             	3.29869865e+02
273             	3.29872301e+02
274             	3.29873847e+02
275             	3.29875113e+02
276             	3.29876359e+02
277             	3.29877152e+02
278             	3.29877692e+02
279             	3.29878719e+02
280             	3.29879728e+02
281             	3.29880677e+02
282             	3.29882056e+02
283             	3.29883594e+02
284             	3.29885757e+02
285             	3.29888195e+02
286             	3.29890639e+02
287             	3.29893216e+02
288             	3.29895361e+02
289             	3.29897233e+02
290             	3.29898936e+02
291             	3.29900506e+02
292             	3.29901989e+02
293             	3.29903435e+02
294             	3.29904129e+02
295             	3.29904845e+02
296             	3.29905924e+02
297             	3.29906973e+02
298             	3.29907978e+02
299             	3.29909135e+02
300             	3.29910741e+02
301             	3.29912578e+02
302             	3.29914641e+02
303             	3.29916704e+02
304             	3.29918866e+02
305             	3.29920682e+02
306             	3.29922326e+02
307             	3.29923753e+02
308             	3.29925030e+02
309             	3.29926249e+02
310             	3.29927461e+02
311             	3.29928726e+02
312             	3.29929979e+02
313             	3.29931048e+02
314             	3.29932427e+02
315             	3.29934001e+02
316             	3.29935718e+02
317             	3.29937572e+02
318             	3.29939630e+02
319             	3.29941765e+02
320             	3.29944119e+02
321             	3.29946363e+02
322             	3.29948389e+02
323             	3.29950373e+02
324             	3.29952212e+02
325             	3.29953870e+02
326             	3.29955291e+02
327             	3.29956518e+02
328             	3.29957710e+02
329             	3.29958747e+02
330             	3.29959682e+02
331             	3.29960627e+02
332             	3.29961632e+02
333             	3.29962549e+02
334             	3.29963634e+02
335             	3.29964869e+02
336             	3.29966164e+02
337             	3.29967369e+02
338             	3.29968360e+02
339             	3.29969602e+02
340             	3.29970918e+02
341             	3.29972160e+02
342             	3.29973335e+02
343             	3.29974508e+02
344             	3.29975941e+02
345             	3.29977195e+02
346             	3.29978567e+02
347             	3.29980313e+02
348             	3.29981955e+02
349             	3.29983633e+02
350             	3.29985401e+02
351             	3.29987141e+02
352             	3.29988668e+02
353             	3.29990116e+02
354             	3.29991646e+02
355             	3.29993115e+02
356             	3.29994502e+02
357             	3.29995882e+02
358             	3.29997337e+02
359             	3.29999037e+02
360             	3.30000754e+02
361             	3.30002387e+02
362             	3.30004124e+02
363             	3.30005931e+02
364             	3.30007734e+02
365             	3.30009487e+02
366             	3.30010641e+02
367             	3.30011988e+02
368             	3.30013286e+02
369             	3.30014300e+02
370             	3.30015353e+02
371             	3.30016390e+02
372             	3.30017129e+02
373             	3.30017807e+02
374             	3.30018492e+02
375             	3.30019095e+02
376             	3.30019703e+02
377             	3.30020428e+02
378             	3.30021501e+02
379             	3.30022345e+02
380             	3.30023140e+02
381             	3.30024034e+02
382             	3.30025039e+02
383             	3.30026105e+02
384             	3.30027215e+02
385             	3.30028367e+02
386             	3.30029329e+02
387             	3.30030471e+02
388             	3.30031676e+02
389             	3.30032868e+02
390             	3.30034110e+02
391             	3.30035497e+02
392             	3.30036939e+02
393             	3.30038495e+02
394             	3.30040165e+02
395             	3.30041864e+02
396             	3.30043563e+02
397             	3.30045304e+02
398             	3.30047049e+02
399             	3.30048750e+02
400             	3.30050294e+02
401             	3.30051771e+02
402             	3.30053188e+02
403             	3.30054552e+02
404             	3.30055698e+02
405             	3.30056783e+02
406             	3.30057769e+02
407             	3.30058643e+02
408             	3.30059611e+02
409             	3.30060390e+02
410             	3.30061097e+02
411             	3.30061821e+02
412             	3.30062539e+02
413             	3.30063240e+02
414             	3.30063900e+02
415             	3.30064498e+02
416             	3.30065253e+02
417             	3.30066083e+02
418             	3.30066966e+02
419             	3.30067922e+02
420             	3.30068981e+02
421             	3.30070169e+02
422             	3.30071371e+02
423             	3.30072630e+02
424             	3.30073985e+02
425             	3.30075427e+02
426             	3.30076921e+02
427             	3.30078462e+02
428             	3.30080021e+02
429             	3.30081571e+02
430             	3.30082800e+02
431             	3.30084168e+02
432             	3.30085545e+02
433             	3.30086870e+02
434             	3.30088139e+02
435             	3.30089352e+02
436             	3.30090626e+02
437             	3.30091791e+02
438             	3.30092903e+02
439             	3.30094003e+02
440             	3.30095078e+02
441             	3.30096080e+02
442             	3.30097113e+02
443             	3.30098124e+02
444             	3.30099076e+02
445             	3.30099982e+02
446             	3.30100682e+02
447             	3.30101411e+02
448             	3.30102121e+02
449             	3.30102779e+02
450             	3.30103392e+02
451             	3.30103964e+02
452             	3.30104544e+02
453             	3.30105096e+02
454             	3.30105775e+02
455             	3.30106452e+02
456             	3.30107213e+02
457             	3.30108006e+02
458             	3.30108797e+02
459             	3.30109686e+02
460             	3.30110643e+02
461             	3.30111641e+02
462             	3.30112666e+02
463             	3.30113705e+02
464             	3.30114747e+02
465             	3.30115691e+02
466             	3.30116708e+02
467             	3.30117735e+02
468             	3.30118730e+02
469             	3.30119702e+02
470             	3.30120659e+02
471             	3.30121678e+02
472             	3.30122643e+02
473             	3.30123498e+02
474             	3.30124293e+02
475             	3.30125048e+02
476             	3.30125754e+02
477             	3.30126375e+02
478             	3.30127065e+02
479             	3.30127774e+02
480             	3.30128484e+02
481             	3.30129202e+02
482             	3.30129946e+02
483             	3.30130635e+02
484             	3.30131358e+02
485             	3.30132106e+02
486             	3.30132911e+02
487             	3.30133810e+02
488             	3.30134805e+02
489             	3.30135761e+02
490             	3.30136525e+02
491             	3.30137522e+02
492             	3.30138609e+02
493             	3.30139645e+02
494             	3.30140557e+02
495             	3.30141431e+02
496             	3.30142192e+02
497             	3.30142974e+02
498             	3.30143556e+02
499             	3.30144040e+02
500             	3.30144465e+02
501             	3.30144874e+02
502             	3.30145367e+02
503             	3.30145900e+02
504             	3.30146467e+02
505             	3.30147076e+02
506             	3.30147856e+02
507             	3.30148677e+02
508             	3.30149548e+02
509             	3.30150329e+02
510             	3.30151088e+02
511             	3.30151872e+02
512             	3.30152700e+02
513             	3.30153522e+02
514             	3.30154333e+02
515             	3.30155213e+02
516             	3.30156078e+02
517             	3.30156950e+02
518             	3.30157842e+02
519             	3.30158743e+02
520             	3.30159597e+02
521             	3.30160455e+02
522             	3.30161276e+02
523             	3.30162057e+02
524             	3.30162783e+02
525             	3.30163459e+02
526             	3.30164084e+02
527             	3.30164662e+02
528             	3.30165201e+02
529             	3.30165709e+02
530             	3.30166197e+02
531             	3.30166669e+02
532             	3.30167131e+02
533             	3.30167585e+02
534             	3.30168035e+02
535             	3.30168495e+02
536             	3.30168960e+02
537             	3.30169432e+02
538             	3.30169888e+02
539             	3.30170394e+02
540             	3.30170936e+02
541             	3.30171506e+02
542             	3.30172076e+02
543             	3.30172623e+02
544             	3.30173124e+02
545             	3.30173624e+02
546             	3.30174094e+02
547             	3.30174562e+02
548             	3.30174945e+02
549             	3.30175408e+02
550             	3.30175808e+02
551             	3.30176196e+02
552             	3.30176609e+02
553             	3.30177034e+02
554             	3.30177466e+02
555             	3.30177924e+02
556             	3.30178383e+02
557             	3.30178841e+02
558             	3.30179287e+02
559             	3.30179728e+02
560             	3.30180170e+02
561             	3.30180630e+02
562             	3.30181138e+02
563             	3.30181740e+02
564             	3.30182378e+02
565             	3.30183015e+02
566             	3.30183545e+02
567             	3.30184229e+02
568             	3.30184930e+02
569             	3.30185664e+02
570             	3.30186395e+02
571             	3.30187116e+02
572             	3.30187846e+02
573             	3.30188582e+02
574             	3.30189366e+02
575             	3.30190133e+02
576             	3.30190889e+02
577             	3.30191645e+02
578             	3.30192373e+02
579             	3.30193111e+02
580             	3.30193772e+02
581             	3.30194418e+02
582             	3.30195023e+02
583             	3.30195571e+02
584             	3.30196071e+02
585             	3.30196538e+02
586             	3.30196993e+02
587             	3.30197437e+02
588             	3.30197873e+02
589             	3.30198296e+02
590             	3.30198704e+02
591             	3.30199102e+02
592             	3.30199500e+02
593             	3.30199904e+02
594             	3.30200312e+02
595             	3.30200722e+02
596             	3.30201136e+02
597             	3.30201549e+02
598             	3.30201965e+02
599             	3.30202385e+02
600             	3.30202809e+02
601             	3.30203250e+02
602             	3.30203771e+02
603             	3.30204298e+02
604             	3.30204823e+02
605             	3.30205385e+02
606             	3.30205980e+02
607             	3.30206594e+02
608             	3.30207223e+02
609             	3.30207870e+02
610             	3.30208512e+02
611             	3.30209139e+02
612             	3.30209728e+02
613             	3.30210324e+02
614             	3.30210931e+02
615             	3.30211503e+02
616             	3.30212041e+02
617             	3.30212539e+02
618             	3.30213020e+02
619             	3.30213500e+02
620             	3.30213981e+02
621             	3.30214458e+02
