# Region        : cellZone component_1
# Cells         : 372
# Volume        : 7.78142858e-01
# Time          	volAverage(T)
1               	3.00118689e+02
2               	3.00236276e+02
3               	3.00349402e+02
4               	3.00459663e+02
5               	3.00568127e+02
6               	3.00675251e+02
7               	3.00781157e+02
8               	3.00886239e+02
9               	3.00990730e+02
10              	3.01094514e+02
11              	3.01197609e+02
12              	3.01300106e+02
13              	3.01402192e+02
14              	3.01503943e+02
15              	3.01605452e+02
16              	3.01706541e+02
17              	3.01807227e+02
18              	3.01906292e+02
19              	3.02005823e+02
20              	3.02104035e+02
21              	3.02201608e+02
22              	3.02298125e+02
23              	3.02393502e+02
24              	3.02487397e+02
25              	3.02579463e+02
26              	3.02671193e+02
27              	3.02761793e+02
28              	3.02851180e+02
29              	3.02940647e+02
30              	3.03030623e+02
31              	3.03121761e+02
32              	3.03212359e+02
33              	3.03301561e+02
34              	3.03391939e+02
35              	3.03480773e+02
36              	3.03567950e+02
37              	3.03654745e+02
38              	3.03740068e+02
39              	3.03821900e+02
40              	3.03904090e+02
41              	3.03984629e+02
42              	3.04064317e+02
43              	3.04143559e+02
44              	3.04222227e+02
45              	3.04302222e+02
46              	3.04383192e+02
47              	3.04464196e+02
48              	3.04543855e+02
49              	3.04623747e+02
50              	3.04702197e+02
51              	3.04779731e+02
52              	3.04856857e+02
53              	3.04933116e+02
54              	3.05007956e+02
55              	3.05082349e+02
56              	3.05156266e+02
57              	3.05228743e+02
58              	3.05301281e+02
59              	3.05373371e+02
60              	3.05445270e+02
61              	3.05517244e+02
62              	3.05588672e+02
63              	3.05659871e+02
64              	3.05731489e+02
65              	3.05802657e+02
66              	3.05873890e+02
67              	3.05944180e+02
68              	3.06014337e+02
69              	3.06084712e+02
70              	3.06153734e+02
71              	3.06222443e+02
72              	3.06288241e+02
73              	3.06354875e+02
74              	3.06421379e+02
75              	3.06487312e+02
76              	3.06553244e+02
77              	3.06618503e+02
78              	3.06683281e+02
79              	3.06748305e+02
80              	3.06813409e+02
81              	3.06877754e+02
82              	3.06941705e+02
83              	3.07004365e+02
84              	3.07065970e+02
85              	3.07126703e+02
86              	3.07185871e+02
87              	3.07244557e+02
88              	3.07303327e+02
89              	3.07361096e+02
90              	3.07417864e+02
91              	3.07473613e+02
92              	3.07529543e+02
93              	3.07584696e+02
94              	3.07640398e+02
95              	3.07696115e+02
96              	3.07751602e+02
97              	3.07807166e+02
98              	3.07862512e+02
99              	3.07916438e+02
100             	3.07970161e+02
101             	3.08023087e+02
102             	3.08074930e+02
103             	3.08125969e+02
104             	3.08174712e+02
105             	3.08223881e+02
106             	3.08272442e+02
107             	3.08321165e+02
108             	3.08369705e+02
109             	3.08417781e+02
110             	3.08466176e+02
111             	3.08513703e+02
112             	3.08561591e+02
113             	3.08608810e+02
114             	3.08655856e+02
115             	3.08701322e+02
116             	3.08746699e+02
117             	3.08791505e+02
118             	3.08835237e+02
119             	3.08878162e+02
120             	3.08920859e+02
121             	3.08963182e+02
122             	3.09005328e+02
123             	3.09046297e+02
124             	3.09087503e+02
125             	3.09128944e+02
126             	3.09170223e+02
127             	3.09211082e+02
128             	3.09251997e+02
129             	3.09292800e+02
130             	3.09333309e+02
131             	3.09373252e+02
132             	3.09412677e+02
133             	3.09451509e+02
134             	3.09489502e+02
135             	3.09527120e+02
136             	3.09564095e+02
137             	3.09600119e+02
138             	3.09635475e+02
139             	3.09670900e+02
140             	3.09705646e+02
141             	3.09739777e+02
142             	3.09774316e+02
143             	3.09808991e+02
144             	3.09843516e+02
145             	3.09878038e+02
146             	3.09912016e+02
147             	3.09946107e+02
148             	3.09979619e+02
149             	3.10012882e+02
150             	3.10045549e+02
151             	3.10078291e+02
152             	3.10110793e+02
153             	3.10142599e+02
154             	3.10174244e+02
155             	3.10205258e+02
156             	3.10235697e+02
157             	3.10266152e+02
158             	3.10296399e+02
159             	3.10326065e+02
160             	3.10355296e+02
161             	3.10384260e+02
162             	3.10412545e+02
163             	3.10440347e+02
164             	3.10468245e+02
165             	3.10495475e+02
166             	3.10522615e+02
167             	3.10549805e+02
168             	3.10576976e+02
169             	3.10604134e+02
170             	3.10631116e+02
171             	3.10658018e+02
172             	3.10684763e+02
173             	3.10711469e+02
174             	3.10737876e+02
175             	3.10763783e+02
176             	3.10789166e+02
177             	3.10814314e+02
178             	3.10839144e+02
179             	3.10863785e+02
180             	3.10888136e+02
181             	3.10912189e+02
182             	3.10935757e+02
183             	3.10959002e+02
184             	3.10981778e+02
185             	3.11004403e+02
186             	3.11027205e+02
187             	3.11049709e+02
188             	3.11072351e+02
189             	3.11094936e+02
190             	3.11117332e+02
191             	3.11139453e+02
192             	3.11161301e+02
193             	3.11183058e+02
194             	3.11204241e+02
195             	3.11225078e+02
196             	3.11245664e+02
197             	3.11266054e+02
198             	3.11286098e+02
199             	3.11305888e+02
200             	3.11325322e+02
201             	3.11344862e+02
202             	3.11364056e+02
203             	3.11383123e+02
204             	3.11401981e+02
205             	3.11420670e+02
206             	3.11439251e+02
207             	3.11457508e+02
208             	3.11475445e+02
209             	3.11493264e+02
210             	3.11510803e+02
211             	3.11528239e+02
212             	3.11545652e+02
213             	3.11562900e+02
214             	3.11580015e+02
215             	3.11597074e+02
216             	3.11614117e+02
217             	3.11631171e+02
218             	3.11648120e+02
219             	3.11664986e+02
220             	3.11681788e+02
221             	3.11698409e+02
222             	3.11715075e+02
223             	3.11731473e+02
224             	3.11747578e+02
225             	3.11763674e+02
226             	3.11779477e+02
227             	3.11795236e+02
228             	3.11810876e+02
229             	3.11826238e+02
230             	3.11841403e+02
231             	3.11856400e+02
232             	3.11871246e+02
233             	3.11885922e+02
234             	3.11900498e+02
235             	3.11914796e+02
236             	3.11928840e+02
237             	3.11942680e+02
238             	3.11956348e+02
239             	3.11969829e+02
240             	3.11983153e+02
241             	3.11996502e+02
242             	3.12009839e+02
243             	3.12022622e+02
244             	3.12035572e+02
245             	3.12048303e+02
246             	3.12060895e+02
247             	3.12073326e+02
248             	3.12085647e+02
249             	3.12097836e+02
250             	3.12109869e+02
251             	3.12121740e+02
252             	3.12133488e+02
253             	3.12145134e+02
254             	3.12156689e+02
255             	3.12168178e+02
256             	3.12179577e+02
257             	3.12190898e+02
258             	3.12202136e+02
259             	3.12213376e+02
260             	3.12224477e+02
261             	3.12235462e+02
262             	3.12246386e+02
263             	3.12257181e+02
264             	3.12267920e+02
265             	3.12278617e+02
266             	3.12289228e+02
267             	3.12299789e+02
268             	3.12310205e+02
269             	3.12320461e+02
270             	3.12330638e+02
271             	3.12340709e+02
272             	3.12350622e+02
273             	3.12360388e+02
274             	3.12370054e+02
275             	3.12379571e+02
276             	3.12389040e+02
277             	3.12398517e+02
278             	3.12407881e+02
279             	3.12417199e+02
280             	3.12426492e+02
281             	3.12435743e+02
282             	3.12445002e+02
283             	3.12454238e+02
284             	3.12463375e+02
285             	3.12472454e+02
286             	3.12481461e+02
287             	3.12490304e+02
288             	3.12499103e+02
289             	3.12507822e+02
290             	3.12516414e+02
291             	3.12524960e+02
292             	3.12533341e+02
293             	3.12541590e+02
294             	3.12549694e+02
295             	3.12557640e+02
296             	3.12565445e+02
297             	3.12573098e+02
298             	3.12580620e+02
299             	3.12588025e+02
300             	3.12595305e+02
301             	3.12602541e+02
302             	3.12609758e+02
303             	3.12616931e+02
304             	3.12624045e+02
305             	3.12631116e+02
306             	3.12638174e+02
307             	3.12645190e+02
308             	3.12652170e+02
309             	3.12659104e+02
310             	3.12666014e+02
311             	3.12672892e+02
312             	3.12679703e+02
313             	3.12686452e+02
314             	3.12693165e+02
315             	3.12699863e+02
316             	3.12706557e+02
317             	3.12713201e+02
318             	3.12719815e+02
319             	3.12726365e+02
320             	3.12732822e+02
321             	3.12739237e+02
322             	3.12745575e+02
323             	3.12751872e+02
324             	3.12758121e+02
325             	3.12764273e+02
326             	3.12770404e+02
327             	3.12776538e+02
328             	3.12782677e+02
329             	3.12788805e+02
330             	3.12794923e+02
331             	3.12800990e+02
332             	3.12806968e+02
333             	3.12812876e+02
334             	3.12818707e+02
335             	3.12824514e+02
336             	3.12830221e+02
337             	3.12835836e+02
338             	3.12841411e+02
339             	3.12846934e+02
340             	3.12852416e+02
341             	3.12857833e+02
342             	3.12863200e+02
343             	3.12868498e+02
344             	3.12873705e+02
345             	3.12878832e+02
346             	3.12883870e+02
347             	3.12888813e+02
348             	3.12893656e+02
349             	3.12898419e+02
350             	3.12903135e+02
351             	3.12907802e+02
352             	3.12912432e+02
353             	3.12917023e+02
354             	3.12921579e+02
355             	3.12926105e+02
356             	3.12930590e+02
357             	3.12935078e+02
358             	3.12939585e+02
359             	3.12944109e+02
360             	3.12948607e+02
361             	3.12953079e+02
362             	3.12957548e+02
363             	3.12962012e+02
364             	3.12966461e+02
365             	3.12970898e+02
366             	3.12975316e+02
367             	3.12979680e+02
368             	3.12984006e+02
369             	3.12988294e+02
370             	3.12992544e+02
371             	3.12996783e+02
372             	3.13000977e+02
373             	3.13005123e+02
374             	3.13009250e+02
375             	3.13013362e+02
376             	3.13017381e+02
377             	3.13021400e+02
378             	3.13025347e+02
379             	3.13029264e+02
380             	3.13033142e+02
381             	3.13036981e+02
382             	3.13040774e+02
383             	3.13044530e+02
384             	3.13048274e+02
385             	3.13051976e+02
386             	3.13055622e+02
387             	3.13059222e+02
388             	3.13062813e+02
389             	3.13066367e+02
390             	3.13069867e+02
391             	3.13073310e+02
392             	3.13076688e+02
393             	3.13080004e+02
394             	3.13083274e+02
395             	3.13086496e+02
396             	3.13089680e+02
397             	3.13092837e+02
398             	3.13095961e+02
399             	3.13099059e+02
400             	3.13102142e+02
401             	3.13105223e+02
402             	3.13108306e+02
403             	3.13111386e+02
404             	3.13114471e+02
405             	3.13117574e+02
406             	3.13120701e+02
407             	3.13123781e+02
408             	3.13126824e+02
409             	3.13129845e+02
410             	3.13132850e+02
411             	3.13135822e+02
412             	3.13138757e+02
413             	3.13141653e+02
414             	3.13144508e+02
415             	3.13147325e+02
416             	3.13150112e+02
417             	3.13152879e+02
418             	3.13155643e+02
419             	3.13158409e+02
420             	3.13161183e+02
421             	3.13163917e+02
422             	3.13166660e+02
423             	3.13169393e+02
424             	3.13172117e+02
425             	3.13174844e+02
426             	3.13177708e+02
427             	3.13180599e+02
428             	3.13183500e+02
429             	3.13186303e+02
430             	3.13189079e+02
431             	3.13191789e+02
432             	3.13194442e+02
433             	3.13196998e+02
434             	3.13199474e+02
435             	3.13201913e+02
436             	3.13204263e+02
437             	3.13206528e+02
438             	3.13208713e+02
439             	3.13210838e+02
440             	3.13212913e+02
441             	3.13214949e+02
442             	3.13216957e+02
443             	3.13218942e+02
444             	3.13220909e+02
445             	3.13222862e+02
446             	3.13224822e+02
447             	3.13226827e+02
448             	3.13228873e+02
449             	3.13230989e+02
450             	3.13233113e+02
451             	3.13235245e+02
452             	3.13237349e+02
453             	3.13239528e+02
454             	3.13241710e+02
455             	3.13243783e+02
456             	3.13245838e+02
457             	3.13247874e+02
458             	3.13249895e+02
459             	3.13251871e+02
460             	3.13253872e+02
461             	3.13255838e+02
462             	3.13257788e+02
463             	3.13259739e+02
464             	3.13261703e+02
465             	3.13263605e+02
466             	3.13265535e+02
467             	3.13267465e+02
468             	3.13269388e+02
469             	3.13271342e+02
470             	3.13273308e+02
471             	3.13275266e+02
472             	3.13277204e+02
473             	3.13279236e+02
474             	3.13281277e+02
475             	3.13283323e+02
476             	3.13285371e+02
477             	3.13287413e+02
478             	3.13289448e+02
479             	3.13291382e+02
480             	3.13293281e+02
481             	3.13295131e+02
482             	3.13296927e+02
483             	3.13298655e+02
484             	3.13300301e+02
485             	3.13301866e+02
486             	3.13303355e+02
487             	3.13304768e+02
488             	3.13306104e+02
489             	3.13307390e+02
490             	3.13308686e+02
491             	3.13309987e+02
492             	3.13311288e+02
493             	3.13312598e+02
494             	3.13313954e+02
495             	3.13315327e+02
496             	3.13316723e+02
497             	3.13318222e+02
498             	3.13319765e+02
499             	3.13321340e+02
500             	3.13322941e+02
501             	3.13324557e+02
502             	3.13326149e+02
503             	3.13327666e+02
504             	3.13329185e+02
505             	3.13330705e+02
506             	3.13332236e+02
507             	3.13333749e+02
508             	3.13335243e+02
509             	3.13336728e+02
510             	3.13338213e+02
511             	3.13339705e+02
512             	3.13341202e+02
513             	3.13342678e+02
514             	3.13344147e+02
515             	3.13345624e+02
516             	3.13347106e+02
517             	3.13348620e+02
518             	3.13350141e+02
519             	3.13351694e+02
520             	3.13353218e+02
521             	3.13354710e+02
522             	3.13356177e+02
523             	3.13357618e+02
524             	3.13359046e+02
525             	3.13360463e+02
526             	3.13361873e+02
527             	3.13363213e+02
528             	3.13364537e+02
529             	3.13365843e+02
530             	3.13367110e+02
531             	3.13368335e+02
532             	3.13369513e+02
533             	3.13370641e+02
534             	3.13371716e+02
535             	3.13372743e+02
536             	3.13373725e+02
537             	3.13374670e+02
538             	3.13375599e+02
539             	3.13376515e+02
540             	3.13377417e+02
541             	3.13378315e+02
542             	3.13379214e+02
543             	3.13380119e+02
544             	3.13381033e+02
545             	3.13381975e+02
546             	3.13382948e+02
547             	3.13384008e+02
548             	3.13385051e+02
549             	3.13386088e+02
550             	3.13387053e+02
551             	3.13388037e+02
552             	3.13389076e+02
553             	3.13390134e+02
554             	3.13391229e+02
555             	3.13392367e+02
556             	3.13393538e+02
557             	3.13394731e+02
558             	3.13395939e+02
559             	3.13397167e+02
560             	3.13398414e+02
561             	3.13399674e+02
562             	3.13400943e+02
563             	3.13402216e+02
564             	3.13403484e+02
565             	3.13404725e+02
566             	3.13406015e+02
567             	3.13407258e+02
568             	3.13408458e+02
569             	3.13409632e+02
570             	3.13410722e+02
571             	3.13411682e+02
572             	3.13412676e+02
573             	3.13413636e+02
574             	3.13414493e+02
575             	3.13415275e+02
576             	3.13415993e+02
577             	3.13416648e+02
578             	3.13417228e+02
579             	3.13417789e+02
580             	3.13418335e+02
581             	3.13418857e+02
582             	3.13419345e+02
583             	3.13419802e+02
584             	3.13420252e+02
585             	3.13420746e+02
586             	3.13421280e+02
587             	3.13421854e+02
588             	3.13422471e+02
589             	3.13423136e+02
590             	3.13423855e+02
591             	3.13424627e+02
592             	3.13425441e+02
593             	3.13426322e+02
594             	3.13427211e+02
595             	3.13428059e+02
596             	3.13428918e+02
597             	3.13429799e+02
598             	3.13430685e+02
599             	3.13431568e+02
600             	3.13432449e+02
601             	3.13433332e+02
602             	3.13434210e+02
603             	3.13435082e+02
604             	3.13435923e+02
605             	3.13436736e+02
606             	3.13437525e+02
607             	3.13438300e+02
608             	3.13439073e+02
609             	3.13439853e+02
610             	3.13440642e+02
611             	3.13441380e+02
612             	3.13442100e+02
613             	3.13442822e+02
614             	3.13443546e+02
615             	3.13444266e+02
616             	3.13445020e+02
617             	3.13445772e+02
618             	3.13446521e+02
619             	3.13447225e+02
620             	3.13447907e+02
621             	3.13448578e+02
