# Region        : cellZone fluid
# Cells         : 9038
# Volume        : 1.70094753e+01
# Time          	volAverage(T)
1               	3.00000422e+02
2               	3.00000808e+02
3               	3.00003562e+02
4               	3.00006380e+02
5               	3.00008327e+02
6               	3.00009576e+02
7               	3.00009817e+02
8               	3.00011990e+02
9               	3.00012807e+02
10              	3.00013741e+02
11              	3.00014948e+02
12              	3.00016051e+02
13              	3.00016894e+02
14              	3.00017965e+02
15              	3.00019604e+02
16              	3.00021837e+02
17              	3.00023502e+02
18              	3.00026482e+02
19              	3.00028734e+02
20              	3.00031098e+02
21              	3.00034726e+02
22              	3.00037646e+02
23              	3.00040711e+02
24              	3.00044139e+02
25              	3.00045711e+02
26              	3.00049100e+02
27              	3.00050271e+02
28              	3.00053203e+02
29              	3.00055467e+02
30              	3.00058486e+02
31              	3.00061215e+02
32              	3.00064871e+02
33              	3.00067974e+02
34              	3.00071399e+02
35              	3.00076557e+02
36              	3.00079383e+02
37              	3.00083133e+02
38              	3.00086906e+02
39              	3.00090219e+02
40              	3.00093834e+02
41              	3.00097380e+02
42              	3.00101261e+02
43              	3.00104645e+02
44              	3.00108621e+02
45              	3.00111620e+02
46              	3.00116450e+02
47              	3.00119650e+02
48              	3.00122569e+02
49              	3.00124144e+02
50              	3.00128566e+02
51              	3.00133356e+02
52              	3.00139392e+02
53              	3.00143682e+02
54              	3.00151269e+02
55              	3.00155646e+02
56              	3.00162338e+02
57              	3.00166807e+02
58              	3.00169484e+02
59              	3.00176386e+02
60              	3.00181719e+02
61              	3.00182572e+02
62              	3.00181576e+02
63              	3.00182495e+02
64              	3.00186559e+02
65              	3.00191007e+02
66              	3.00192827e+02
67              	3.00197774e+02
68              	3.00207010e+02
69              	3.00210977e+02
70              	3.00216145e+02
71              	3.00219797e+02
72              	3.00220478e+02
73              	3.00224515e+02
74              	3.00225650e+02
75              	3.00228218e+02
76              	3.00229302e+02
77              	3.00230056e+02
78              	3.00231674e+02
79              	3.00234706e+02
80              	3.00237740e+02
81              	3.00239934e+02
82              	3.00244095e+02
83              	3.00250691e+02
84              	3.00259779e+02
85              	3.00263371e+02
86              	3.00263892e+02
87              	3.00263954e+02
88              	3.00267844e+02
89              	3.00270385e+02
90              	3.00269644e+02
91              	3.00270170e+02
92              	3.00271384e+02
93              	3.00275448e+02
94              	3.00281250e+02
95              	3.00284360e+02
96              	3.00288553e+02
97              	3.00294515e+02
98              	3.00301689e+02
99              	3.00306574e+02
100             	3.00308632e+02
101             	3.00310538e+02
102             	3.00313164e+02
103             	3.00316626e+02
104             	3.00315796e+02
105             	3.00316805e+02
106             	3.00317200e+02
107             	3.00317170e+02
108             	3.00319751e+02
109             	3.00322125e+02
110             	3.00323073e+02
111             	3.00324605e+02
112             	3.00325041e+02
113             	3.00325583e+02
114             	3.00327717e+02
115             	3.00329888e+02
116             	3.00331822e+02
117             	3.00333694e+02
118             	3.00335998e+02
119             	3.00338464e+02
120             	3.00340525e+02
121             	3.00342954e+02
122             	3.00345836e+02
123             	3.00349460e+02
124             	3.00352998e+02
125             	3.00354593e+02
126             	3.00357121e+02
127             	3.00358538e+02
128             	3.00359164e+02
129             	3.00360219e+02
130             	3.00360887e+02
131             	3.00362770e+02
132             	3.00365527e+02
133             	3.00367537e+02
134             	3.00368554e+02
135             	3.00370129e+02
136             	3.00372211e+02
137             	3.00373651e+02
138             	3.00375288e+02
139             	3.00377163e+02
140             	3.00379139e+02
141             	3.00381976e+02
142             	3.00383788e+02
143             	3.00385091e+02
144             	3.00387609e+02
145             	3.00390420e+02
146             	3.00391303e+02
147             	3.00392350e+02
148             	3.00394243e+02
149             	3.00395571e+02
150             	3.00396979e+02
151             	3.00398306e+02
152             	3.00400009e+02
153             	3.00402065e+02
154             	3.00403881e+02
155             	3.00405409e+02
156             	3.00407636e+02
157             	3.00408468e+02
158             	3.00410054e+02
159             	3.00411338e+02
160             	3.00412408e+02
161             	3.00413381e+02
162             	3.00414154e+02
163             	3.00415185e+02
164             	3.00416243e+02
165             	3.00416694e+02
166             	3.00417882e+02
167             	3.00418901e+02
168             	3.00419443e+02
169             	3.00420279e+02
170             	3.00421302e+02
171             	3.00422516e+02
172             	3.00423876e+02
173             	3.00424325e+02
174             	3.00425272e+02
175             	3.00426602e+02
176             	3.00427546e+02
177             	3.00428329e+02
178             	3.00428985e+02
179             	3.00429529e+02
180             	3.00429907e+02
181             	3.00430827e+02
182             	3.00431656e+02
183             	3.00432413e+02
184             	3.00433205e+02
185             	3.00433561e+02
186             	3.00434165e+02
187             	3.00434926e+02
188             	3.00435871e+02
189             	3.00436911e+02
190             	3.00437788e+02
191             	3.00438065e+02
192             	3.00439259e+02
193             	3.00440319e+02
194             	3.00441191e+02
195             	3.00442022e+02
196             	3.00442587e+02
197             	3.00443137e+02
198             	3.00443895e+02
199             	3.00444208e+02
200             	3.00444516e+02
201             	3.00444971e+02
202             	3.00445757e+02
203             	3.00446361e+02
204             	3.00447124e+02
205             	3.00447918e+02
206             	3.00448703e+02
207             	3.00449589e+02
208             	3.00450559e+02
209             	3.00451460e+02
210             	3.00452185e+02
211             	3.00452972e+02
212             	3.00453590e+02
213             	3.00454160e+02
214             	3.00455013e+02
215             	3.00455752e+02
216             	3.00456367e+02
217             	3.00456928e+02
218             	3.00457501e+02
219             	3.00458007e+02
220             	3.00458449e+02
221             	3.00458932e+02
222             	3.00459418e+02
223             	3.00459905e+02
224             	3.00460383e+02
225             	3.00460894e+02
226             	3.00461428e+02
227             	3.00461974e+02
228             	3.00462568e+02
229             	3.00463035e+02
230             	3.00463711e+02
231             	3.00464114e+02
232             	3.00464583e+02
233             	3.00465100e+02
234             	3.00465625e+02
235             	3.00466146e+02
236             	3.00466731e+02
237             	3.00467432e+02
238             	3.00468198e+02
239             	3.00468976e+02
240             	3.00469769e+02
241             	3.00470532e+02
242             	3.00471155e+02
243             	3.00471526e+02
244             	3.00472092e+02
245             	3.00472538e+02
246             	3.00473048e+02
247             	3.00473407e+02
248             	3.00473777e+02
249             	3.00474103e+02
250             	3.00474545e+02
251             	3.00475034e+02
252             	3.00475536e+02
253             	3.00475926e+02
254             	3.00476365e+02
255             	3.00476938e+02
256             	3.00477308e+02
257             	3.00477724e+02
258             	3.00478141e+02
259             	3.00478612e+02
260             	3.00479086e+02
261             	3.00479548e+02
262             	3.00479987e+02
263             	3.00480391e+02
264             	3.00480813e+02
265             	3.00481215e+02
266             	3.00481654e+02
267             	3.00482077e+02
268             	3.00482605e+02
269             	3.00483123e+02
270             	3.00483583e+02
271             	3.00483976e+02
272             	3.00484321e+02
273             	3.00484644e+02
274             	3.00484945e+02
275             	3.00485273e+02
276             	3.00485600e+02
277             	3.00485897e+02
278             	3.00486199e+02
279             	3.00486496e+02
280             	3.00486778e+02
281             	3.00487029e+02
282             	3.00487256e+02
283             	3.00487532e+02
284             	3.00487820e+02
285             	3.00488128e+02
286             	3.00488340e+02
287             	3.00488628e+02
288             	3.00488939e+02
289             	3.00489259e+02
290             	3.00489628e+02
291             	3.00490002e+02
292             	3.00490349e+02
293             	3.00490562e+02
294             	3.00490905e+02
295             	3.00491271e+02
296             	3.00491607e+02
297             	3.00491851e+02
298             	3.00492109e+02
299             	3.00492327e+02
300             	3.00492589e+02
301             	3.00492831e+02
302             	3.00493036e+02
303             	3.00493234e+02
304             	3.00493511e+02
305             	3.00493731e+02
306             	3.00493945e+02
307             	3.00494241e+02
308             	3.00494401e+02
309             	3.00494593e+02
310             	3.00494855e+02
311             	3.00495150e+02
312             	3.00495412e+02
313             	3.00495620e+02
314             	3.00495933e+02
315             	3.00496288e+02
316             	3.00496594e+02
317             	3.00496843e+02
318             	3.00497085e+02
319             	3.00497294e+02
320             	3.00497482e+02
321             	3.00497619e+02
322             	3.00497725e+02
323             	3.00497963e+02
324             	3.00498081e+02
325             	3.00498279e+02
326             	3.00498416e+02
327             	3.00498567e+02
328             	3.00498784e+02
329             	3.00499008e+02
330             	3.00499226e+02
331             	3.00499487e+02
332             	3.00499753e+02
333             	3.00499984e+02
334             	3.00500244e+02
335             	3.00500452e+02
336             	3.00500525e+02
337             	3.00500825e+02
338             	3.00501076e+02
339             	3.00501249e+02
340             	3.00501407e+02
341             	3.00501541e+02
342             	3.00501695e+02
343             	3.00501866e+02
344             	3.00501949e+02
345             	3.00502102e+02
346             	3.00502255e+02
347             	3.00502310e+02
348             	3.00502440e+02
349             	3.00502575e+02
350             	3.00502754e+02
351             	3.00502962e+02
352             	3.00503155e+02
353             	3.00503319e+02
354             	3.00503439e+02
355             	3.00503718e+02
356             	3.00503945e+02
357             	3.00504140e+02
358             	3.00504313e+02
359             	3.00504443e+02
360             	3.00504570e+02
361             	3.00504636e+02
362             	3.00504619e+02
363             	3.00504685e+02
364             	3.00504772e+02
365             	3.00504883e+02
366             	3.00505036e+02
367             	3.00505156e+02
368             	3.00505316e+02
369             	3.00505487e+02
370             	3.00505658e+02
371             	3.00505846e+02
372             	3.00506023e+02
373             	3.00506184e+02
374             	3.00506333e+02
375             	3.00506462e+02
376             	3.00506533e+02
377             	3.00506571e+02
378             	3.00506782e+02
379             	3.00506902e+02
380             	3.00506984e+02
381             	3.00507083e+02
382             	3.00507221e+02
383             	3.00507323e+02
384             	3.00507442e+02
385             	3.00507491e+02
386             	3.00507587e+02
387             	3.00507732e+02
388             	3.00507894e+02
389             	3.00508059e+02
390             	3.00508180e+02
391             	3.00508205e+02
392             	3.00508321e+02
393             	3.00508465e+02
394             	3.00508575e+02
395             	3.00508646e+02
396             	3.00508685e+02
397             	3.00508669e+02
398             	3.00508736e+02
399             	3.00508831e+02
400             	3.00508963e+02
401             	3.00509047e+02
402             	3.00509083e+02
403             	3.00509150e+02
404             	3.00509266e+02
405             	3.00509386e+02
406             	3.00509526e+02
407             	3.00509651e+02
408             	3.00509812e+02
409             	3.00509982e+02
410             	3.00510140e+02
411             	3.00510324e+02
412             	3.00510412e+02
413             	3.00510594e+02
414             	3.00510666e+02
415             	3.00510807e+02
416             	3.00510909e+02
417             	3.00510963e+02
418             	3.00511046e+02
419             	3.00511120e+02
420             	3.00511160e+02
421             	3.00511216e+02
422             	3.00511303e+02
423             	3.00511366e+02
424             	3.00511453e+02
425             	3.00511552e+02
426             	3.00511611e+02
427             	3.00511674e+02
428             	3.00511744e+02
429             	3.00511773e+02
430             	3.00511839e+02
431             	3.00511904e+02
432             	3.00511947e+02
433             	3.00512007e+02
434             	3.00512077e+02
435             	3.00512161e+02
436             	3.00512249e+02
437             	3.00512349e+02
438             	3.00512434e+02
439             	3.00512550e+02
440             	3.00512682e+02
441             	3.00512795e+02
442             	3.00512917e+02
443             	3.00513046e+02
444             	3.00513132e+02
445             	3.00513237e+02
446             	3.00513322e+02
447             	3.00513412e+02
448             	3.00513472e+02
449             	3.00513590e+02
450             	3.00513666e+02
451             	3.00513752e+02
452             	3.00513830e+02
453             	3.00513881e+02
454             	3.00513967e+02
455             	3.00514038e+02
456             	3.00514085e+02
457             	3.00514155e+02
458             	3.00514224e+02
459             	3.00514272e+02
460             	3.00514326e+02
461             	3.00514365e+02
462             	3.00514402e+02
463             	3.00514454e+02
464             	3.00514509e+02
465             	3.00514541e+02
466             	3.00514594e+02
467             	3.00514648e+02
468             	3.00514701e+02
469             	3.00514755e+02
470             	3.00514814e+02
471             	3.00514857e+02
472             	3.00514925e+02
473             	3.00514983e+02
474             	3.00515016e+02
475             	3.00515076e+02
476             	3.00515151e+02
477             	3.00515203e+02
478             	3.00515287e+02
479             	3.00515363e+02
480             	3.00515422e+02
481             	3.00515509e+02
482             	3.00515599e+02
483             	3.00515662e+02
484             	3.00515750e+02
485             	3.00515837e+02
486             	3.00515904e+02
487             	3.00515994e+02
488             	3.00516082e+02
489             	3.00516147e+02
490             	3.00516233e+02
491             	3.00516314e+02
492             	3.00516370e+02
493             	3.00516446e+02
494             	3.00516518e+02
495             	3.00516565e+02
496             	3.00516623e+02
497             	3.00516680e+02
498             	3.00516712e+02
499             	3.00516763e+02
500             	3.00516812e+02
501             	3.00516838e+02
502             	3.00516859e+02
503             	3.00516919e+02
504             	3.00516952e+02
505             	3.00517003e+02
506             	3.00517054e+02
507             	3.00517083e+02
508             	3.00517131e+02
509             	3.00517178e+02
510             	3.00517204e+02
511             	3.00517249e+02
512             	3.00517293e+02
513             	3.00517317e+02
514             	3.00517366e+02
515             	3.00517421e+02
516             	3.00517429e+02
517             	3.00517466e+02
518             	3.00517506e+02
519             	3.00517525e+02
520             	3.00517586e+02
521             	3.00517640e+02
522             	3.00517677e+02
523             	3.00517738e+02
524             	3.00517800e+02
525             	3.00517843e+02
526             	3.00517911e+02
527             	3.00517981e+02
528             	3.00518033e+02
529             	3.00518109e+02
530             	3.00518186e+02
531             	3.00518243e+02
532             	3.00518323e+02
533             	3.00518401e+02
534             	3.00518454e+02
535             	3.00518527e+02
536             	3.00518595e+02
537             	3.00518632e+02
538             	3.00518690e+02
539             	3.00518746e+02
540             	3.00518778e+02
541             	3.00518827e+02
542             	3.00518867e+02
543             	3.00518896e+02
544             	3.00518942e+02
545             	3.00518982e+02
546             	3.00519006e+02
547             	3.00519050e+02
548             	3.00519093e+02
549             	3.00519106e+02
550             	3.00519148e+02
551             	3.00519186e+02
552             	3.00519201e+02
553             	3.00519236e+02
554             	3.00519271e+02
555             	3.00519286e+02
556             	3.00519324e+02
557             	3.00519362e+02
558             	3.00519379e+02
559             	3.00519419e+02
560             	3.00519459e+02
561             	3.00519478e+02
562             	3.00519518e+02
563             	3.00519557e+02
564             	3.00519570e+02
565             	3.00519616e+02
566             	3.00519659e+02
567             	3.00519676e+02
568             	3.00519714e+02
569             	3.00519765e+02
570             	3.00519804e+02
571             	3.00519832e+02
572             	3.00519876e+02
573             	3.00519904e+02
574             	3.00519958e+02
575             	3.00520016e+02
576             	3.00520053e+02
577             	3.00520111e+02
578             	3.00520167e+02
579             	3.00520199e+02
580             	3.00520252e+02
581             	3.00520304e+02
582             	3.00520335e+02
583             	3.00520388e+02
584             	3.00520442e+02
585             	3.00520480e+02
586             	3.00520541e+02
587             	3.00520592e+02
588             	3.00520626e+02
589             	3.00520661e+02
590             	3.00520714e+02
591             	3.00520734e+02
592             	3.00520748e+02
593             	3.00520784e+02
594             	3.00520789e+02
595             	3.00520807e+02
596             	3.00520822e+02
597             	3.00520821e+02
598             	3.00520845e+02
599             	3.00520858e+02
600             	3.00520851e+02
601             	3.00520867e+02
602             	3.00520885e+02
603             	3.00520881e+02
604             	3.00520899e+02
605             	3.00520954e+02
606             	3.00520942e+02
607             	3.00520965e+02
608             	3.00520995e+02
609             	3.00521011e+02
610             	3.00521056e+02
611             	3.00521104e+02
612             	3.00521133e+02
613             	3.00521187e+02
614             	3.00521242e+02
615             	3.00521279e+02
616             	3.00521339e+02
617             	3.00521402e+02
618             	3.00521445e+02
619             	3.00521469e+02
620             	3.00521544e+02
621             	3.00521589e+02
