# Region        : cellZone component_4
# Cells         : 198
# Volume        : 1.56705154e-01
# Time          	volAverage(T)
1               	3.00915610e+02
2               	3.01821390e+02
3               	3.02684217e+02
4               	3.03515537e+02
5               	3.04327062e+02
6               	3.05121627e+02
7               	3.05901970e+02
8               	3.06669556e+02
9               	3.07430574e+02
10              	3.08183076e+02
11              	3.08923558e+02
12              	3.09652190e+02
13              	3.10368061e+02
14              	3.11073774e+02
15              	3.11771485e+02
16              	3.12456750e+02
17              	3.13119387e+02
18              	3.13795059e+02
19              	3.14460322e+02
20              	3.15111103e+02
21              	3.15746667e+02
22              	3.16371946e+02
23              	3.16996600e+02
24              	3.17620203e+02
25              	3.18236718e+02
26              	3.18844683e+02
27              	3.19437946e+02
28              	3.20015990e+02
29              	3.20583095e+02
30              	3.21131337e+02
31              	3.21660318e+02
32              	3.22175488e+02
33              	3.22676549e+02
34              	3.23169785e+02
35              	3.23651685e+02
36              	3.24128303e+02
37              	3.24605383e+02
38              	3.25092482e+02
39              	3.25584670e+02
40              	3.26080495e+02
41              	3.26577134e+02
42              	3.27068764e+02
43              	3.27554168e+02
44              	3.28042723e+02
45              	3.28533972e+02
46              	3.29026415e+02
47              	3.29509428e+02
48              	3.29975381e+02
49              	3.30433716e+02
50              	3.30878240e+02
51              	3.31298003e+02
52              	3.31693089e+02
53              	3.32074108e+02
54              	3.32469473e+02
55              	3.32879782e+02
56              	3.33290147e+02
57              	3.33699630e+02
58              	3.34109436e+02
59              	3.34518975e+02
60              	3.34929483e+02
61              	3.35336214e+02
62              	3.35743752e+02
63              	3.36156840e+02
64              	3.36567879e+02
65              	3.36974780e+02
66              	3.37370898e+02
67              	3.37758600e+02
68              	3.38141053e+02
69              	3.38517139e+02
70              	3.38888464e+02
71              	3.39256499e+02
72              	3.39621749e+02
73              	3.39981960e+02
74              	3.40335271e+02
75              	3.40681957e+02
76              	3.41021381e+02
77              	3.41355611e+02
78              	3.41684267e+02
79              	3.42007643e+02
80              	3.42324848e+02
81              	3.42636208e+02
82              	3.42942845e+02
83              	3.43245238e+02
84              	3.43546548e+02
85              	3.43850206e+02
86              	3.44153636e+02
87              	3.44459026e+02
88              	3.44756543e+02
89              	3.45044138e+02
90              	3.45316998e+02
91              	3.45572304e+02
92              	3.45824871e+02
93              	3.46065935e+02
94              	3.46289234e+02
95              	3.46505680e+02
96              	3.46723073e+02
97              	3.46938084e+02
98              	3.47160772e+02
99              	3.47388499e+02
100             	3.47621200e+02
101             	3.47860755e+02
102             	3.48088412e+02
103             	3.48307881e+02
104             	3.48514863e+02
105             	3.48713288e+02
106             	3.48906397e+02
107             	3.49092094e+02
108             	3.49276469e+02
109             	3.49460502e+02
110             	3.49643055e+02
111             	3.49830168e+02
112             	3.50021307e+02
113             	3.50214311e+02
114             	3.50414060e+02
115             	3.50615848e+02
116             	3.50818772e+02
117             	3.51023247e+02
118             	3.51225068e+02
119             	3.51422786e+02
120             	3.51618066e+02
121             	3.51810701e+02
122             	3.52001684e+02
123             	3.52191337e+02
124             	3.52380971e+02
125             	3.52573605e+02
126             	3.52765720e+02
127             	3.52958029e+02
128             	3.53150728e+02
129             	3.53342211e+02
130             	3.53532603e+02
131             	3.53720144e+02
132             	3.53903604e+02
133             	3.54083610e+02
134             	3.54261345e+02
135             	3.54438216e+02
136             	3.54615155e+02
137             	3.54792429e+02
138             	3.54970962e+02
139             	3.55151000e+02
140             	3.55331506e+02
141             	3.55510308e+02
142             	3.55687463e+02
143             	3.55861712e+02
144             	3.56031496e+02
145             	3.56197890e+02
146             	3.56360895e+02
147             	3.56518940e+02
148             	3.56673149e+02
149             	3.56825177e+02
150             	3.56977235e+02
151             	3.57124148e+02
152             	3.57270435e+02
153             	3.57416435e+02
154             	3.57561162e+02
155             	3.57703161e+02
156             	3.57843729e+02
157             	3.57984240e+02
158             	3.58123357e+02
159             	3.58260759e+02
160             	3.58396926e+02
161             	3.58533102e+02
162             	3.58670330e+02
163             	3.58808541e+02
164             	3.58948681e+02
165             	3.59090000e+02
166             	3.59231382e+02
167             	3.59371730e+02
168             	3.59509569e+02
169             	3.59646802e+02
170             	3.59783098e+02
171             	3.59916927e+02
172             	3.60047886e+02
173             	3.60176526e+02
174             	3.60303704e+02
175             	3.60430291e+02
176             	3.60554276e+02
177             	3.60675400e+02
178             	3.60795355e+02
179             	3.60914008e+02
180             	3.61031140e+02
181             	3.61145668e+02
182             	3.61257939e+02
183             	3.61369267e+02
184             	3.61478536e+02
185             	3.61585807e+02
186             	3.61692118e+02
187             	3.61798175e+02
188             	3.61904590e+02
189             	3.62010663e+02
190             	3.62117715e+02
191             	3.62225046e+02
192             	3.62331622e+02
193             	3.62437730e+02
194             	3.62543629e+02
195             	3.62649317e+02
196             	3.62753907e+02
197             	3.62856867e+02
198             	3.62958641e+02
199             	3.63059142e+02
200             	3.63159462e+02
201             	3.63259229e+02
202             	3.63356511e+02
203             	3.63453216e+02
204             	3.63548944e+02
205             	3.63642977e+02
206             	3.63735552e+02
207             	3.63825989e+02
208             	3.63915247e+02
209             	3.64002451e+02
210             	3.64087934e+02
211             	3.64172090e+02
212             	3.64255504e+02
213             	3.64338780e+02
214             	3.64421695e+02
215             	3.64503711e+02
216             	3.64585601e+02
217             	3.64667493e+02
218             	3.64749231e+02
219             	3.64830298e+02
220             	3.64911205e+02
221             	3.64991729e+02
222             	3.65070974e+02
223             	3.65149271e+02
224             	3.65226698e+02
225             	3.65303535e+02
226             	3.65380550e+02
227             	3.65455577e+02
228             	3.65530036e+02
229             	3.65604194e+02
230             	3.65677643e+02
231             	3.65749947e+02
232             	3.65821255e+02
233             	3.65891409e+02
234             	3.65959690e+02
235             	3.66026684e+02
236             	3.66092828e+02
237             	3.66158161e+02
238             	3.66222752e+02
239             	3.66286650e+02
240             	3.66349244e+02
241             	3.66412127e+02
242             	3.66474941e+02
243             	3.66537287e+02
244             	3.66599105e+02
245             	3.66660097e+02
246             	3.66721284e+02
247             	3.66781850e+02
248             	3.66841677e+02
249             	3.66900878e+02
250             	3.66959809e+02
251             	3.67019024e+02
252             	3.67077916e+02
253             	3.67135380e+02
254             	3.67192596e+02
255             	3.67249564e+02
256             	3.67305956e+02
257             	3.67361273e+02
258             	3.67416450e+02
259             	3.67470656e+02
260             	3.67523663e+02
261             	3.67575869e+02
262             	3.67627757e+02
263             	3.67679335e+02
264             	3.67730238e+02
265             	3.67781111e+02
266             	3.67831750e+02
267             	3.67882184e+02
268             	3.67932259e+02
269             	3.67981596e+02
270             	3.68030785e+02
271             	3.68079816e+02
272             	3.68128159e+02
273             	3.68175715e+02
274             	3.68222762e+02
275             	3.68269833e+02
276             	3.68316354e+02
277             	3.68361999e+02
278             	3.68407364e+02
279             	3.68452405e+02
280             	3.68496933e+02
281             	3.68541117e+02
282             	3.68584340e+02
283             	3.68627062e+02
284             	3.68669196e+02
285             	3.68710610e+02
286             	3.68751546e+02
287             	3.68792203e+02
288             	3.68832454e+02
289             	3.68872438e+02
290             	3.68912245e+02
291             	3.68952084e+02
292             	3.68991980e+02
293             	3.69031710e+02
294             	3.69070995e+02
295             	3.69110124e+02
296             	3.69148802e+02
297             	3.69186917e+02
298             	3.69224642e+02
299             	3.69262338e+02
300             	3.69299855e+02
301             	3.69336193e+02
302             	3.69372271e+02
303             	3.69408198e+02
304             	3.69443714e+02
305             	3.69478456e+02
306             	3.69512688e+02
307             	3.69546619e+02
308             	3.69580198e+02
309             	3.69613139e+02
310             	3.69645604e+02
311             	3.69677606e+02
312             	3.69709461e+02
313             	3.69740866e+02
314             	3.69772200e+02
315             	3.69803538e+02
316             	3.69834919e+02
317             	3.69865897e+02
318             	3.69896672e+02
319             	3.69927323e+02
320             	3.69957754e+02
321             	3.69987747e+02
322             	3.70017484e+02
323             	3.70047036e+02
324             	3.70076521e+02
325             	3.70105385e+02
326             	3.70133768e+02
327             	3.70162032e+02
328             	3.70190088e+02
329             	3.70217823e+02
330             	3.70245015e+02
331             	3.70272308e+02
332             	3.70299196e+02
333             	3.70325480e+02
334             	3.70351382e+02
335             	3.70376945e+02
336             	3.70402254e+02
337             	3.70427325e+02
338             	3.70452240e+02
339             	3.70477170e+02
340             	3.70501953e+02
341             	3.70526662e+02
342             	3.70551127e+02
343             	3.70575655e+02
344             	3.70599928e+02
345             	3.70623908e+02
346             	3.70647674e+02
347             	3.70671476e+02
348             	3.70694432e+02
349             	3.70717172e+02
350             	3.70739903e+02
351             	3.70762530e+02
352             	3.70784865e+02
353             	3.70806781e+02
354             	3.70828528e+02
355             	3.70849920e+02
356             	3.70871006e+02
357             	3.70891765e+02
358             	3.70912192e+02
359             	3.70932373e+02
360             	3.70952376e+02
361             	3.70972266e+02
362             	3.70992091e+02
363             	3.71011835e+02
364             	3.71031452e+02
365             	3.71050929e+02
366             	3.71070406e+02
367             	3.71089653e+02
368             	3.71108821e+02
369             	3.71127798e+02
370             	3.71146604e+02
371             	3.71165252e+02
372             	3.71183825e+02
373             	3.71202269e+02
374             	3.71220406e+02
375             	3.71238220e+02
376             	3.71255945e+02
377             	3.71273571e+02
378             	3.71290985e+02
379             	3.71308072e+02
380             	3.71324928e+02
381             	3.71341728e+02
382             	3.71358267e+02
383             	3.71374489e+02
384             	3.71390520e+02
385             	3.71406432e+02
386             	3.71422283e+02
387             	3.71438012e+02
388             	3.71453654e+02
389             	3.71469262e+02
390             	3.71484754e+02
391             	3.71500130e+02
392             	3.71515391e+02
393             	3.71530504e+02
394             	3.71545521e+02
395             	3.71560370e+02
396             	3.71575048e+02
397             	3.71589557e+02
398             	3.71603905e+02
399             	3.71618054e+02
400             	3.71632101e+02
401             	3.71646038e+02
402             	3.71659823e+02
403             	3.71673408e+02
404             	3.71686823e+02
405             	3.71700082e+02
406             	3.71713249e+02
407             	3.71726218e+02
408             	3.71738980e+02
409             	3.71751574e+02
410             	3.71764194e+02
411             	3.71776796e+02
412             	3.71789248e+02
413             	3.71801596e+02
414             	3.71813998e+02
415             	3.71826337e+02
416             	3.71838545e+02
417             	3.71850564e+02
418             	3.71862527e+02
419             	3.71874402e+02
420             	3.71886092e+02
421             	3.71897587e+02
422             	3.71908926e+02
423             	3.71920285e+02
424             	3.71931423e+02
425             	3.71942513e+02
426             	3.71953493e+02
427             	3.71964333e+02
428             	3.71975142e+02
429             	3.71985853e+02
430             	3.71996399e+02
431             	3.72006699e+02
432             	3.72016823e+02
433             	3.72026936e+02
434             	3.72036947e+02
435             	3.72046809e+02
436             	3.72056548e+02
437             	3.72066182e+02
438             	3.72075828e+02
439             	3.72085463e+02
440             	3.72095041e+02
441             	3.72104539e+02
442             	3.72113931e+02
443             	3.72123362e+02
444             	3.72132698e+02
445             	3.72141933e+02
446             	3.72151022e+02
447             	3.72159981e+02
448             	3.72168987e+02
449             	3.72177902e+02
450             	3.72186691e+02
451             	3.72195346e+02
452             	3.72203894e+02
453             	3.72212485e+02
454             	3.72221005e+02
455             	3.72229444e+02
456             	3.72237778e+02
457             	3.72245989e+02
458             	3.72254204e+02
459             	3.72262320e+02
460             	3.72270349e+02
461             	3.72278230e+02
462             	3.72285896e+02
463             	3.72293559e+02
464             	3.72301160e+02
465             	3.72308664e+02
466             	3.72316026e+02
467             	3.72323317e+02
468             	3.72330544e+02
469             	3.72337782e+02
470             	3.72344941e+02
471             	3.72351998e+02
472             	3.72358942e+02
473             	3.72365949e+02
474             	3.72372838e+02
475             	3.72379669e+02
476             	3.72386417e+02
477             	3.72393083e+02
478             	3.72399786e+02
479             	3.72406427e+02
480             	3.72413039e+02
481             	3.72419562e+02
482             	3.72425979e+02
483             	3.72432408e+02
484             	3.72438790e+02
485             	3.72445104e+02
486             	3.72451267e+02
487             	3.72457319e+02
488             	3.72463418e+02
489             	3.72469456e+02
490             	3.72475408e+02
491             	3.72481240e+02
492             	3.72486952e+02
493             	3.72492716e+02
494             	3.72498411e+02
495             	3.72504018e+02
496             	3.72509533e+02
497             	3.72514982e+02
498             	3.72520454e+02
499             	3.72525875e+02
500             	3.72531247e+02
501             	3.72536550e+02
502             	3.72541806e+02
503             	3.72547091e+02
504             	3.72552343e+02
505             	3.72557522e+02
506             	3.72562587e+02
507             	3.72567596e+02
508             	3.72572622e+02
509             	3.72577614e+02
510             	3.72582534e+02
511             	3.72587367e+02
512             	3.72592130e+02
513             	3.72596925e+02
514             	3.72601684e+02
515             	3.72606391e+02
516             	3.72611019e+02
517             	3.72615584e+02
518             	3.72620166e+02
519             	3.72624696e+02
520             	3.72629156e+02
521             	3.72633524e+02
522             	3.72637821e+02
523             	3.72642130e+02
524             	3.72646404e+02
525             	3.72650618e+02
526             	3.72654769e+02
527             	3.72658876e+02
528             	3.72663016e+02
529             	3.72667140e+02
530             	3.72671214e+02
531             	3.72675218e+02
532             	3.72679183e+02
533             	3.72683177e+02
534             	3.72687141e+02
535             	3.72691043e+02
536             	3.72694886e+02
537             	3.72698685e+02
538             	3.72702497e+02
539             	3.72706267e+02
540             	3.72709984e+02
541             	3.72713631e+02
542             	3.72717240e+02
543             	3.72720866e+02
544             	3.72724467e+02
545             	3.72728014e+02
546             	3.72731502e+02
547             	3.72734952e+02
548             	3.72738419e+02
549             	3.72741858e+02
550             	3.72745254e+02
551             	3.72748557e+02
552             	3.72751819e+02
553             	3.72755088e+02
554             	3.72758331e+02
555             	3.72761513e+02
556             	3.72764636e+02
557             	3.72767729e+02
558             	3.72770832e+02
559             	3.72773898e+02
560             	3.72776932e+02
561             	3.72779915e+02
562             	3.72782871e+02
563             	3.72785831e+02
564             	3.72788783e+02
565             	3.72791681e+02
566             	3.72794532e+02
567             	3.72797370e+02
568             	3.72800218e+02
569             	3.72803050e+02
570             	3.72805838e+02
571             	3.72808587e+02
572             	3.72811319e+02
573             	3.72814054e+02
574             	3.72816772e+02
575             	3.72819436e+02
576             	3.72822057e+02
577             	3.72824658e+02
578             	3.72827253e+02
579             	3.72829832e+02
580             	3.72832358e+02
581             	3.72834842e+02
582             	3.72837309e+02
583             	3.72839769e+02
584             	3.72842215e+02
585             	3.72844611e+02
586             	3.72846969e+02
587             	3.72849312e+02
588             	3.72851648e+02
589             	3.72853968e+02
590             	3.72856250e+02
591             	3.72858490e+02
592             	3.72860718e+02
593             	3.72862940e+02
594             	3.72865151e+02
595             	3.72867322e+02
596             	3.72869462e+02
597             	3.72871595e+02
598             	3.72873721e+02
599             	3.72875835e+02
600             	3.72877911e+02
601             	3.72879967e+02
602             	3.72882003e+02
603             	3.72884043e+02
604             	3.72886081e+02
605             	3.72888071e+02
606             	3.72890036e+02
607             	3.72891996e+02
608             	3.72893944e+02
609             	3.72895892e+02
610             	3.72897802e+02
611             	3.72899696e+02
612             	3.72901576e+02
613             	3.72903448e+02
614             	3.72905304e+02
615             	3.72907115e+02
616             	3.72908913e+02
617             	3.72910704e+02
618             	3.72912463e+02
619             	3.72914220e+02
620             	3.72915935e+02
621             	3.72917624e+02
