# Region        : cellZone component_1
# Cells         : 75
# Volume        : 1.38249332e-01
# Time          	volAverage(T)
1               	3.00244479e+02
2               	3.00485790e+02
3               	3.00709098e+02
4               	3.00920827e+02
5               	3.01129519e+02
6               	3.01332082e+02
7               	3.01530951e+02
8               	3.01729816e+02
9               	3.01924194e+02
10              	3.02120974e+02
11              	3.02314520e+02
12              	3.02503546e+02
13              	3.02680977e+02
14              	3.02851964e+02
15              	3.03018704e+02
16              	3.03184119e+02
17              	3.03355724e+02
18              	3.03521105e+02
19              	3.03689872e+02
20              	3.03851216e+02
21              	3.04012657e+02
22              	3.04180412e+02
23              	3.04342622e+02
24              	3.04502008e+02
25              	3.04663636e+02
26              	3.04828207e+02
27              	3.04985185e+02
28              	3.05144761e+02
29              	3.05301495e+02
30              	3.05453476e+02
31              	3.05600870e+02
32              	3.05745314e+02
33              	3.05880779e+02
34              	3.06008138e+02
35              	3.06131434e+02
36              	3.06249863e+02
37              	3.06376605e+02
38              	3.06492432e+02
39              	3.06599064e+02
40              	3.06696970e+02
41              	3.06792990e+02
42              	3.06890478e+02
43              	3.06984784e+02
44              	3.07074513e+02
45              	3.07167376e+02
46              	3.07259879e+02
47              	3.07350624e+02
48              	3.07446516e+02
49              	3.07542823e+02
50              	3.07634938e+02
51              	3.07715349e+02
52              	3.07787341e+02
53              	3.07849620e+02
54              	3.07910607e+02
55              	3.07975666e+02
56              	3.08043672e+02
57              	3.08107712e+02
58              	3.08174472e+02
59              	3.08243653e+02
60              	3.08315368e+02
61              	3.08387724e+02
62              	3.08460794e+02
63              	3.08532735e+02
64              	3.08606863e+02
65              	3.08672919e+02
66              	3.08725969e+02
67              	3.08772094e+02
68              	3.08815391e+02
69              	3.08862811e+02
70              	3.08907798e+02
71              	3.08950347e+02
72              	3.08994593e+02
73              	3.09040481e+02
74              	3.09088495e+02
75              	3.09137983e+02
76              	3.09186481e+02
77              	3.09237521e+02
78              	3.09289248e+02
79              	3.09342687e+02
80              	3.09396793e+02
81              	3.09451275e+02
82              	3.09500071e+02
83              	3.09547361e+02
84              	3.09589868e+02
85              	3.09628708e+02
86              	3.09666238e+02
87              	3.09703782e+02
88              	3.09742235e+02
89              	3.09781243e+02
90              	3.09822190e+02
91              	3.09863970e+02
92              	3.09909066e+02
93              	3.09955335e+02
94              	3.10002184e+02
95              	3.10048776e+02
96              	3.10098178e+02
97              	3.10144258e+02
98              	3.10181956e+02
99              	3.10219012e+02
100             	3.10253723e+02
101             	3.10287204e+02
102             	3.10318487e+02
103             	3.10348140e+02
104             	3.10377564e+02
105             	3.10406241e+02
106             	3.10437071e+02
107             	3.10471552e+02
108             	3.10505248e+02
109             	3.10540038e+02
110             	3.10576255e+02
111             	3.10612813e+02
112             	3.10649960e+02
113             	3.10688753e+02
114             	3.10726878e+02
115             	3.10763502e+02
116             	3.10798152e+02
117             	3.10828863e+02
118             	3.10858435e+02
119             	3.10886258e+02
120             	3.10913332e+02
121             	3.10940408e+02
122             	3.10968374e+02
123             	3.10996562e+02
124             	3.11025960e+02
125             	3.11057532e+02
126             	3.11090654e+02
127             	3.11123955e+02
128             	3.11158188e+02
129             	3.11193065e+02
130             	3.11231545e+02
131             	3.11267947e+02
132             	3.11301930e+02
133             	3.11334653e+02
134             	3.11366362e+02
135             	3.11395819e+02
136             	3.11422851e+02
137             	3.11445857e+02
138             	3.11468805e+02
139             	3.11490389e+02
140             	3.11510904e+02
141             	3.11530843e+02
142             	3.11551575e+02
143             	3.11572557e+02
144             	3.11595294e+02
145             	3.11619512e+02
146             	3.11644872e+02
147             	3.11671538e+02
148             	3.11699547e+02
149             	3.11725571e+02
150             	3.11752010e+02
151             	3.11777645e+02
152             	3.11804089e+02
153             	3.11829677e+02
154             	3.11853260e+02
155             	3.11876193e+02
156             	3.11897124e+02
157             	3.11916697e+02
158             	3.11935647e+02
159             	3.11954558e+02
160             	3.11973430e+02
161             	3.11991099e+02
162             	3.12009407e+02
163             	3.12028879e+02
164             	3.12049006e+02
165             	3.12069245e+02
166             	3.12092465e+02
167             	3.12114606e+02
168             	3.12136907e+02
169             	3.12158912e+02
170             	3.12181526e+02
171             	3.12203523e+02
172             	3.12223716e+02
173             	3.12243477e+02
174             	3.12260453e+02
175             	3.12276125e+02
176             	3.12291380e+02
177             	3.12306570e+02
178             	3.12321095e+02
179             	3.12335183e+02
180             	3.12348888e+02
181             	3.12362843e+02
182             	3.12377287e+02
183             	3.12392454e+02
184             	3.12408122e+02
185             	3.12424638e+02
186             	3.12441351e+02
187             	3.12457307e+02
188             	3.12473496e+02
189             	3.12489368e+02
190             	3.12504525e+02
191             	3.12519361e+02
192             	3.12533845e+02
193             	3.12547696e+02
194             	3.12560774e+02
195             	3.12572010e+02
196             	3.12583057e+02
197             	3.12594262e+02
198             	3.12604080e+02
199             	3.12614228e+02
200             	3.12624549e+02
201             	3.12634870e+02
202             	3.12645089e+02
203             	3.12656078e+02
204             	3.12666862e+02
205             	3.12678754e+02
206             	3.12689898e+02
207             	3.12700710e+02
208             	3.12711330e+02
209             	3.12722073e+02
210             	3.12732329e+02
211             	3.12741478e+02
212             	3.12749996e+02
213             	3.12758476e+02
214             	3.12765941e+02
215             	3.12773683e+02
216             	3.12781404e+02
217             	3.12789383e+02
218             	3.12797706e+02
219             	3.12806261e+02
220             	3.12815455e+02
221             	3.12824807e+02
222             	3.12834485e+02
223             	3.12844730e+02
224             	3.12854715e+02
225             	3.12864541e+02
226             	3.12874154e+02
227             	3.12883445e+02
228             	3.12892726e+02
229             	3.12902515e+02
230             	3.12911070e+02
231             	3.12918735e+02
232             	3.12925802e+02
233             	3.12932317e+02
234             	3.12938597e+02
235             	3.12944606e+02
236             	3.12950018e+02
237             	3.12955263e+02
238             	3.12960694e+02
239             	3.12966231e+02
240             	3.12971349e+02
241             	3.12977430e+02
242             	3.12983942e+02
243             	3.12990770e+02
244             	3.12998014e+02
245             	3.13005612e+02
246             	3.13013430e+02
247             	3.13021130e+02
248             	3.13028804e+02
249             	3.13036702e+02
250             	3.13044498e+02
251             	3.13052014e+02
252             	3.13059013e+02
253             	3.13066501e+02
254             	3.13072382e+02
255             	3.13078115e+02
256             	3.13082952e+02
257             	3.13087208e+02
258             	3.13090674e+02
259             	3.13094074e+02
260             	3.13097144e+02
261             	3.13099602e+02
262             	3.13102212e+02
263             	3.13105111e+02
264             	3.13107568e+02
265             	3.13110784e+02
266             	3.13114404e+02
267             	3.13118305e+02
268             	3.13122667e+02
269             	3.13127167e+02
270             	3.13131976e+02
271             	3.13137288e+02
272             	3.13142837e+02
273             	3.13148307e+02
274             	3.13153835e+02
275             	3.13159147e+02
276             	3.13164244e+02
277             	3.13170049e+02
278             	3.13175015e+02
279             	3.13179400e+02
280             	3.13183317e+02
281             	3.13186929e+02
282             	3.13190095e+02
283             	3.13192729e+02
284             	3.13194775e+02
285             	3.13196465e+02
286             	3.13197736e+02
287             	3.13199135e+02
288             	3.13200458e+02
289             	3.13202220e+02
290             	3.13204487e+02
291             	3.13207183e+02
292             	3.13210342e+02
293             	3.13213714e+02
294             	3.13217411e+02
295             	3.13221664e+02
296             	3.13225668e+02
297             	3.13230141e+02
298             	3.13234865e+02
299             	3.13239453e+02
300             	3.13243666e+02
301             	3.13247598e+02
302             	3.13251292e+02
303             	3.13254637e+02
304             	3.13257627e+02
305             	3.13261050e+02
306             	3.13263431e+02
307             	3.13265288e+02
308             	3.13267188e+02
309             	3.13269050e+02
310             	3.13270791e+02
311             	3.13272222e+02
312             	3.13273468e+02
313             	3.13274612e+02
314             	3.13275530e+02
315             	3.13276341e+02
316             	3.13277011e+02
317             	3.13278035e+02
318             	3.13279408e+02
319             	3.13280571e+02
320             	3.13282312e+02
321             	3.13284468e+02
322             	3.13286884e+02
323             	3.13289275e+02
324             	3.13292112e+02
325             	3.13295200e+02
326             	3.13298351e+02
327             	3.13301627e+02
328             	3.13304843e+02
329             	3.13307860e+02
330             	3.13310776e+02
331             	3.13313447e+02
332             	3.13315836e+02
333             	3.13318047e+02
334             	3.13320029e+02
335             	3.13321751e+02
336             	3.13323576e+02
337             	3.13324881e+02
338             	3.13325707e+02
339             	3.13326347e+02
340             	3.13326733e+02
341             	3.13326885e+02
342             	3.13326845e+02
343             	3.13326633e+02
344             	3.13326189e+02
345             	3.13325608e+02
346             	3.13325341e+02
347             	3.13324861e+02
348             	3.13324408e+02
349             	3.13324121e+02
350             	3.13324105e+02
351             	3.13324432e+02
352             	3.13325044e+02
353             	3.13325909e+02
354             	3.13326914e+02
355             	3.13328330e+02
356             	3.13329985e+02
357             	3.13331696e+02
358             	3.13333739e+02
359             	3.13335674e+02
360             	3.13337631e+02
361             	3.13339792e+02
362             	3.13342040e+02
363             	3.13344203e+02
364             	3.13346380e+02
365             	3.13348615e+02
366             	3.13350435e+02
367             	3.13352066e+02
368             	3.13353565e+02
369             	3.13354923e+02
370             	3.13356123e+02
371             	3.13357142e+02
372             	3.13357912e+02
373             	3.13358593e+02
374             	3.13359113e+02
375             	3.13359453e+02
376             	3.13359693e+02
377             	3.13359924e+02
378             	3.13360185e+02
379             	3.13360488e+02
380             	3.13360975e+02
381             	3.13361413e+02
382             	3.13362499e+02
383             	3.13363123e+02
384             	3.13363766e+02
385             	3.13364583e+02
386             	3.13365681e+02
387             	3.13366856e+02
388             	3.13367943e+02
389             	3.13369030e+02
390             	3.13370154e+02
391             	3.13370959e+02
392             	3.13372001e+02
393             	3.13373076e+02
394             	3.13373919e+02
395             	3.13375026e+02
396             	3.13376199e+02
397             	3.13377415e+02
398             	3.13378604e+02
399             	3.13379727e+02
400             	3.13380859e+02
401             	3.13381977e+02
402             	3.13383050e+02
403             	3.13384136e+02
404             	3.13385226e+02
405             	3.13386308e+02
406             	3.13387469e+02
407             	3.13388675e+02
408             	3.13389936e+02
409             	3.13391344e+02
410             	3.13392886e+02
411             	3.13394475e+02
412             	3.13396230e+02
413             	3.13397996e+02
414             	3.13399707e+02
415             	3.13401448e+02
416             	3.13403257e+02
417             	3.13404971e+02
418             	3.13406559e+02
419             	3.13408078e+02
420             	3.13409463e+02
421             	3.13410689e+02
422             	3.13411690e+02
423             	3.13412462e+02
424             	3.13413001e+02
425             	3.13413320e+02
426             	3.13413503e+02
427             	3.13413498e+02
428             	3.13413307e+02
429             	3.13412943e+02
430             	3.13412411e+02
431             	3.13411756e+02
432             	3.13410977e+02
433             	3.13410085e+02
434             	3.13409093e+02
435             	3.13407992e+02
436             	3.13406841e+02
437             	3.13405718e+02
438             	3.13404632e+02
439             	3.13403604e+02
440             	3.13402688e+02
441             	3.13401870e+02
442             	3.13401209e+02
443             	3.13400697e+02
444             	3.13400295e+02
445             	3.13399999e+02
446             	3.13399786e+02
447             	3.13399557e+02
448             	3.13399311e+02
449             	3.13399019e+02
450             	3.13398687e+02
451             	3.13398441e+02
452             	3.13397787e+02
453             	3.13396833e+02
454             	3.13395645e+02
455             	3.13394264e+02
456             	3.13392562e+02
457             	3.13390882e+02
458             	3.13389174e+02
459             	3.13387376e+02
460             	3.13385445e+02
461             	3.13383489e+02
462             	3.13381547e+02
463             	3.13379685e+02
464             	3.13377923e+02
465             	3.13376314e+02
466             	3.13374835e+02
467             	3.13373500e+02
468             	3.13372355e+02
469             	3.13371397e+02
470             	3.13370682e+02
471             	3.13370214e+02
472             	3.13369986e+02
473             	3.13369942e+02
474             	3.13370051e+02
475             	3.13370265e+02
476             	3.13370496e+02
477             	3.13370630e+02
478             	3.13370711e+02
479             	3.13370739e+02
480             	3.13370607e+02
481             	3.13370224e+02
482             	3.13369572e+02
483             	3.13368608e+02
484             	3.13367344e+02
485             	3.13365804e+02
486             	3.13364017e+02
487             	3.13362001e+02
488             	3.13359888e+02
489             	3.13357761e+02
490             	3.13355705e+02
491             	3.13353794e+02
492             	3.13352169e+02
493             	3.13350759e+02
494             	3.13349647e+02
495             	3.13348872e+02
496             	3.13348411e+02
497             	3.13348303e+02
498             	3.13348246e+02
499             	3.13348350e+02
500             	3.13348622e+02
501             	3.13348968e+02
502             	3.13349219e+02
503             	3.13349455e+02
504             	3.13349654e+02
505             	3.13349841e+02
506             	3.13349966e+02
507             	3.13349985e+02
508             	3.13349869e+02
509             	3.13349621e+02
510             	3.13349313e+02
511             	3.13348989e+02
512             	3.13348628e+02
513             	3.13348291e+02
514             	3.13348070e+02
515             	3.13348032e+02
516             	3.13348216e+02
517             	3.13348591e+02
518             	3.13349327e+02
519             	3.13350293e+02
520             	3.13351552e+02
521             	3.13353110e+02
522             	3.13354881e+02
523             	3.13356934e+02
524             	3.13359089e+02
525             	3.13361207e+02
526             	3.13363308e+02
527             	3.13365247e+02
528             	3.13366841e+02
529             	3.13368045e+02
530             	3.13368907e+02
531             	3.13369471e+02
532             	3.13369673e+02
533             	3.13369492e+02
534             	3.13368966e+02
535             	3.13368211e+02
536             	3.13367304e+02
537             	3.13366365e+02
538             	3.13365408e+02
539             	3.13364542e+02
540             	3.13363854e+02
541             	3.13363374e+02
542             	3.13363233e+02
543             	3.13363377e+02
544             	3.13363758e+02
545             	3.13364355e+02
546             	3.13365026e+02
547             	3.13366015e+02
548             	3.13367275e+02
549             	3.13368664e+02
550             	3.13370009e+02
551             	3.13371443e+02
552             	3.13372823e+02
553             	3.13374055e+02
554             	3.13375076e+02
555             	3.13375899e+02
556             	3.13376444e+02
557             	3.13376732e+02
558             	3.13376826e+02
559             	3.13376669e+02
560             	3.13376263e+02
561             	3.13375666e+02
562             	3.13375049e+02
563             	3.13374414e+02
564             	3.13373771e+02
565             	3.13373135e+02
566             	3.13372573e+02
567             	3.13372116e+02
568             	3.13371781e+02
569             	3.13371644e+02
570             	3.13371665e+02
571             	3.13371796e+02
572             	3.13372094e+02
573             	3.13372567e+02
574             	3.13373202e+02
575             	3.13373979e+02
576             	3.13374879e+02
577             	3.13375854e+02
578             	3.13376864e+02
579             	3.13377861e+02
580             	3.13378727e+02
581             	3.13379417e+02
582             	3.13379912e+02
583             	3.13380243e+02
584             	3.13380429e+02
585             	3.13380393e+02
586             	3.13380092e+02
587             	3.13379483e+02
588             	3.13378752e+02
589             	3.13377862e+02
590             	3.13376765e+02
591             	3.13375552e+02
592             	3.13374336e+02
593             	3.13373262e+02
594             	3.13372396e+02
595             	3.13371733e+02
596             	3.13371198e+02
597             	3.13370868e+02
598             	3.13370815e+02
599             	3.13371016e+02
600             	3.13371423e+02
601             	3.13372073e+02
602             	3.13372848e+02
603             	3.13373861e+02
604             	3.13374872e+02
605             	3.13375785e+02
606             	3.13376589e+02
607             	3.13377217e+02
608             	3.13377625e+02
609             	3.13377794e+02
610             	3.13377770e+02
611             	3.13377479e+02
612             	3.13376908e+02
613             	3.13376031e+02
614             	3.13374913e+02
615             	3.13373689e+02
616             	3.13372353e+02
617             	3.13371173e+02
618             	3.13370103e+02
619             	3.13369232e+02
620             	3.13368612e+02
621             	3.13368331e+02
