# Region        : cellZone component_0
# Cells         : 67
# Volume        : 9.16231629e-02
# Time          	volAverage(T)
1               	3.00452568e+02
2               	3.00896231e+02
3               	3.01319747e+02
4               	3.01724846e+02
5               	3.02127719e+02
6               	3.02518742e+02
7               	3.02910403e+02
8               	3.03302854e+02
9               	3.03697729e+02
10              	3.04083453e+02
11              	3.04466014e+02
12              	3.04846836e+02
13              	3.05223116e+02
14              	3.05597122e+02
15              	3.05970800e+02
16              	3.06342550e+02
17              	3.06714226e+02
18              	3.07090007e+02
19              	3.07460843e+02
20              	3.07829037e+02
21              	3.08193081e+02
22              	3.08550240e+02
23              	3.08910790e+02
24              	3.09271731e+02
25              	3.09620018e+02
26              	3.09974141e+02
27              	3.10324867e+02
28              	3.10677456e+02
29              	3.11018618e+02
30              	3.11357904e+02
31              	3.11690245e+02
32              	3.12022740e+02
33              	3.12350447e+02
34              	3.12668033e+02
35              	3.12977274e+02
36              	3.13282560e+02
37              	3.13582972e+02
38              	3.13879334e+02
39              	3.14172740e+02
40              	3.14463470e+02
41              	3.14755255e+02
42              	3.15038757e+02
43              	3.15306259e+02
44              	3.15566203e+02
45              	3.15829252e+02
46              	3.16082298e+02
47              	3.16325532e+02
48              	3.16572906e+02
49              	3.16818310e+02
50              	3.17069772e+02
51              	3.17305128e+02
52              	3.17532814e+02
53              	3.17759037e+02
54              	3.17981883e+02
55              	3.18212096e+02
56              	3.18441558e+02
57              	3.18648366e+02
58              	3.18855976e+02
59              	3.19072361e+02
60              	3.19285387e+02
61              	3.19484864e+02
62              	3.19680446e+02
63              	3.19868248e+02
64              	3.20061381e+02
65              	3.20263282e+02
66              	3.20449747e+02
67              	3.20628171e+02
68              	3.20805312e+02
69              	3.20977744e+02
70              	3.21148429e+02
71              	3.21302503e+02
72              	3.21467700e+02
73              	3.21623561e+02
74              	3.21776953e+02
75              	3.21924913e+02
76              	3.22073569e+02
77              	3.22208972e+02
78              	3.22349655e+02
79              	3.22504557e+02
80              	3.22650727e+02
81              	3.22801446e+02
82              	3.22950957e+02
83              	3.23088436e+02
84              	3.23227205e+02
85              	3.23360610e+02
86              	3.23478856e+02
87              	3.23599331e+02
88              	3.23721965e+02
89              	3.23837912e+02
90              	3.23948473e+02
91              	3.24067530e+02
92              	3.24198191e+02
93              	3.24328352e+02
94              	3.24438557e+02
95              	3.24543275e+02
96              	3.24648801e+02
97              	3.24756235e+02
98              	3.24859319e+02
99              	3.24960344e+02
100             	3.25055959e+02
101             	3.25155617e+02
102             	3.25240954e+02
103             	3.25326222e+02
104             	3.25417854e+02
105             	3.25511411e+02
106             	3.25600134e+02
107             	3.25687667e+02
108             	3.25780509e+02
109             	3.25881867e+02
110             	3.25982947e+02
111             	3.26080590e+02
112             	3.26171045e+02
113             	3.26268935e+02
114             	3.26366772e+02
115             	3.26461434e+02
116             	3.26550602e+02
117             	3.26639725e+02
118             	3.26729350e+02
119             	3.26818894e+02
120             	3.26911177e+02
121             	3.26998103e+02
122             	3.27099047e+02
123             	3.27199555e+02
124             	3.27299276e+02
125             	3.27387244e+02
126             	3.27475784e+02
127             	3.27575127e+02
128             	3.27663566e+02
129             	3.27743094e+02
130             	3.27817566e+02
131             	3.27892526e+02
132             	3.27968456e+02
133             	3.28047088e+02
134             	3.28125033e+02
135             	3.28206838e+02
136             	3.28295058e+02
137             	3.28382756e+02
138             	3.28462866e+02
139             	3.28541583e+02
140             	3.28621811e+02
141             	3.28696951e+02
142             	3.28766129e+02
143             	3.28831835e+02
144             	3.28891030e+02
145             	3.28953358e+02
146             	3.29018381e+02
147             	3.29083918e+02
148             	3.29148661e+02
149             	3.29213632e+02
150             	3.29277216e+02
151             	3.29339604e+02
152             	3.29403175e+02
153             	3.29465270e+02
154             	3.29525544e+02
155             	3.29586649e+02
156             	3.29646251e+02
157             	3.29705061e+02
158             	3.29763611e+02
159             	3.29820636e+02
160             	3.29876940e+02
161             	3.29932540e+02
162             	3.29986367e+02
163             	3.30036279e+02
164             	3.30081439e+02
165             	3.30127153e+02
166             	3.30173104e+02
167             	3.30219961e+02
168             	3.30262587e+02
169             	3.30304959e+02
170             	3.30348760e+02
171             	3.30394626e+02
172             	3.30444225e+02
173             	3.30489755e+02
174             	3.30536731e+02
175             	3.30584120e+02
176             	3.30629989e+02
177             	3.30674275e+02
178             	3.30716884e+02
179             	3.30757941e+02
180             	3.30793952e+02
181             	3.30827793e+02
182             	3.30862227e+02
183             	3.30896462e+02
184             	3.30932230e+02
185             	3.30965241e+02
186             	3.30998906e+02
187             	3.31032306e+02
188             	3.31067986e+02
189             	3.31106605e+02
190             	3.31145012e+02
191             	3.31181763e+02
192             	3.31215617e+02
193             	3.31248485e+02
194             	3.31280129e+02
195             	3.31310407e+02
196             	3.31336744e+02
197             	3.31364697e+02
198             	3.31390059e+02
199             	3.31416996e+02
200             	3.31443110e+02
201             	3.31468921e+02
202             	3.31496134e+02
203             	3.31520272e+02
204             	3.31544270e+02
205             	3.31569322e+02
206             	3.31594572e+02
207             	3.31620885e+02
208             	3.31647883e+02
209             	3.31674496e+02
210             	3.31698717e+02
211             	3.31724100e+02
212             	3.31748170e+02
213             	3.31771102e+02
214             	3.31793526e+02
215             	3.31815056e+02
216             	3.31836538e+02
217             	3.31857793e+02
218             	3.31878082e+02
219             	3.31898360e+02
220             	3.31920181e+02
221             	3.31943069e+02
222             	3.31965590e+02
223             	3.31987981e+02
224             	3.32010545e+02
225             	3.32033122e+02
226             	3.32055072e+02
227             	3.32076157e+02
228             	3.32095002e+02
229             	3.32113878e+02
230             	3.32130914e+02
231             	3.32147723e+02
232             	3.32164402e+02
233             	3.32180571e+02
234             	3.32196326e+02
235             	3.32213361e+02
236             	3.32231548e+02
237             	3.32248530e+02
238             	3.32266035e+02
239             	3.32284212e+02
240             	3.32302927e+02
241             	3.32321602e+02
242             	3.32339979e+02
243             	3.32356770e+02
244             	3.32373904e+02
245             	3.32390276e+02
246             	3.32405840e+02
247             	3.32420704e+02
248             	3.32434966e+02
249             	3.32449679e+02
250             	3.32463606e+02
251             	3.32478741e+02
252             	3.32494207e+02
253             	3.32509098e+02
254             	3.32524036e+02
255             	3.32537999e+02
256             	3.32552401e+02
257             	3.32565178e+02
258             	3.32576863e+02
259             	3.32588220e+02
260             	3.32598792e+02
261             	3.32608740e+02
262             	3.32618357e+02
263             	3.32627921e+02
264             	3.32638292e+02
265             	3.32649519e+02
266             	3.32662177e+02
267             	3.32675101e+02
268             	3.32687232e+02
269             	3.32699008e+02
270             	3.32710588e+02
271             	3.32721768e+02
272             	3.32733194e+02
273             	3.32744558e+02
274             	3.32755884e+02
275             	3.32767053e+02
276             	3.32777527e+02
277             	3.32787535e+02
278             	3.32797497e+02
279             	3.32807548e+02
280             	3.32817330e+02
281             	3.32826771e+02
282             	3.32835706e+02
283             	3.32844503e+02
284             	3.32853599e+02
285             	3.32862228e+02
286             	3.32870583e+02
287             	3.32878944e+02
288             	3.32887304e+02
289             	3.32895924e+02
290             	3.32904898e+02
291             	3.32913973e+02
292             	3.32923222e+02
293             	3.32931819e+02
294             	3.32940430e+02
295             	3.32948792e+02
296             	3.32956970e+02
297             	3.32964632e+02
298             	3.32971799e+02
299             	3.32978653e+02
300             	3.32985630e+02
301             	3.32992665e+02
302             	3.32999915e+02
303             	3.33007282e+02
304             	3.33014777e+02
305             	3.33022099e+02
306             	3.33029417e+02
307             	3.33035979e+02
308             	3.33042726e+02
309             	3.33049384e+02
310             	3.33055826e+02
311             	3.33062128e+02
312             	3.33068639e+02
313             	3.33075690e+02
314             	3.33082929e+02
315             	3.33090141e+02
316             	3.33097517e+02
317             	3.33104659e+02
318             	3.33111831e+02
319             	3.33118972e+02
320             	3.33125572e+02
321             	3.33131833e+02
322             	3.33137445e+02
323             	3.33143058e+02
324             	3.33148201e+02
325             	3.33153435e+02
326             	3.33158624e+02
327             	3.33163977e+02
328             	3.33169508e+02
329             	3.33175097e+02
330             	3.33180726e+02
331             	3.33186398e+02
332             	3.33191952e+02
333             	3.33197893e+02
334             	3.33203729e+02
335             	3.33209450e+02
336             	3.33215191e+02
337             	3.33220987e+02
338             	3.33226875e+02
339             	3.33232536e+02
340             	3.33237975e+02
341             	3.33242911e+02
342             	3.33247350e+02
343             	3.33251513e+02
344             	3.33255482e+02
345             	3.33259869e+02
346             	3.33264521e+02
347             	3.33268690e+02
348             	3.33273019e+02
349             	3.33277728e+02
350             	3.33282400e+02
351             	3.33287269e+02
352             	3.33292376e+02
353             	3.33297754e+02
354             	3.33302923e+02
355             	3.33307672e+02
356             	3.33312159e+02
357             	3.33316487e+02
358             	3.33320738e+02
359             	3.33324783e+02
360             	3.33328919e+02
361             	3.33332360e+02
362             	3.33336110e+02
363             	3.33339801e+02
364             	3.33343202e+02
365             	3.33346677e+02
366             	3.33350359e+02
367             	3.33353625e+02
368             	3.33356921e+02
369             	3.33360435e+02
370             	3.33364156e+02
371             	3.33367964e+02
372             	3.33371718e+02
373             	3.33375349e+02
374             	3.33379025e+02
375             	3.33382445e+02
376             	3.33385773e+02
377             	3.33389463e+02
378             	3.33392868e+02
379             	3.33396068e+02
380             	3.33399154e+02
381             	3.33402267e+02
382             	3.33405614e+02
383             	3.33408880e+02
384             	3.33411846e+02
385             	3.33414931e+02
386             	3.33418062e+02
387             	3.33421368e+02
388             	3.33424669e+02
389             	3.33427976e+02
390             	3.33431411e+02
391             	3.33434805e+02
392             	3.33438328e+02
393             	3.33441885e+02
394             	3.33445408e+02
395             	3.33448852e+02
396             	3.33452291e+02
397             	3.33455752e+02
398             	3.33458962e+02
399             	3.33462476e+02
400             	3.33465859e+02
401             	3.33469085e+02
402             	3.33472446e+02
403             	3.33475914e+02
404             	3.33479360e+02
405             	3.33482665e+02
406             	3.33485397e+02
407             	3.33488123e+02
408             	3.33490747e+02
409             	3.33493199e+02
410             	3.33495568e+02
411             	3.33498051e+02
412             	3.33500019e+02
413             	3.33502497e+02
414             	3.33505120e+02
415             	3.33507808e+02
416             	3.33510474e+02
417             	3.33513890e+02
418             	3.33517297e+02
419             	3.33520507e+02
420             	3.33523846e+02
421             	3.33527095e+02
422             	3.33530603e+02
423             	3.33534124e+02
424             	3.33537552e+02
425             	3.33540641e+02
426             	3.33543730e+02
427             	3.33546601e+02
428             	3.33548916e+02
429             	3.33551300e+02
430             	3.33553462e+02
431             	3.33555441e+02
432             	3.33557452e+02
433             	3.33559563e+02
434             	3.33561476e+02
435             	3.33563848e+02
436             	3.33565961e+02
437             	3.33567973e+02
438             	3.33570081e+02
439             	3.33572377e+02
440             	3.33574536e+02
441             	3.33576631e+02
442             	3.33578871e+02
443             	3.33581078e+02
444             	3.33583263e+02
445             	3.33585545e+02
446             	3.33587754e+02
447             	3.33589950e+02
448             	3.33592050e+02
449             	3.33594212e+02
450             	3.33596412e+02
451             	3.33598704e+02
452             	3.33600980e+02
453             	3.33603251e+02
454             	3.33605784e+02
455             	3.33608316e+02
456             	3.33610725e+02
457             	3.33613210e+02
458             	3.33615713e+02
459             	3.33618222e+02
460             	3.33620723e+02
461             	3.33622955e+02
462             	3.33625205e+02
463             	3.33627451e+02
464             	3.33629570e+02
465             	3.33631545e+02
466             	3.33633494e+02
467             	3.33635381e+02
468             	3.33637321e+02
469             	3.33639247e+02
470             	3.33641116e+02
471             	3.33642959e+02
472             	3.33644810e+02
473             	3.33646627e+02
474             	3.33648413e+02
475             	3.33650283e+02
476             	3.33652157e+02
477             	3.33653952e+02
478             	3.33655827e+02
479             	3.33657618e+02
480             	3.33659349e+02
481             	3.33661099e+02
482             	3.33662771e+02
483             	3.33664427e+02
484             	3.33666109e+02
485             	3.33667745e+02
486             	3.33669337e+02
487             	3.33670953e+02
488             	3.33672548e+02
489             	3.33674125e+02
490             	3.33675748e+02
491             	3.33677372e+02
492             	3.33679001e+02
493             	3.33680695e+02
494             	3.33682389e+02
495             	3.33684085e+02
496             	3.33685780e+02
497             	3.33687532e+02
498             	3.33689299e+02
499             	3.33691121e+02
500             	3.33692942e+02
501             	3.33694779e+02
502             	3.33696793e+02
503             	3.33698718e+02
504             	3.33700617e+02
505             	3.33702589e+02
506             	3.33704552e+02
507             	3.33706473e+02
508             	3.33708383e+02
509             	3.33710217e+02
510             	3.33711953e+02
511             	3.33713644e+02
512             	3.33715242e+02
513             	3.33716749e+02
514             	3.33718235e+02
515             	3.33719453e+02
516             	3.33720742e+02
517             	3.33722067e+02
518             	3.33723331e+02
519             	3.33724536e+02
520             	3.33725955e+02
521             	3.33727233e+02
522             	3.33728480e+02
523             	3.33729816e+02
524             	3.33731198e+02
525             	3.33732590e+02
526             	3.33734008e+02
527             	3.33735382e+02
528             	3.33736694e+02
529             	3.33737989e+02
530             	3.33739240e+02
531             	3.33740450e+02
532             	3.33741669e+02
533             	3.33742874e+02
534             	3.33744068e+02
535             	3.33745296e+02
536             	3.33746468e+02
537             	3.33747691e+02
538             	3.33748980e+02
539             	3.33750282e+02
540             	3.33751598e+02
541             	3.33752986e+02
542             	3.33754394e+02
543             	3.33755810e+02
544             	3.33757291e+02
545             	3.33758808e+02
546             	3.33760310e+02
547             	3.33761859e+02
548             	3.33763411e+02
549             	3.33765012e+02
550             	3.33766644e+02
551             	3.33768272e+02
552             	3.33769891e+02
553             	3.33771548e+02
554             	3.33773193e+02
555             	3.33774808e+02
556             	3.33776447e+02
557             	3.33778062e+02
558             	3.33779642e+02
559             	3.33781241e+02
560             	3.33782806e+02
561             	3.33784319e+02
562             	3.33785829e+02
563             	3.33787276e+02
564             	3.33788600e+02
565             	3.33789921e+02
566             	3.33791131e+02
567             	3.33792272e+02
568             	3.33793364e+02
569             	3.33794423e+02
570             	3.33795486e+02
571             	3.33796509e+02
572             	3.33797539e+02
573             	3.33798573e+02
574             	3.33799645e+02
575             	3.33800721e+02
576             	3.33801780e+02
577             	3.33802838e+02
578             	3.33803883e+02
579             	3.33804906e+02
580             	3.33805950e+02
581             	3.33807009e+02
582             	3.33808071e+02
583             	3.33809185e+02
584             	3.33810315e+02
585             	3.33811494e+02
586             	3.33812732e+02
587             	3.33813909e+02
588             	3.33815088e+02
589             	3.33816244e+02
590             	3.33817446e+02
591             	3.33818644e+02
592             	3.33819822e+02
593             	3.33820974e+02
594             	3.33822082e+02
595             	3.33823183e+02
596             	3.33824258e+02
597             	3.33825309e+02
598             	3.33826377e+02
599             	3.33827422e+02
600             	3.33828441e+02
601             	3.33829467e+02
602             	3.33830460e+02
603             	3.33831399e+02
604             	3.33832317e+02
605             	3.33833071e+02
606             	3.33833844e+02
607             	3.33834624e+02
608             	3.33835366e+02
609             	3.33836081e+02
610             	3.33836812e+02
611             	3.33837553e+02
612             	3.33838314e+02
613             	3.33839126e+02
614             	3.33839979e+02
615             	3.33840903e+02
616             	3.33841857e+02
617             	3.33842827e+02
618             	3.33843809e+02
619             	3.33844780e+02
620             	3.33845767e+02
621             	3.33846742e+02
