# Region        : cellZone component_0
# Cells         : 40
# Volume        : 6.15286446e-02
# Time          	volAverage(T)
1               	3.03126617e+02
2               	3.06150810e+02
3               	3.08297955e+02
4               	3.10007513e+02
5               	3.11795682e+02
6               	3.13698762e+02
7               	3.15601214e+02
8               	3.17460026e+02
9               	3.19324376e+02
10              	3.21133398e+02
11              	3.22825075e+02
12              	3.24442559e+02
13              	3.26006106e+02
14              	3.27544361e+02
15              	3.29025373e+02
16              	3.30426547e+02
17              	3.31846454e+02
18              	3.33127424e+02
19              	3.34311695e+02
20              	3.35507140e+02
21              	3.36687134e+02
22              	3.37742159e+02
23              	3.38726652e+02
24              	3.39628902e+02
25              	3.40449340e+02
26              	3.41222959e+02
27              	3.41978734e+02
28              	3.42691726e+02
29              	3.43400668e+02
30              	3.44099847e+02
31              	3.44792692e+02
32              	3.45456975e+02
33              	3.46093169e+02
34              	3.46708167e+02
35              	3.47303419e+02
36              	3.47839786e+02
37              	3.48328671e+02
38              	3.48773435e+02
39              	3.49188135e+02
40              	3.49588994e+02
41              	3.49949348e+02
42              	3.50294282e+02
43              	3.50627271e+02
44              	3.50907353e+02
45              	3.51174122e+02
46              	3.51368802e+02
47              	3.51466813e+02
48              	3.51492956e+02
49              	3.51502778e+02
50              	3.51542326e+02
51              	3.51545731e+02
52              	3.51565978e+02
53              	3.51641906e+02
54              	3.51745368e+02
55              	3.51750588e+02
56              	3.51727228e+02
57              	3.51765253e+02
58              	3.51776557e+02
59              	3.51723099e+02
60              	3.51628766e+02
61              	3.51532238e+02
62              	3.51402036e+02
63              	3.51196023e+02
64              	3.51058804e+02
65              	3.50950224e+02
66              	3.50853191e+02
67              	3.50771296e+02
68              	3.50671506e+02
69              	3.50534648e+02
70              	3.50369293e+02
71              	3.50232430e+02
72              	3.50080881e+02
73              	3.49921736e+02
74              	3.49744572e+02
75              	3.49503212e+02
76              	3.49344319e+02
77              	3.49214961e+02
78              	3.49092917e+02
79              	3.48997419e+02
80              	3.48893690e+02
81              	3.48738042e+02
82              	3.48569053e+02
83              	3.48419139e+02
84              	3.48273310e+02
85              	3.48101286e+02
86              	3.47966943e+02
87              	3.47726770e+02
88              	3.47564333e+02
89              	3.47424592e+02
90              	3.47313671e+02
91              	3.47232379e+02
92              	3.47162246e+02
93              	3.47084667e+02
94              	3.47001325e+02
95              	3.46888277e+02
96              	3.46787263e+02
97              	3.46702143e+02
98              	3.46582446e+02
99              	3.46444262e+02
100             	3.46294592e+02
101             	3.46168235e+02
102             	3.46061420e+02
103             	3.45961247e+02
104             	3.45869034e+02
105             	3.45792666e+02
106             	3.45734112e+02
107             	3.45669355e+02
108             	3.45598589e+02
109             	3.45530003e+02
110             	3.45457754e+02
111             	3.45379211e+02
112             	3.45288894e+02
113             	3.45177453e+02
114             	3.45068720e+02
115             	3.44956876e+02
116             	3.44850311e+02
117             	3.44759136e+02
118             	3.44680269e+02
119             	3.44612692e+02
120             	3.44563683e+02
121             	3.44509494e+02
122             	3.44466145e+02
123             	3.44411284e+02
124             	3.44343442e+02
125             	3.44275262e+02
126             	3.44199109e+02
127             	3.44106044e+02
128             	3.44018871e+02
129             	3.43927417e+02
130             	3.43845034e+02
131             	3.43768537e+02
132             	3.43711876e+02
133             	3.43657612e+02
134             	3.43609991e+02
135             	3.43575168e+02
136             	3.43542551e+02
137             	3.43512747e+02
138             	3.43483425e+02
139             	3.43413576e+02
140             	3.43368809e+02
141             	3.43318703e+02
142             	3.43257820e+02
143             	3.43183217e+02
144             	3.43114885e+02
145             	3.43059997e+02
146             	3.43015282e+02
147             	3.42976473e+02
148             	3.42954163e+02
149             	3.42947289e+02
150             	3.42940903e+02
151             	3.42913718e+02
152             	3.42866126e+02
153             	3.42838084e+02
154             	3.42810555e+02
155             	3.42768974e+02
156             	3.42720031e+02
157             	3.42680364e+02
158             	3.42637421e+02
159             	3.42605326e+02
160             	3.42575123e+02
161             	3.42552009e+02
162             	3.42532915e+02
163             	3.42515753e+02
164             	3.42503523e+02
165             	3.42494422e+02
166             	3.42483633e+02
167             	3.42469731e+02
168             	3.42449913e+02
169             	3.42426165e+02
170             	3.42398277e+02
171             	3.42369725e+02
172             	3.42345392e+02
173             	3.42317540e+02
174             	3.42293834e+02
175             	3.42276136e+02
176             	3.42253431e+02
177             	3.42235347e+02
178             	3.42225577e+02
179             	3.42216129e+02
180             	3.42201761e+02
181             	3.42184836e+02
182             	3.42167172e+02
183             	3.42145020e+02
184             	3.42121731e+02
185             	3.42104351e+02
186             	3.42087643e+02
187             	3.42071942e+02
188             	3.42056569e+02
189             	3.42041698e+02
190             	3.42026935e+02
191             	3.42010009e+02
192             	3.41992358e+02
193             	3.41977716e+02
194             	3.41961658e+02
195             	3.41945441e+02
196             	3.41932596e+02
197             	3.41919586e+02
198             	3.41909727e+02
199             	3.41896792e+02
200             	3.41886590e+02
201             	3.41875630e+02
202             	3.41864323e+02
203             	3.41851913e+02
204             	3.41840328e+02
205             	3.41828857e+02
206             	3.41816753e+02
207             	3.41804967e+02
208             	3.41793729e+02
209             	3.41784128e+02
210             	3.41775292e+02
211             	3.41766695e+02
212             	3.41756412e+02
213             	3.41747649e+02
214             	3.41738692e+02
215             	3.41729222e+02
216             	3.41719262e+02
217             	3.41708644e+02
218             	3.41699253e+02
219             	3.41689634e+02
220             	3.41678970e+02
221             	3.41667857e+02
222             	3.41656410e+02
223             	3.41645940e+02
224             	3.41636947e+02
225             	3.41626826e+02
226             	3.41617848e+02
227             	3.41610176e+02
228             	3.41604177e+02
229             	3.41597723e+02
230             	3.41591255e+02
231             	3.41584811e+02
232             	3.41578574e+02
233             	3.41572966e+02
234             	3.41567675e+02
235             	3.41563393e+02
236             	3.41560321e+02
237             	3.41558716e+02
238             	3.41557957e+02
239             	3.41557894e+02
240             	3.41557693e+02
241             	3.41558093e+02
242             	3.41558529e+02
243             	3.41557622e+02
244             	3.41551602e+02
245             	3.41549450e+02
246             	3.41544570e+02
247             	3.41539498e+02
248             	3.41534079e+02
249             	3.41529045e+02
250             	3.41525223e+02
251             	3.41519510e+02
252             	3.41516438e+02
253             	3.41515395e+02
254             	3.41514291e+02
255             	3.41514089e+02
256             	3.41512358e+02
257             	3.41510386e+02
258             	3.41509047e+02
259             	3.41508436e+02
260             	3.41504950e+02
261             	3.41499732e+02
262             	3.41497214e+02
263             	3.41493352e+02
264             	3.41489115e+02
265             	3.41485737e+02
266             	3.41483500e+02
267             	3.41482104e+02
268             	3.41481594e+02
269             	3.41479679e+02
270             	3.41478447e+02
271             	3.41477286e+02
272             	3.41478170e+02
273             	3.41477486e+02
274             	3.41476931e+02
275             	3.41476629e+02
276             	3.41477119e+02
277             	3.41476788e+02
278             	3.41475206e+02
279             	3.41474719e+02
280             	3.41473474e+02
281             	3.41472377e+02
282             	3.41471474e+02
283             	3.41470985e+02
284             	3.41470933e+02
285             	3.41471473e+02
286             	3.41472539e+02
287             	3.41473620e+02
288             	3.41474497e+02
289             	3.41476025e+02
290             	3.41477168e+02
291             	3.41478179e+02
292             	3.41478774e+02
293             	3.41479231e+02
294             	3.41479288e+02
295             	3.41479036e+02
296             	3.41478726e+02
297             	3.41478268e+02
298             	3.41478018e+02
299             	3.41477073e+02
300             	3.41476503e+02
301             	3.41476825e+02
302             	3.41476967e+02
303             	3.41477353e+02
304             	3.41477861e+02
305             	3.41478407e+02
306             	3.41478615e+02
307             	3.41479904e+02
308             	3.41480911e+02
309             	3.41482170e+02
310             	3.41483696e+02
311             	3.41485728e+02
312             	3.41488115e+02
313             	3.41490109e+02
314             	3.41490855e+02
315             	3.41492080e+02
316             	3.41492377e+02
317             	3.41492171e+02
318             	3.41491289e+02
319             	3.41490102e+02
320             	3.41488719e+02
321             	3.41487422e+02
322             	3.41486204e+02
323             	3.41484997e+02
324             	3.41483964e+02
325             	3.41483162e+02
326             	3.41482652e+02
327             	3.41482530e+02
328             	3.41482279e+02
329             	3.41482361e+02
330             	3.41482466e+02
331             	3.41481944e+02
332             	3.41481192e+02
333             	3.41481144e+02
334             	3.41480131e+02
335             	3.41479518e+02
336             	3.41478566e+02
337             	3.41478102e+02
338             	3.41477930e+02
339             	3.41477939e+02
340             	3.41478146e+02
341             	3.41479036e+02
342             	3.41480323e+02
343             	3.41482169e+02
344             	3.41484987e+02
345             	3.41487857e+02
346             	3.41491429e+02
347             	3.41495501e+02
348             	3.41499692e+02
349             	3.41503876e+02
350             	3.41507921e+02
351             	3.41511781e+02
352             	3.41515383e+02
353             	3.41518644e+02
354             	3.41521517e+02
355             	3.41524130e+02
356             	3.41526722e+02
357             	3.41529332e+02
358             	3.41532028e+02
359             	3.41534129e+02
360             	3.41536690e+02
361             	3.41538778e+02
362             	3.41540574e+02
363             	3.41542178e+02
364             	3.41543760e+02
365             	3.41544676e+02
366             	3.41544990e+02
367             	3.41545558e+02
368             	3.41545800e+02
369             	3.41545907e+02
370             	3.41545666e+02
371             	3.41545311e+02
372             	3.41546492e+02
373             	3.41546839e+02
374             	3.41547982e+02
375             	3.41549538e+02
376             	3.41551400e+02
377             	3.41553387e+02
378             	3.41555522e+02
379             	3.41557850e+02
380             	3.41560147e+02
381             	3.41562411e+02
382             	3.41564499e+02
383             	3.41567031e+02
384             	3.41569181e+02
385             	3.41571170e+02
386             	3.41573067e+02
387             	3.41575077e+02
388             	3.41577282e+02
389             	3.41579644e+02
390             	3.41581991e+02
391             	3.41584055e+02
392             	3.41585729e+02
393             	3.41587077e+02
394             	3.41588633e+02
395             	3.41589003e+02
396             	3.41589840e+02
397             	3.41591107e+02
398             	3.41592511e+02
399             	3.41594230e+02
400             	3.41596229e+02
401             	3.41598450e+02
402             	3.41600768e+02
403             	3.41603178e+02
404             	3.41605807e+02
405             	3.41607832e+02
406             	3.41608546e+02
407             	3.41610833e+02
408             	3.41612226e+02
409             	3.41613621e+02
410             	3.41614499e+02
411             	3.41616408e+02
412             	3.41618863e+02
413             	3.41621565e+02
414             	3.41624770e+02
415             	3.41629121e+02
416             	3.41633213e+02
417             	3.41637307e+02
418             	3.41640829e+02
419             	3.41643224e+02
420             	3.41645622e+02
421             	3.41647576e+02
422             	3.41648422e+02
423             	3.41649015e+02
424             	3.41647832e+02
425             	3.41646738e+02
426             	3.41646261e+02
427             	3.41646167e+02
428             	3.41646520e+02
429             	3.41646944e+02
430             	3.41647481e+02
431             	3.41648026e+02
432             	3.41648552e+02
433             	3.41648970e+02
434             	3.41653263e+02
435             	3.41658461e+02
436             	3.41663210e+02
437             	3.41666770e+02
438             	3.41670335e+02
439             	3.41673281e+02
440             	3.41676115e+02
441             	3.41678793e+02
442             	3.41681598e+02
443             	3.41684482e+02
444             	3.41687458e+02
445             	3.41690470e+02
446             	3.41693569e+02
447             	3.41696638e+02
448             	3.41699649e+02
449             	3.41702521e+02
450             	3.41705283e+02
451             	3.41707885e+02
452             	3.41710331e+02
453             	3.41712626e+02
454             	3.41714786e+02
455             	3.41716801e+02
456             	3.41718681e+02
457             	3.41720443e+02
458             	3.41722098e+02
459             	3.41723651e+02
460             	3.41725098e+02
461             	3.41726444e+02
462             	3.41727685e+02
463             	3.41728792e+02
464             	3.41729793e+02
465             	3.41730667e+02
466             	3.41731451e+02
467             	3.41732178e+02
468             	3.41732842e+02
469             	3.41733487e+02
470             	3.41734202e+02
471             	3.41734766e+02
472             	3.41735220e+02
473             	3.41736056e+02
474             	3.41736785e+02
475             	3.41737570e+02
476             	3.41738468e+02
477             	3.41739622e+02
478             	3.41741080e+02
479             	3.41743423e+02
480             	3.41744923e+02
481             	3.41746609e+02
482             	3.41748733e+02
483             	3.41751632e+02
484             	3.41754017e+02
485             	3.41756183e+02
486             	3.41757885e+02
487             	3.41759169e+02
488             	3.41760124e+02
489             	3.41761186e+02
490             	3.41762294e+02
491             	3.41763473e+02
492             	3.41764324e+02
493             	3.41765926e+02
494             	3.41767778e+02
495             	3.41769830e+02
496             	3.41771951e+02
497             	3.41774029e+02
498             	3.41776379e+02
499             	3.41778654e+02
500             	3.41780973e+02
501             	3.41782810e+02
502             	3.41784501e+02
503             	3.41785418e+02
504             	3.41786549e+02
505             	3.41787565e+02
506             	3.41788410e+02
507             	3.41789764e+02
508             	3.41790709e+02
509             	3.41792248e+02
510             	3.41793837e+02
511             	3.41795721e+02
512             	3.41797477e+02
513             	3.41799494e+02
514             	3.41801406e+02
515             	3.41803605e+02
516             	3.41805758e+02
517             	3.41807675e+02
518             	3.41809832e+02
519             	3.41811968e+02
520             	3.41813909e+02
521             	3.41815613e+02
522             	3.41817135e+02
523             	3.41818677e+02
524             	3.41820031e+02
525             	3.41821388e+02
526             	3.41822841e+02
527             	3.41824157e+02
528             	3.41825770e+02
529             	3.41827479e+02
530             	3.41829163e+02
531             	3.41830922e+02
532             	3.41832822e+02
533             	3.41834669e+02
534             	3.41836526e+02
535             	3.41838443e+02
536             	3.41840433e+02
537             	3.41842473e+02
538             	3.41844231e+02
539             	3.41846102e+02
540             	3.41848005e+02
541             	3.41849891e+02
542             	3.41851452e+02
543             	3.41852735e+02
544             	3.41854596e+02
545             	3.41856076e+02
546             	3.41857892e+02
547             	3.41859427e+02
548             	3.41861397e+02
549             	3.41863312e+02
550             	3.41864961e+02
551             	3.41866509e+02
552             	3.41867963e+02
553             	3.41869418e+02
554             	3.41870903e+02
555             	3.41871788e+02
556             	3.41872691e+02
557             	3.41873378e+02
558             	3.41873985e+02
559             	3.41874461e+02
560             	3.41874764e+02
561             	3.41875267e+02
562             	3.41876019e+02
563             	3.41876726e+02
564             	3.41877623e+02
565             	3.41878670e+02
566             	3.41879368e+02
567             	3.41880089e+02
568             	3.41880674e+02
569             	3.41881230e+02
570             	3.41881656e+02
571             	3.41881965e+02
572             	3.41882148e+02
573             	3.41882271e+02
574             	3.41882383e+02
575             	3.41882481e+02
576             	3.41882545e+02
577             	3.41882860e+02
578             	3.41883166e+02
579             	3.41883524e+02
580             	3.41883874e+02
581             	3.41884220e+02
582             	3.41884544e+02
583             	3.41884841e+02
584             	3.41885146e+02
585             	3.41885332e+02
586             	3.41885504e+02
587             	3.41885644e+02
588             	3.41885779e+02
589             	3.41885908e+02
590             	3.41886013e+02
591             	3.41886203e+02
592             	3.41886371e+02
593             	3.41886561e+02
594             	3.41886767e+02
595             	3.41886885e+02
596             	3.41887005e+02
597             	3.41887105e+02
598             	3.41887163e+02
599             	3.41887154e+02
600             	3.41887215e+02
601             	3.41887362e+02
602             	3.41887519e+02
603             	3.41887715e+02
604             	3.41887919e+02
605             	3.41888031e+02
606             	3.41888146e+02
607             	3.41888230e+02
608             	3.41888306e+02
609             	3.41888370e+02
610             	3.41888421e+02
611             	3.41888476e+02
612             	3.41888456e+02
613             	3.41888445e+02
614             	3.41888411e+02
615             	3.41888379e+02
616             	3.41888361e+02
617             	3.41888311e+02
618             	3.41888456e+02
619             	3.41888572e+02
620             	3.41888748e+02
621             	3.41888903e+02
