# Region        : cellZone component_3
# Cells         : 134
# Volume        : 2.35138541e-01
# Time          	volAverage(T)
1               	3.00945019e+02
2               	3.01878893e+02
3               	3.02753909e+02
4               	3.03598873e+02
5               	3.04431245e+02
6               	3.05257229e+02
7               	3.06081296e+02
8               	3.06907998e+02
9               	3.07736276e+02
10              	3.08561850e+02
11              	3.09379985e+02
12              	3.10178916e+02
13              	3.10963062e+02
14              	3.11740154e+02
15              	3.12523783e+02
16              	3.13302214e+02
17              	3.14076173e+02
18              	3.14847475e+02
19              	3.15616175e+02
20              	3.16386439e+02
21              	3.17154567e+02
22              	3.17914420e+02
23              	3.18660506e+02
24              	3.19400728e+02
25              	3.20146542e+02
26              	3.20892915e+02
27              	3.21629079e+02
28              	3.22362749e+02
29              	3.23097361e+02
30              	3.23826937e+02
31              	3.24549987e+02
32              	3.25257427e+02
33              	3.25944330e+02
34              	3.26614352e+02
35              	3.27264930e+02
36              	3.27900282e+02
37              	3.28518942e+02
38              	3.29117768e+02
39              	3.29724979e+02
40              	3.30330788e+02
41              	3.30931543e+02
42              	3.31530766e+02
43              	3.32121394e+02
44              	3.32696479e+02
45              	3.33280270e+02
46              	3.33851480e+02
47              	3.34412108e+02
48              	3.34960933e+02
49              	3.35514881e+02
50              	3.36065323e+02
51              	3.36608332e+02
52              	3.37147641e+02
53              	3.37690366e+02
54              	3.38234229e+02
55              	3.38744507e+02
56              	3.39216641e+02
57              	3.39663673e+02
58              	3.40100235e+02
59              	3.40537994e+02
60              	3.40994350e+02
61              	3.41450078e+02
62              	3.41886534e+02
63              	3.42312213e+02
64              	3.42737323e+02
65              	3.43165593e+02
66              	3.43592644e+02
67              	3.44020692e+02
68              	3.44449681e+02
69              	3.44864839e+02
70              	3.45271925e+02
71              	3.45663870e+02
72              	3.46050611e+02
73              	3.46442391e+02
74              	3.46828468e+02
75              	3.47215862e+02
76              	3.47602176e+02
77              	3.47985558e+02
78              	3.48361613e+02
79              	3.48724728e+02
80              	3.49087420e+02
81              	3.49444380e+02
82              	3.49799504e+02
83              	3.50152494e+02
84              	3.50500253e+02
85              	3.50843918e+02
86              	3.51184193e+02
87              	3.51521860e+02
88              	3.51855670e+02
89              	3.52186238e+02
90              	3.52512948e+02
91              	3.52837872e+02
92              	3.53158976e+02
93              	3.53480610e+02
94              	3.53796648e+02
95              	3.54108962e+02
96              	3.54418839e+02
97              	3.54721869e+02
98              	3.55018691e+02
99              	3.55311890e+02
100             	3.55595699e+02
101             	3.55870753e+02
102             	3.56145252e+02
103             	3.56420262e+02
104             	3.56693412e+02
105             	3.56957398e+02
106             	3.57220514e+02
107             	3.57483551e+02
108             	3.57744235e+02
109             	3.58001162e+02
110             	3.58248559e+02
111             	3.58496926e+02
112             	3.58736162e+02
113             	3.58976198e+02
114             	3.59211253e+02
115             	3.59446518e+02
116             	3.59683222e+02
117             	3.59908902e+02
118             	3.60127832e+02
119             	3.60344676e+02
120             	3.60560536e+02
121             	3.60771767e+02
122             	3.60982969e+02
123             	3.61185398e+02
124             	3.61384266e+02
125             	3.61578885e+02
126             	3.61775649e+02
127             	3.61968261e+02
128             	3.62164421e+02
129             	3.62355334e+02
130             	3.62545005e+02
131             	3.62728979e+02
132             	3.62906697e+02
133             	3.63080713e+02
134             	3.63258697e+02
135             	3.63427501e+02
136             	3.63597702e+02
137             	3.63768316e+02
138             	3.63938871e+02
139             	3.64104753e+02
140             	3.64266132e+02
141             	3.64426080e+02
142             	3.64583610e+02
143             	3.64740939e+02
144             	3.64889713e+02
145             	3.65041127e+02
146             	3.65187544e+02
147             	3.65336981e+02
148             	3.65484438e+02
149             	3.65631176e+02
150             	3.65772526e+02
151             	3.65913455e+02
152             	3.66052234e+02
153             	3.66188763e+02
154             	3.66326334e+02
155             	3.66465311e+02
156             	3.66603253e+02
157             	3.66735163e+02
158             	3.66862572e+02
159             	3.66991267e+02
160             	3.67117243e+02
161             	3.67240174e+02
162             	3.67362400e+02
163             	3.67482428e+02
164             	3.67600930e+02
165             	3.67717898e+02
166             	3.67828818e+02
167             	3.67942279e+02
168             	3.68053198e+02
169             	3.68165771e+02
170             	3.68276628e+02
171             	3.68384086e+02
172             	3.68488269e+02
173             	3.68591555e+02
174             	3.68693795e+02
175             	3.68795311e+02
176             	3.68895200e+02
177             	3.68994105e+02
178             	3.69092624e+02
179             	3.69190899e+02
180             	3.69288746e+02
181             	3.69385773e+02
182             	3.69481734e+02
183             	3.69576403e+02
184             	3.69669909e+02
185             	3.69762471e+02
186             	3.69853424e+02
187             	3.69943866e+02
188             	3.70033594e+02
189             	3.70122043e+02
190             	3.70209620e+02
191             	3.70296464e+02
192             	3.70380252e+02
193             	3.70462950e+02
194             	3.70545458e+02
195             	3.70626848e+02
196             	3.70706454e+02
197             	3.70786062e+02
198             	3.70863605e+02
199             	3.70941961e+02
200             	3.71020592e+02
201             	3.71092514e+02
202             	3.71165723e+02
203             	3.71241087e+02
204             	3.71311727e+02
205             	3.71384264e+02
206             	3.71458768e+02
207             	3.71533159e+02
208             	3.71606718e+02
209             	3.71679751e+02
210             	3.71751885e+02
211             	3.71823425e+02
212             	3.71895074e+02
213             	3.71966655e+02
214             	3.72037436e+02
215             	3.72106774e+02
216             	3.72174638e+02
217             	3.72241470e+02
218             	3.72307448e+02
219             	3.72372660e+02
220             	3.72437152e+02
221             	3.72501263e+02
222             	3.72564569e+02
223             	3.72627423e+02
224             	3.72690007e+02
225             	3.72752311e+02
226             	3.72814121e+02
227             	3.72875109e+02
228             	3.72935429e+02
229             	3.72995092e+02
230             	3.73054303e+02
231             	3.73112799e+02
232             	3.73170779e+02
233             	3.73228140e+02
234             	3.73285618e+02
235             	3.73343031e+02
236             	3.73400227e+02
237             	3.73457153e+02
238             	3.73513749e+02
239             	3.73570044e+02
240             	3.73626083e+02
241             	3.73682132e+02
242             	3.73737789e+02
243             	3.73793461e+02
244             	3.73848673e+02
245             	3.73903470e+02
246             	3.73957878e+02
247             	3.74013067e+02
248             	3.74066712e+02
249             	3.74119789e+02
250             	3.74172775e+02
251             	3.74225768e+02
252             	3.74278467e+02
253             	3.74330519e+02
254             	3.74382665e+02
255             	3.74434440e+02
256             	3.74485757e+02
257             	3.74536848e+02
258             	3.74587854e+02
259             	3.74638501e+02
260             	3.74688916e+02
261             	3.74739014e+02
262             	3.74789408e+02
263             	3.74839724e+02
264             	3.74889758e+02
265             	3.74939487e+02
266             	3.74988984e+02
267             	3.75038289e+02
268             	3.75087455e+02
269             	3.75136507e+02
270             	3.75185504e+02
271             	3.75234402e+02
272             	3.75283182e+02
273             	3.75331895e+02
274             	3.75380476e+02
275             	3.75428949e+02
276             	3.75477803e+02
277             	3.75526202e+02
278             	3.75574472e+02
279             	3.75622752e+02
280             	3.75671058e+02
281             	3.75719325e+02
282             	3.75767518e+02
283             	3.75815586e+02
284             	3.75863441e+02
285             	3.75911355e+02
286             	3.75959122e+02
287             	3.76006673e+02
288             	3.76054022e+02
289             	3.76100805e+02
290             	3.76147840e+02
291             	3.76194822e+02
292             	3.76241579e+02
293             	3.76288189e+02
294             	3.76334946e+02
295             	3.76381607e+02
296             	3.76427677e+02
297             	3.76473627e+02
298             	3.76519430e+02
299             	3.76565253e+02
300             	3.76611253e+02
301             	3.76657213e+02
302             	3.76703295e+02
303             	3.76749433e+02
304             	3.76795600e+02
305             	3.76841953e+02
306             	3.76888072e+02
307             	3.76933929e+02
308             	3.76979314e+02
309             	3.77024726e+02
310             	3.77070370e+02
311             	3.77116212e+02
312             	3.77162133e+02
313             	3.77207458e+02
314             	3.77253284e+02
315             	3.77299187e+02
316             	3.77345039e+02
317             	3.77390450e+02
318             	3.77435574e+02
319             	3.77480586e+02
320             	3.77525403e+02
321             	3.77570259e+02
322             	3.77615195e+02
323             	3.77660157e+02
324             	3.77705068e+02
325             	3.77749955e+02
326             	3.77794504e+02
327             	3.77839215e+02
328             	3.77883877e+02
329             	3.77928359e+02
330             	3.77972775e+02
331             	3.78017012e+02
332             	3.78061361e+02
333             	3.78105551e+02
334             	3.78149871e+02
335             	3.78194093e+02
336             	3.78238308e+02
337             	3.78282515e+02
338             	3.78326509e+02
339             	3.78370704e+02
340             	3.78414880e+02
341             	3.78458950e+02
342             	3.78502853e+02
343             	3.78546673e+02
344             	3.78590434e+02
345             	3.78634072e+02
346             	3.78677621e+02
347             	3.78721108e+02
348             	3.78764542e+02
349             	3.78807826e+02
350             	3.78851009e+02
351             	3.78894112e+02
352             	3.78937150e+02
353             	3.78980117e+02
354             	3.79023049e+02
355             	3.79065779e+02
356             	3.79108392e+02
357             	3.79150844e+02
358             	3.79193170e+02
359             	3.79235332e+02
360             	3.79277271e+02
361             	3.79319059e+02
362             	3.79360692e+02
363             	3.79402088e+02
364             	3.79443303e+02
365             	3.79484331e+02
366             	3.79525194e+02
367             	3.79565906e+02
368             	3.79606440e+02
369             	3.79646755e+02
370             	3.79686808e+02
371             	3.79726577e+02
372             	3.79766097e+02
373             	3.79805342e+02
374             	3.79844305e+02
375             	3.79883004e+02
376             	3.79921438e+02
377             	3.79959614e+02
378             	3.79997502e+02
379             	3.80035187e+02
380             	3.80072619e+02
381             	3.80109768e+02
382             	3.80146630e+02
383             	3.80183225e+02
384             	3.80219574e+02
385             	3.80255672e+02
386             	3.80291513e+02
387             	3.80327103e+02
388             	3.80362430e+02
389             	3.80397495e+02
390             	3.80432316e+02
391             	3.80466858e+02
392             	3.80501126e+02
393             	3.80535123e+02
394             	3.80568851e+02
395             	3.80602310e+02
396             	3.80635495e+02
397             	3.80668395e+02
398             	3.80701042e+02
399             	3.80733444e+02
400             	3.80765609e+02
401             	3.80797537e+02
402             	3.80829269e+02
403             	3.80860774e+02
404             	3.80892091e+02
405             	3.80923200e+02
406             	3.80954114e+02
407             	3.80984869e+02
408             	3.81015447e+02
409             	3.81045855e+02
410             	3.81076088e+02
411             	3.81106159e+02
412             	3.81136067e+02
413             	3.81165838e+02
414             	3.81195480e+02
415             	3.81224996e+02
416             	3.81254408e+02
417             	3.81283684e+02
418             	3.81312845e+02
419             	3.81341891e+02
420             	3.81370816e+02
421             	3.81399615e+02
422             	3.81428278e+02
423             	3.81456827e+02
424             	3.81485241e+02
425             	3.81513513e+02
426             	3.81541662e+02
427             	3.81569702e+02
428             	3.81597640e+02
429             	3.81625481e+02
430             	3.81653068e+02
431             	3.81680612e+02
432             	3.81708056e+02
433             	3.81735340e+02
434             	3.81762464e+02
435             	3.81789500e+02
436             	3.81816421e+02
437             	3.81843089e+02
438             	3.81869602e+02
439             	3.81895992e+02
440             	3.81922220e+02
441             	3.81948325e+02
442             	3.81974279e+02
443             	3.82000052e+02
444             	3.82025630e+02
445             	3.82050990e+02
446             	3.82076221e+02
447             	3.82101296e+02
448             	3.82126220e+02
449             	3.82150984e+02
450             	3.82175584e+02
451             	3.82199888e+02
452             	3.82224160e+02
453             	3.82248293e+02
454             	3.82272220e+02
455             	3.82295918e+02
456             	3.82319430e+02
457             	3.82342768e+02
458             	3.82365941e+02
459             	3.82388991e+02
460             	3.82411899e+02
461             	3.82434715e+02
462             	3.82457682e+02
463             	3.82480151e+02
464             	3.82502374e+02
465             	3.82524472e+02
466             	3.82546494e+02
467             	3.82568479e+02
468             	3.82590101e+02
469             	3.82611830e+02
470             	3.82633437e+02
471             	3.82654820e+02
472             	3.82676144e+02
473             	3.82697320e+02
474             	3.82718268e+02
475             	3.82739088e+02
476             	3.82759820e+02
477             	3.82780456e+02
478             	3.82800921e+02
479             	3.82821289e+02
480             	3.82841538e+02
481             	3.82861670e+02
482             	3.82881593e+02
483             	3.82901335e+02
484             	3.82920996e+02
485             	3.82940472e+02
486             	3.82959825e+02
487             	3.82979064e+02
488             	3.82998168e+02
489             	3.83016977e+02
490             	3.83035937e+02
491             	3.83054853e+02
492             	3.83073634e+02
493             	3.83092309e+02
494             	3.83110972e+02
495             	3.83129566e+02
496             	3.83148070e+02
497             	3.83166404e+02
498             	3.83184613e+02
499             	3.83202795e+02
500             	3.83220876e+02
501             	3.83238901e+02
502             	3.83256749e+02
503             	3.83274442e+02
504             	3.83292090e+02
505             	3.83309593e+02
506             	3.83327022e+02
507             	3.83344169e+02
508             	3.83361160e+02
509             	3.83378105e+02
510             	3.83394907e+02
511             	3.83411680e+02
512             	3.83428293e+02
513             	3.83444820e+02
514             	3.83461278e+02
515             	3.83477651e+02
516             	3.83493933e+02
517             	3.83510121e+02
518             	3.83526224e+02
519             	3.83542277e+02
520             	3.83558238e+02
521             	3.83574095e+02
522             	3.83589827e+02
523             	3.83605481e+02
524             	3.83621073e+02
525             	3.83636607e+02
526             	3.83652077e+02
527             	3.83667488e+02
528             	3.83682836e+02
529             	3.83698097e+02
530             	3.83713342e+02
531             	3.83728531e+02
532             	3.83743425e+02
533             	3.83758527e+02
534             	3.83773635e+02
535             	3.83788748e+02
536             	3.83803670e+02
537             	3.83818519e+02
538             	3.83833379e+02
539             	3.83848328e+02
540             	3.83863145e+02
541             	3.83877929e+02
542             	3.83892735e+02
543             	3.83907596e+02
544             	3.83922424e+02
545             	3.83937233e+02
546             	3.83952067e+02
547             	3.83966954e+02
548             	3.83981856e+02
549             	3.83996683e+02
550             	3.84011638e+02
551             	3.84026565e+02
552             	3.84041610e+02
553             	3.84056709e+02
554             	3.84071821e+02
555             	3.84086961e+02
556             	3.84102158e+02
557             	3.84117493e+02
558             	3.84132896e+02
559             	3.84148195e+02
560             	3.84163499e+02
561             	3.84178848e+02
562             	3.84194222e+02
563             	3.84209592e+02
564             	3.84224951e+02
565             	3.84240283e+02
566             	3.84255572e+02
567             	3.84270853e+02
568             	3.84286036e+02
569             	3.84301146e+02
570             	3.84316258e+02
571             	3.84331306e+02
572             	3.84346289e+02
573             	3.84361229e+02
574             	3.84376103e+02
575             	3.84390983e+02
576             	3.84405814e+02
577             	3.84420567e+02
578             	3.84435225e+02
579             	3.84449774e+02
580             	3.84464204e+02
581             	3.84478583e+02
582             	3.84492799e+02
583             	3.84506863e+02
584             	3.84520813e+02
585             	3.84534660e+02
586             	3.84548380e+02
587             	3.84561948e+02
588             	3.84575295e+02
589             	3.84588655e+02
590             	3.84601941e+02
591             	3.84615102e+02
592             	3.84628130e+02
593             	3.84641009e+02
594             	3.84653687e+02
595             	3.84666259e+02
596             	3.84678587e+02
597             	3.84690715e+02
598             	3.84702670e+02
599             	3.84714475e+02
600             	3.84726142e+02
601             	3.84737650e+02
602             	3.84749017e+02
603             	3.84760221e+02
604             	3.84771248e+02
605             	3.84782052e+02
606             	3.84792672e+02
607             	3.84802928e+02
608             	3.84813205e+02
609             	3.84823327e+02
610             	3.84833233e+02
611             	3.84843060e+02
612             	3.84852701e+02
613             	3.84862009e+02
614             	3.84871163e+02
615             	3.84880224e+02
616             	3.84889169e+02
617             	3.84897934e+02
618             	3.84906473e+02
619             	3.84914874e+02
620             	3.84923099e+02
621             	3.84931116e+02
