# Region        : cellZone component_4
# Cells         : 16
# Volume        : 2.96873250e-02
# Time          	volAverage(T)
1               	3.12016071e+02
2               	3.23707444e+02
3               	3.32499985e+02
4               	3.39585512e+02
5               	3.45887161e+02
6               	3.51566059e+02
7               	3.56862728e+02
8               	3.61786789e+02
9               	3.66423035e+02
10              	3.70873438e+02
11              	3.75060202e+02
12              	3.79234959e+02
13              	3.83255455e+02
14              	3.87287663e+02
15              	3.91467165e+02
16              	3.95153301e+02
17              	3.97845588e+02
18              	4.00051914e+02
19              	4.02512660e+02
20              	4.04775415e+02
21              	4.06672135e+02
22              	4.08568041e+02
23              	4.10652970e+02
24              	4.13079022e+02
25              	4.15744741e+02
26              	4.18549917e+02
27              	4.21224303e+02
28              	4.23785370e+02
29              	4.25948520e+02
30              	4.27939482e+02
31              	4.29668807e+02
32              	4.30774027e+02
33              	4.31230476e+02
34              	4.32021321e+02
35              	4.32980185e+02
36              	4.33087463e+02
37              	4.32912956e+02
38              	4.32715551e+02
39              	4.31628443e+02
40              	4.30260490e+02
41              	4.29567407e+02
42              	4.29336882e+02
43              	4.29569082e+02
44              	4.30195018e+02
45              	4.31321026e+02
46              	4.32716871e+02
47              	4.34162294e+02
48              	4.35575964e+02
49              	4.36705162e+02
50              	4.36391409e+02
51              	4.36389303e+02
52              	4.36112231e+02
53              	4.35517536e+02
54              	4.34812949e+02
55              	4.34105023e+02
56              	4.33608622e+02
57              	4.32288776e+02
58              	4.30528348e+02
59              	4.29489370e+02
60              	4.28703857e+02
61              	4.28201961e+02
62              	4.27954438e+02
63              	4.27993394e+02
64              	4.28303631e+02
65              	4.28844174e+02
66              	4.29167583e+02
67              	4.29511393e+02
68              	4.29792537e+02
69              	4.29612373e+02
70              	4.27927456e+02
71              	4.26214925e+02
72              	4.24198408e+02
73              	4.22251221e+02
74              	4.20367969e+02
75              	4.17938574e+02
76              	4.15420829e+02
77              	4.13134645e+02
78              	4.11134974e+02
79              	4.09524675e+02
80              	4.08220638e+02
81              	4.07210011e+02
82              	4.06379816e+02
83              	4.05746048e+02
84              	4.05305805e+02
85              	4.05015673e+02
86              	4.04826609e+02
87              	4.04605403e+02
88              	4.04626457e+02
89              	4.04697701e+02
90              	4.04988368e+02
91              	4.05726938e+02
92              	4.06725660e+02
93              	4.07474608e+02
94              	4.08268797e+02
95              	4.09055639e+02
96              	4.09554680e+02
97              	4.09777876e+02
98              	4.09655926e+02
99              	4.09459837e+02
100             	4.09391420e+02
101             	4.09339471e+02
102             	4.09328089e+02
103             	4.09191897e+02
104             	4.08848310e+02
105             	4.08417185e+02
106             	4.07907026e+02
107             	4.07365876e+02
108             	4.06879496e+02
109             	4.06527229e+02
110             	4.06327280e+02
111             	4.06173669e+02
112             	4.06105617e+02
113             	4.06176924e+02
114             	4.06354307e+02
115             	4.06570059e+02
116             	4.06959123e+02
117             	4.07411917e+02
118             	4.07943727e+02
119             	4.08510891e+02
120             	4.09124873e+02
121             	4.09827392e+02
122             	4.10551590e+02
123             	4.11385627e+02
124             	4.12284973e+02
125             	4.13210639e+02
126             	4.14123463e+02
127             	4.14635434e+02
128             	4.15277716e+02
129             	4.15706835e+02
130             	4.16244377e+02
131             	4.16591630e+02
132             	4.16997763e+02
133             	4.17526971e+02
134             	4.18002264e+02
135             	4.18455461e+02
136             	4.18811557e+02
137             	4.18911334e+02
138             	4.18870215e+02
139             	4.18878253e+02
140             	4.18950976e+02
141             	4.19142846e+02
142             	4.19397208e+02
143             	4.19693241e+02
144             	4.19966423e+02
145             	4.20193443e+02
146             	4.20496518e+02
147             	4.20863378e+02
148             	4.21433731e+02
149             	4.22185189e+02
150             	4.23026548e+02
151             	4.23865048e+02
152             	4.24683458e+02
153             	4.25505800e+02
154             	4.26311819e+02
155             	4.27131629e+02
156             	4.28010244e+02
157             	4.28873012e+02
158             	4.29716622e+02
159             	4.30511313e+02
160             	4.30842809e+02
161             	4.31369763e+02
162             	4.32087614e+02
163             	4.32344644e+02
164             	4.32748201e+02
165             	4.32977073e+02
166             	4.33397436e+02
167             	4.33584800e+02
168             	4.33887805e+02
169             	4.34291379e+02
170             	4.34173555e+02
171             	4.34181279e+02
172             	4.34339639e+02
173             	4.34218244e+02
174             	4.34265787e+02
175             	4.34035915e+02
176             	4.33933277e+02
177             	4.33924559e+02
178             	4.34031136e+02
179             	4.33760231e+02
180             	4.33662046e+02
181             	4.33649513e+02
182             	4.33554920e+02
183             	4.33512375e+02
184             	4.33800158e+02
185             	4.34020844e+02
186             	4.34401472e+02
187             	4.34888359e+02
188             	4.35418064e+02
189             	4.35953209e+02
190             	4.36500691e+02
191             	4.36687637e+02
192             	4.37147604e+02
193             	4.37448987e+02
194             	4.37993770e+02
195             	4.38328457e+02
196             	4.38805802e+02
197             	4.39044327e+02
198             	4.39446236e+02
199             	4.39562851e+02
200             	4.39868816e+02
201             	4.39758634e+02
202             	4.39803780e+02
203             	4.39655649e+02
204             	4.39728102e+02
205             	4.39494234e+02
206             	4.39418380e+02
207             	4.39372824e+02
208             	4.39303203e+02
209             	4.39179737e+02
210             	4.38966689e+02
211             	4.38900376e+02
212             	4.38903992e+02
213             	4.39055666e+02
214             	4.39207756e+02
215             	4.39350388e+02
216             	4.39514326e+02
217             	4.39731957e+02
218             	4.40023102e+02
219             	4.40409204e+02
220             	4.40627549e+02
221             	4.40598516e+02
222             	4.40850790e+02
223             	4.40936200e+02
224             	4.40952870e+02
225             	4.41146210e+02
226             	4.41447308e+02
227             	4.41255792e+02
228             	4.41225002e+02
229             	4.40973024e+02
230             	4.40872444e+02
231             	4.40741158e+02
232             	4.40551709e+02
233             	4.40459828e+02
234             	4.40610579e+02
235             	4.40850805e+02
236             	4.41098641e+02
237             	4.41408222e+02
238             	4.41789929e+02
239             	4.41973271e+02
240             	4.41942750e+02
241             	4.42229132e+02
242             	4.42088755e+02
243             	4.42209381e+02
244             	4.42077012e+02
245             	4.42132363e+02
246             	4.41821461e+02
247             	4.41630119e+02
248             	4.41161216e+02
249             	4.40888798e+02
250             	4.40827886e+02
251             	4.40689014e+02
252             	4.40577156e+02
253             	4.40520609e+02
254             	4.40531826e+02
255             	4.40630962e+02
256             	4.40837107e+02
257             	4.41112507e+02
258             	4.41353987e+02
259             	4.41332185e+02
260             	4.41585638e+02
261             	4.41295171e+02
262             	4.41237491e+02
263             	4.41374378e+02
264             	4.41020022e+02
265             	4.40851434e+02
266             	4.40340956e+02
267             	4.39982104e+02
268             	4.39436198e+02
269             	4.39021706e+02
270             	4.38542573e+02
271             	4.38367272e+02
272             	4.38409080e+02
273             	4.38323202e+02
274             	4.38403311e+02
275             	4.38644656e+02
276             	4.38977327e+02
277             	4.38975591e+02
278             	4.38773028e+02
279             	4.38920856e+02
280             	4.38829086e+02
281             	4.38942786e+02
282             	4.38772181e+02
283             	4.38772717e+02
284             	4.38440041e+02
285             	4.38142605e+02
286             	4.37843919e+02
287             	4.37535794e+02
288             	4.37249234e+02
289             	4.36690572e+02
290             	4.36355244e+02
291             	4.36323486e+02
292             	4.36387830e+02
293             	4.36433033e+02
294             	4.36482398e+02
295             	4.36582057e+02
296             	4.36737093e+02
297             	4.37052220e+02
298             	4.37031811e+02
299             	4.37251829e+02
300             	4.37705254e+02
301             	4.37678041e+02
302             	4.37845831e+02
303             	4.38259694e+02
304             	4.38327209e+02
305             	4.38606639e+02
306             	4.38516822e+02
307             	4.38557292e+02
308             	4.38720200e+02
309             	4.38583111e+02
310             	4.38611410e+02
311             	4.38749434e+02
312             	4.38817204e+02
313             	4.38763005e+02
314             	4.38735827e+02
315             	4.38740315e+02
316             	4.38855194e+02
317             	4.38889150e+02
318             	4.38959419e+02
319             	4.38864036e+02
320             	4.38791504e+02
321             	4.39064092e+02
322             	4.39459582e+02
323             	4.39789501e+02
324             	4.40125833e+02
325             	4.40565294e+02
326             	4.40592267e+02
327             	4.40831784e+02
328             	4.40908876e+02
329             	4.41258841e+02
330             	4.41172887e+02
331             	4.41263364e+02
332             	4.41160120e+02
333             	4.41237891e+02
334             	4.41399649e+02
335             	4.41492971e+02
336             	4.41441632e+02
337             	4.40978807e+02
338             	4.40707876e+02
339             	4.40530304e+02
340             	4.40393902e+02
341             	4.40285658e+02
342             	4.40210255e+02
343             	4.40129133e+02
344             	4.40101090e+02
345             	4.40110915e+02
346             	4.40168958e+02
347             	4.40254328e+02
348             	4.40347872e+02
349             	4.40441611e+02
350             	4.40567176e+02
351             	4.40740358e+02
352             	4.40976290e+02
353             	4.41221767e+02
354             	4.41536002e+02
355             	4.41816048e+02
356             	4.42156088e+02
357             	4.42510041e+02
358             	4.42515776e+02
359             	4.42764085e+02
360             	4.43185359e+02
361             	4.43162451e+02
362             	4.43330248e+02
363             	4.43296831e+02
364             	4.43495002e+02
365             	4.43800744e+02
366             	4.43666791e+02
367             	4.43701030e+02
368             	4.43861786e+02
369             	4.43669794e+02
370             	4.43661435e+02
371             	4.43782143e+02
372             	4.43538189e+02
373             	4.43465133e+02
374             	4.43531361e+02
375             	4.43656695e+02
376             	4.43765883e+02
377             	4.43828001e+02
378             	4.43554917e+02
379             	4.43538662e+02
380             	4.43689677e+02
381             	4.43891647e+02
382             	4.43711314e+02
383             	4.43713369e+02
384             	4.43907346e+02
385             	4.44128313e+02
386             	4.44331988e+02
387             	4.44383731e+02
388             	4.44426855e+02
389             	4.44593306e+02
390             	4.44787838e+02
391             	4.44955179e+02
392             	4.45112756e+02
393             	4.44925254e+02
394             	4.45011818e+02
395             	4.45274703e+02
396             	4.45181937e+02
397             	4.45303407e+02
398             	4.45572083e+02
399             	4.45429164e+02
400             	4.45492137e+02
401             	4.45703227e+02
402             	4.45494761e+02
403             	4.45489900e+02
404             	4.45605062e+02
405             	4.45766978e+02
406             	4.45471493e+02
407             	4.45393632e+02
408             	4.45464895e+02
409             	4.45580284e+02
410             	4.45294602e+02
411             	4.45236880e+02
412             	4.45325964e+02
413             	4.45459479e+02
414             	4.45617508e+02
415             	4.45700596e+02
416             	4.45781951e+02
417             	4.45926997e+02
418             	4.46009981e+02
419             	4.45686229e+02
420             	4.45643539e+02
421             	4.45800707e+02
422             	4.45961656e+02
423             	4.46047119e+02
424             	4.46159806e+02
425             	4.46218122e+02
426             	4.46275799e+02
427             	4.46367271e+02
428             	4.46462644e+02
429             	4.46629599e+02
430             	4.46380188e+02
431             	4.46384809e+02
432             	4.46559857e+02
433             	4.46818640e+02
434             	4.46595799e+02
435             	4.46596827e+02
436             	4.46767518e+02
437             	4.46589730e+02
438             	4.46640588e+02
439             	4.46801637e+02
440             	4.47055836e+02
441             	4.46769676e+02
442             	4.46695310e+02
443             	4.46788162e+02
444             	4.46952642e+02
445             	4.46655758e+02
446             	4.46580302e+02
447             	4.46649369e+02
448             	4.46772614e+02
449             	4.46471730e+02
450             	4.46394364e+02
451             	4.46463353e+02
452             	4.46574682e+02
453             	4.46746811e+02
454             	4.46403700e+02
455             	4.46294915e+02
456             	4.46365324e+02
457             	4.46484665e+02
458             	4.46598564e+02
459             	4.46689252e+02
460             	4.46738300e+02
461             	4.46834677e+02
462             	4.46972441e+02
463             	4.47076769e+02
464             	4.47135079e+02
465             	4.46796037e+02
466             	4.46748450e+02
467             	4.46880755e+02
468             	4.47056812e+02
469             	4.47233345e+02
470             	4.46945577e+02
471             	4.46911728e+02
472             	4.47059512e+02
473             	4.46875288e+02
474             	4.46921062e+02
475             	4.47077830e+02
476             	4.46862668e+02
477             	4.46875060e+02
478             	4.47010119e+02
479             	4.47179600e+02
480             	4.46886220e+02
481             	4.46815852e+02
482             	4.46907198e+02
483             	4.47123017e+02
484             	4.46813033e+02
485             	4.46711183e+02
486             	4.46781699e+02
487             	4.46907633e+02
488             	4.46628388e+02
489             	4.46575940e+02
490             	4.46673082e+02
491             	4.46796838e+02
492             	4.46924534e+02
493             	4.47067106e+02
494             	4.46724357e+02
495             	4.46637668e+02
496             	4.46742928e+02
497             	4.46935631e+02
498             	4.46657933e+02
499             	4.46597163e+02
500             	4.46698002e+02
501             	4.46855582e+02
502             	4.47010714e+02
503             	4.46712375e+02
504             	4.46658401e+02
505             	4.46778332e+02
506             	4.46959476e+02
507             	4.46700152e+02
508             	4.46662894e+02
509             	4.46777230e+02
510             	4.46956358e+02
511             	4.46695948e+02
512             	4.46658109e+02
513             	4.46770010e+02
514             	4.46927076e+02
515             	4.46669445e+02
516             	4.46636703e+02
517             	4.46750282e+02
518             	4.46926479e+02
519             	4.46645810e+02
520             	4.46587288e+02
521             	4.46690287e+02
522             	4.46889052e+02
523             	4.46607014e+02
524             	4.46540442e+02
525             	4.46635117e+02
526             	4.46780638e+02
527             	4.46517004e+02
528             	4.46477101e+02
529             	4.46583457e+02
530             	4.46722932e+02
531             	4.46876429e+02
532             	4.46559923e+02
533             	4.46488376e+02
534             	4.46585779e+02
535             	4.46745122e+02
536             	4.46952129e+02
537             	4.46651604e+02
538             	4.46587725e+02
539             	4.46704378e+02
540             	4.46878648e+02
541             	4.46641852e+02
542             	4.46631340e+02
543             	4.46771524e+02
544             	4.46970361e+02
545             	4.46717065e+02
546             	4.46692176e+02
547             	4.46810699e+02
548             	4.46986559e+02
549             	4.46718055e+02
550             	4.46673801e+02
551             	4.46785097e+02
552             	4.46942069e+02
553             	4.46671430e+02
554             	4.46624138e+02
555             	4.46721764e+02
556             	4.46846828e+02
557             	4.47003546e+02
558             	4.46691492e+02
559             	4.46622529e+02
560             	4.46727127e+02
561             	4.46887275e+02
562             	4.46629233e+02
563             	4.46601595e+02
564             	4.46723203e+02
565             	4.46895491e+02
566             	4.46636464e+02
567             	4.46604466e+02
568             	4.46727235e+02
569             	4.46896831e+02
570             	4.46635191e+02
571             	4.46600151e+02
572             	4.46719367e+02
573             	4.46888954e+02
574             	4.46628364e+02
575             	4.46594785e+02
576             	4.46715255e+02
577             	4.46882894e+02
578             	4.46622270e+02
579             	4.46590197e+02
580             	4.46705636e+02
581             	4.46870245e+02
582             	4.46606853e+02
583             	4.46571479e+02
584             	4.46686733e+02
585             	4.46845444e+02
586             	4.46586234e+02
587             	4.46554053e+02
588             	4.46668428e+02
589             	4.46819059e+02
590             	4.47023785e+02
591             	4.46710610e+02
592             	4.46636118e+02
593             	4.46743947e+02
594             	4.46912503e+02
595             	4.46657296e+02
596             	4.46628937e+02
597             	4.46751155e+02
598             	4.46924795e+02
599             	4.46664794e+02
600             	4.46632010e+02
601             	4.46748715e+02
602             	4.46915720e+02
603             	4.46657613e+02
604             	4.46626032e+02
605             	4.46743689e+02
606             	4.46910574e+02
607             	4.46645842e+02
608             	4.46607517e+02
609             	4.46720354e+02
610             	4.46881293e+02
611             	4.46619343e+02
612             	4.46584975e+02
613             	4.46701891e+02
614             	4.46864092e+02
615             	4.46601992e+02
616             	4.46567407e+02
617             	4.46686381e+02
618             	4.46850489e+02
619             	4.46589124e+02
620             	4.46554818e+02
621             	4.46671578e+02
