# Region        : cellZone component_1
# Cells         : 545
# Volume        : 1.08452384e+00
# Time          	volAverage(T)
1               	3.00089363e+02
2               	3.00178282e+02
3               	3.00264375e+02
4               	3.00348627e+02
5               	3.00431731e+02
6               	3.00514011e+02
7               	3.00595581e+02
8               	3.00676591e+02
9               	3.00757184e+02
10              	3.00837412e+02
11              	3.00917293e+02
12              	3.00996813e+02
13              	3.01075988e+02
14              	3.01154841e+02
15              	3.01233499e+02
16              	3.01311823e+02
17              	3.01389939e+02
18              	3.01467856e+02
19              	3.01545079e+02
20              	3.01621630e+02
21              	3.01697989e+02
22              	3.01774632e+02
23              	3.01850416e+02
24              	3.01925434e+02
25              	3.01999726e+02
26              	3.02073164e+02
27              	3.02145823e+02
28              	3.02217770e+02
29              	3.02289118e+02
30              	3.02359447e+02
31              	3.02429032e+02
32              	3.02498673e+02
33              	3.02567935e+02
34              	3.02635524e+02
35              	3.02700087e+02
36              	3.02762172e+02
37              	3.02823858e+02
38              	3.02885685e+02
39              	3.02947869e+02
40              	3.03009260e+02
41              	3.03070702e+02
42              	3.03131274e+02
43              	3.03190436e+02
44              	3.03250427e+02
45              	3.03310763e+02
46              	3.03370907e+02
47              	3.03431275e+02
48              	3.03491278e+02
49              	3.03552135e+02
50              	3.03612580e+02
51              	3.03673232e+02
52              	3.03733262e+02
53              	3.03793883e+02
54              	3.03852811e+02
55              	3.03911329e+02
56              	3.03970407e+02
57              	3.04030088e+02
58              	3.04090052e+02
59              	3.04149597e+02
60              	3.04207895e+02
61              	3.04265328e+02
62              	3.04321645e+02
63              	3.04377380e+02
64              	3.04432966e+02
65              	3.04488266e+02
66              	3.04543215e+02
67              	3.04597552e+02
68              	3.04650790e+02
69              	3.04704073e+02
70              	3.04757169e+02
71              	3.04809937e+02
72              	3.04862519e+02
73              	3.04914621e+02
74              	3.04966787e+02
75              	3.05017986e+02
76              	3.05071892e+02
77              	3.05125584e+02
78              	3.05179767e+02
79              	3.05235180e+02
80              	3.05290090e+02
81              	3.05344324e+02
82              	3.05398135e+02
83              	3.05451533e+02
84              	3.05504480e+02
85              	3.05556251e+02
86              	3.05608075e+02
87              	3.05659146e+02
88              	3.05709524e+02
89              	3.05759334e+02
90              	3.05808872e+02
91              	3.05858033e+02
92              	3.05906656e+02
93              	3.05955986e+02
94              	3.06005671e+02
95              	3.06055179e+02
96              	3.06104961e+02
97              	3.06153996e+02
98              	3.06202578e+02
99              	3.06250315e+02
100             	3.06296890e+02
101             	3.06342359e+02
102             	3.06386543e+02
103             	3.06429795e+02
104             	3.06471649e+02
105             	3.06512246e+02
106             	3.06553142e+02
107             	3.06593999e+02
108             	3.06634318e+02
109             	3.06675049e+02
110             	3.06715107e+02
111             	3.06755921e+02
112             	3.06796639e+02
113             	3.06837713e+02
114             	3.06878781e+02
115             	3.06919661e+02
116             	3.06959899e+02
117             	3.06999854e+02
118             	3.07040102e+02
119             	3.07080404e+02
120             	3.07120352e+02
121             	3.07160374e+02
122             	3.07200099e+02
123             	3.07239840e+02
124             	3.07279241e+02
125             	3.07318358e+02
126             	3.07355959e+02
127             	3.07393899e+02
128             	3.07431180e+02
129             	3.07467894e+02
130             	3.07503957e+02
131             	3.07539005e+02
132             	3.07573785e+02
133             	3.07608035e+02
134             	3.07641871e+02
135             	3.07675393e+02
136             	3.07708418e+02
137             	3.07741540e+02
138             	3.07774626e+02
139             	3.07807649e+02
140             	3.07840277e+02
141             	3.07872928e+02
142             	3.07905483e+02
143             	3.07937894e+02
144             	3.07970125e+02
145             	3.08002240e+02
146             	3.08034103e+02
147             	3.08065434e+02
148             	3.08096609e+02
149             	3.08127515e+02
150             	3.08158154e+02
151             	3.08188416e+02
152             	3.08218222e+02
153             	3.08247447e+02
154             	3.08276211e+02
155             	3.08304938e+02
156             	3.08333287e+02
157             	3.08361313e+02
158             	3.08388878e+02
159             	3.08415981e+02
160             	3.08442800e+02
161             	3.08469230e+02
162             	3.08495417e+02
163             	3.08521307e+02
164             	3.08546749e+02
165             	3.08572200e+02
166             	3.08597594e+02
167             	3.08623051e+02
168             	3.08648491e+02
169             	3.08673311e+02
170             	3.08698420e+02
171             	3.08723483e+02
172             	3.08748302e+02
173             	3.08773015e+02
174             	3.08797489e+02
175             	3.08821359e+02
176             	3.08844940e+02
177             	3.08868163e+02
178             	3.08891286e+02
179             	3.08914298e+02
180             	3.08937125e+02
181             	3.08959780e+02
182             	3.08982169e+02
183             	3.09004329e+02
184             	3.09026151e+02
185             	3.09047710e+02
186             	3.09069025e+02
187             	3.09090133e+02
188             	3.09111195e+02
189             	3.09132262e+02
190             	3.09153400e+02
191             	3.09174604e+02
192             	3.09195688e+02
193             	3.09216529e+02
194             	3.09237246e+02
195             	3.09257380e+02
196             	3.09277621e+02
197             	3.09297621e+02
198             	3.09317362e+02
199             	3.09336789e+02
200             	3.09356033e+02
201             	3.09374725e+02
202             	3.09393587e+02
203             	3.09412263e+02
204             	3.09431053e+02
205             	3.09449833e+02
206             	3.09468599e+02
207             	3.09487320e+02
208             	3.09506009e+02
209             	3.09524336e+02
210             	3.09542750e+02
211             	3.09561110e+02
212             	3.09579403e+02
213             	3.09596975e+02
214             	3.09614903e+02
215             	3.09632692e+02
216             	3.09650345e+02
217             	3.09667819e+02
218             	3.09684877e+02
219             	3.09701878e+02
220             	3.09718592e+02
221             	3.09735121e+02
222             	3.09751233e+02
223             	3.09767761e+02
224             	3.09784108e+02
225             	3.09800272e+02
226             	3.09816413e+02
227             	3.09832479e+02
228             	3.09848278e+02
229             	3.09864097e+02
230             	3.09879711e+02
231             	3.09895124e+02
232             	3.09910989e+02
233             	3.09926674e+02
234             	3.09942238e+02
235             	3.09957522e+02
236             	3.09972701e+02
237             	3.09987681e+02
238             	3.10002620e+02
239             	3.10017377e+02
240             	3.10032143e+02
241             	3.10046732e+02
242             	3.10061266e+02
243             	3.10075579e+02
244             	3.10089796e+02
245             	3.10103523e+02
246             	3.10117593e+02
247             	3.10131531e+02
248             	3.10145370e+02
249             	3.10159075e+02
250             	3.10172661e+02
251             	3.10186139e+02
252             	3.10199526e+02
253             	3.10212840e+02
254             	3.10226087e+02
255             	3.10239270e+02
256             	3.10252390e+02
257             	3.10265411e+02
258             	3.10278331e+02
259             	3.10291178e+02
260             	3.10303881e+02
261             	3.10316486e+02
262             	3.10329021e+02
263             	3.10341490e+02
264             	3.10353881e+02
265             	3.10366174e+02
266             	3.10378378e+02
267             	3.10390542e+02
268             	3.10402613e+02
269             	3.10414602e+02
270             	3.10426521e+02
271             	3.10438379e+02
272             	3.10450176e+02
273             	3.10461887e+02
274             	3.10473504e+02
275             	3.10485029e+02
276             	3.10496470e+02
277             	3.10507840e+02
278             	3.10519145e+02
279             	3.10530378e+02
280             	3.10541533e+02
281             	3.10552613e+02
282             	3.10563606e+02
283             	3.10574513e+02
284             	3.10585338e+02
285             	3.10596104e+02
286             	3.10606804e+02
287             	3.10617411e+02
288             	3.10627949e+02
289             	3.10638419e+02
290             	3.10648824e+02
291             	3.10659162e+02
292             	3.10669435e+02
293             	3.10679642e+02
294             	3.10689793e+02
295             	3.10699873e+02
296             	3.10709877e+02
297             	3.10719808e+02
298             	3.10729678e+02
299             	3.10739485e+02
300             	3.10749216e+02
301             	3.10758894e+02
302             	3.10768519e+02
303             	3.10778088e+02
304             	3.10787605e+02
305             	3.10797069e+02
306             	3.10806477e+02
307             	3.10815829e+02
308             	3.10825129e+02
309             	3.10834372e+02
310             	3.10843560e+02
311             	3.10852695e+02
312             	3.10861768e+02
313             	3.10870767e+02
314             	3.10879713e+02
315             	3.10888606e+02
316             	3.10897446e+02
317             	3.10906234e+02
318             	3.10914971e+02
319             	3.10923659e+02
320             	3.10932296e+02
321             	3.10940876e+02
322             	3.10949394e+02
323             	3.10957856e+02
324             	3.10966257e+02
325             	3.10974604e+02
326             	3.10982898e+02
327             	3.10991138e+02
328             	3.10999325e+02
329             	3.11007456e+02
330             	3.11015534e+02
331             	3.11023561e+02
332             	3.11031536e+02
333             	3.11039461e+02
334             	3.11047335e+02
335             	3.11055166e+02
336             	3.11062950e+02
337             	3.11070684e+02
338             	3.11078369e+02
339             	3.11086005e+02
340             	3.11093593e+02
341             	3.11101137e+02
342             	3.11108636e+02
343             	3.11116093e+02
344             	3.11123509e+02
345             	3.11130883e+02
346             	3.11138216e+02
347             	3.11145506e+02
348             	3.11152758e+02
349             	3.11159966e+02
350             	3.11167128e+02
351             	3.11174250e+02
352             	3.11181328e+02
353             	3.11188363e+02
354             	3.11195355e+02
355             	3.11202306e+02
356             	3.11209214e+02
357             	3.11216079e+02
358             	3.11222904e+02
359             	3.11229691e+02
360             	3.11236441e+02
361             	3.11243153e+02
362             	3.11249826e+02
363             	3.11256456e+02
364             	3.11263044e+02
365             	3.11269590e+02
366             	3.11276093e+02
367             	3.11282556e+02
368             	3.11288980e+02
369             	3.11295371e+02
370             	3.11301724e+02
371             	3.11308039e+02
372             	3.11314322e+02
373             	3.11320570e+02
374             	3.11326781e+02
375             	3.11332955e+02
376             	3.11339088e+02
377             	3.11345183e+02
378             	3.11351237e+02
379             	3.11357251e+02
380             	3.11363224e+02
381             	3.11369168e+02
382             	3.11375071e+02
383             	3.11380934e+02
384             	3.11386760e+02
385             	3.11392549e+02
386             	3.11398298e+02
387             	3.11404008e+02
388             	3.11409685e+02
389             	3.11415327e+02
390             	3.11420938e+02
391             	3.11426516e+02
392             	3.11432062e+02
393             	3.11437578e+02
394             	3.11443060e+02
395             	3.11448515e+02
396             	3.11453936e+02
397             	3.11459328e+02
398             	3.11464690e+02
399             	3.11470024e+02
400             	3.11475325e+02
401             	3.11480596e+02
402             	3.11485838e+02
403             	3.11491049e+02
404             	3.11496231e+02
405             	3.11501383e+02
406             	3.11506506e+02
407             	3.11511600e+02
408             	3.11516666e+02
409             	3.11521704e+02
410             	3.11526716e+02
411             	3.11531697e+02
412             	3.11536649e+02
413             	3.11541573e+02
414             	3.11546465e+02
415             	3.11551327e+02
416             	3.11556162e+02
417             	3.11560967e+02
418             	3.11565743e+02
419             	3.11570486e+02
420             	3.11575198e+02
421             	3.11579878e+02
422             	3.11584528e+02
423             	3.11589147e+02
424             	3.11593735e+02
425             	3.11598292e+02
426             	3.11602818e+02
427             	3.11607316e+02
428             	3.11611795e+02
429             	3.11616246e+02
430             	3.11620669e+02
431             	3.11625067e+02
432             	3.11629439e+02
433             	3.11633784e+02
434             	3.11638100e+02
435             	3.11642391e+02
436             	3.11646657e+02
437             	3.11650887e+02
438             	3.11655092e+02
439             	3.11659272e+02
440             	3.11663425e+02
441             	3.11667551e+02
442             	3.11671652e+02
443             	3.11675733e+02
444             	3.11679790e+02
445             	3.11683825e+02
446             	3.11687835e+02
447             	3.11691820e+02
448             	3.11695786e+02
449             	3.11699731e+02
450             	3.11703652e+02
451             	3.11707552e+02
452             	3.11711430e+02
453             	3.11715286e+02
454             	3.11719119e+02
455             	3.11722930e+02
456             	3.11726717e+02
457             	3.11730486e+02
458             	3.11734234e+02
459             	3.11737962e+02
460             	3.11741668e+02
461             	3.11745352e+02
462             	3.11749013e+02
463             	3.11752651e+02
464             	3.11756265e+02
465             	3.11759855e+02
466             	3.11763419e+02
467             	3.11766958e+02
468             	3.11770475e+02
469             	3.11773966e+02
470             	3.11777433e+02
471             	3.11780876e+02
472             	3.11784296e+02
473             	3.11787694e+02
474             	3.11791065e+02
475             	3.11794419e+02
476             	3.11797752e+02
477             	3.11801070e+02
478             	3.11804367e+02
479             	3.11807642e+02
480             	3.11810898e+02
481             	3.11814133e+02
482             	3.11817347e+02
483             	3.11820541e+02
484             	3.11823717e+02
485             	3.11826873e+02
486             	3.11830008e+02
487             	3.11833124e+02
488             	3.11836220e+02
489             	3.11839298e+02
490             	3.11842358e+02
491             	3.11845401e+02
492             	3.11848426e+02
493             	3.11851435e+02
494             	3.11854427e+02
495             	3.11857397e+02
496             	3.11860350e+02
497             	3.11863284e+02
498             	3.11866202e+02
499             	3.11869104e+02
500             	3.11871987e+02
501             	3.11874855e+02
502             	3.11877699e+02
503             	3.11880530e+02
504             	3.11883344e+02
505             	3.11886142e+02
506             	3.11888921e+02
507             	3.11891681e+02
508             	3.11894418e+02
509             	3.11897136e+02
510             	3.11899836e+02
511             	3.11902518e+02
512             	3.11905184e+02
513             	3.11907834e+02
514             	3.11910470e+02
515             	3.11913090e+02
516             	3.11915695e+02
517             	3.11918283e+02
518             	3.11920855e+02
519             	3.11923411e+02
520             	3.11925950e+02
521             	3.11928474e+02
522             	3.11930979e+02
523             	3.11933466e+02
524             	3.11935938e+02
525             	3.11938391e+02
526             	3.11940831e+02
527             	3.11943257e+02
528             	3.11945670e+02
529             	3.11948068e+02
530             	3.11950457e+02
531             	3.11952833e+02
532             	3.11955193e+02
533             	3.11957535e+02
534             	3.11959857e+02
535             	3.11962160e+02
536             	3.11964446e+02
537             	3.11966716e+02
538             	3.11968976e+02
539             	3.11971224e+02
540             	3.11973460e+02
541             	3.11975683e+02
542             	3.11977892e+02
543             	3.11980088e+02
544             	3.11982271e+02
545             	3.11984439e+02
546             	3.11986590e+02
547             	3.11988730e+02
548             	3.11990856e+02
549             	3.11992969e+02
550             	3.11995067e+02
551             	3.11997152e+02
552             	3.11999223e+02
553             	3.12001282e+02
554             	3.12003330e+02
555             	3.12005367e+02
556             	3.12007391e+02
557             	3.12009404e+02
558             	3.12011402e+02
559             	3.12013390e+02
560             	3.12015365e+02
561             	3.12017316e+02
562             	3.12019263e+02
563             	3.12021195e+02
564             	3.12023119e+02
565             	3.12025032e+02
566             	3.12026934e+02
567             	3.12028827e+02
568             	3.12030708e+02
569             	3.12032579e+02
570             	3.12034438e+02
571             	3.12036284e+02
572             	3.12038117e+02
573             	3.12039939e+02
574             	3.12041746e+02
575             	3.12043536e+02
576             	3.12045316e+02
577             	3.12047085e+02
578             	3.12048844e+02
579             	3.12050591e+02
580             	3.12052327e+02
581             	3.12054054e+02
582             	3.12055770e+02
583             	3.12057476e+02
584             	3.12059169e+02
585             	3.12060854e+02
586             	3.12062527e+02
587             	3.12064189e+02
588             	3.12065840e+02
589             	3.12067480e+02
590             	3.12069112e+02
591             	3.12070734e+02
592             	3.12072347e+02
593             	3.12073948e+02
594             	3.12075540e+02
595             	3.12077122e+02
596             	3.12078695e+02
597             	3.12080261e+02
598             	3.12081819e+02
599             	3.12083367e+02
600             	3.12084907e+02
601             	3.12086438e+02
602             	3.12087962e+02
603             	3.12089478e+02
604             	3.12090978e+02
605             	3.12092469e+02
606             	3.12093951e+02
607             	3.12095423e+02
608             	3.12096886e+02
609             	3.12098340e+02
610             	3.12099786e+02
611             	3.12101221e+02
612             	3.12102646e+02
613             	3.12104058e+02
614             	3.12105460e+02
615             	3.12106849e+02
616             	3.12108233e+02
617             	3.12109611e+02
618             	3.12110980e+02
619             	3.12112342e+02
620             	3.12113697e+02
621             	3.12115048e+02
