# Region        : cellZone component_1
# Cells         : 48
# Volume        : 7.82041549e-02
# Time          	volAverage(T)
1               	3.01379443e+02
2               	3.02729231e+02
3               	3.03818866e+02
4               	3.04779467e+02
5               	3.05729635e+02
6               	3.06692290e+02
7               	3.07648491e+02
8               	3.08600986e+02
9               	3.09534886e+02
10              	3.10466021e+02
11              	3.11348212e+02
12              	3.12178171e+02
13              	3.12953627e+02
14              	3.13679654e+02
15              	3.14332602e+02
16              	3.15031341e+02
17              	3.15761610e+02
18              	3.16464540e+02
19              	3.17142257e+02
20              	3.17809019e+02
21              	3.18483481e+02
22              	3.19180563e+02
23              	3.19873091e+02
24              	3.20567654e+02
25              	3.21254427e+02
26              	3.21930338e+02
27              	3.22560938e+02
28              	3.23209792e+02
29              	3.23809314e+02
30              	3.24344973e+02
31              	3.24799523e+02
32              	3.25215922e+02
33              	3.25601462e+02
34              	3.25932611e+02
35              	3.26282806e+02
36              	3.26666492e+02
37              	3.27026149e+02
38              	3.27366843e+02
39              	3.27709035e+02
40              	3.28024299e+02
41              	3.28311394e+02
42              	3.28588951e+02
43              	3.28845506e+02
44              	3.29103385e+02
45              	3.29348223e+02
46              	3.29557746e+02
47              	3.29756776e+02
48              	3.29946120e+02
49              	3.30101917e+02
50              	3.30250702e+02
51              	3.30432370e+02
52              	3.30652077e+02
53              	3.30833825e+02
54              	3.30892510e+02
55              	3.30995025e+02
56              	3.31119795e+02
57              	3.31280921e+02
58              	3.31468860e+02
59              	3.31649843e+02
60              	3.31774720e+02
61              	3.31903744e+02
62              	3.31992058e+02
63              	3.32054385e+02
64              	3.32079274e+02
65              	3.32110374e+02
66              	3.32160493e+02
67              	3.32215265e+02
68              	3.32273098e+02
69              	3.32302283e+02
70              	3.32312413e+02
71              	3.32348414e+02
72              	3.32390038e+02
73              	3.32429999e+02
74              	3.32465134e+02
75              	3.32501585e+02
76              	3.32540685e+02
77              	3.32597670e+02
78              	3.32677930e+02
79              	3.32777578e+02
80              	3.32885457e+02
81              	3.33006397e+02
82              	3.33124318e+02
83              	3.33260930e+02
84              	3.33420224e+02
85              	3.33594854e+02
86              	3.33721346e+02
87              	3.33864824e+02
88              	3.34021561e+02
89              	3.34174367e+02
90              	3.34302137e+02
91              	3.34407874e+02
92              	3.34482146e+02
93              	3.34549361e+02
94              	3.34580148e+02
95              	3.34614731e+02
96              	3.34660500e+02
97              	3.34697643e+02
98              	3.34748382e+02
99              	3.34794705e+02
100             	3.34840955e+02
101             	3.34889796e+02
102             	3.34931421e+02
103             	3.34987453e+02
104             	3.34990581e+02
105             	3.35007703e+02
106             	3.35045494e+02
107             	3.35112891e+02
108             	3.35212070e+02
109             	3.35242220e+02
110             	3.35199723e+02
111             	3.35190064e+02
112             	3.35187336e+02
113             	3.35165784e+02
114             	3.35129436e+02
115             	3.35062373e+02
116             	3.35008658e+02
117             	3.34929874e+02
118             	3.34879463e+02
119             	3.34866732e+02
120             	3.34867572e+02
121             	3.34876184e+02
122             	3.34879075e+02
123             	3.34858344e+02
124             	3.34867733e+02
125             	3.34867374e+02
126             	3.34876575e+02
127             	3.34891966e+02
128             	3.34915804e+02
129             	3.34942456e+02
130             	3.34949881e+02
131             	3.34961929e+02
132             	3.34985194e+02
133             	3.34985026e+02
134             	3.34998645e+02
135             	3.34980648e+02
136             	3.34926013e+02
137             	3.34881939e+02
138             	3.34839017e+02
139             	3.34785169e+02
140             	3.34720295e+02
141             	3.34659125e+02
142             	3.34586131e+02
143             	3.34550655e+02
144             	3.34519480e+02
145             	3.34515435e+02
146             	3.34537142e+02
147             	3.34557613e+02
148             	3.34580539e+02
149             	3.34598486e+02
150             	3.34611883e+02
151             	3.34611421e+02
152             	3.34605335e+02
153             	3.34601475e+02
154             	3.34568631e+02
155             	3.34553862e+02
156             	3.34545017e+02
157             	3.34508978e+02
158             	3.34491306e+02
159             	3.34489294e+02
160             	3.34487602e+02
161             	3.34483127e+02
162             	3.34471614e+02
163             	3.34461026e+02
164             	3.34413142e+02
165             	3.34381028e+02
166             	3.34359842e+02
167             	3.34358577e+02
168             	3.34335357e+02
169             	3.34310877e+02
170             	3.34252714e+02
171             	3.34236825e+02
172             	3.34232929e+02
173             	3.34223844e+02
174             	3.34208968e+02
175             	3.34195706e+02
176             	3.34188497e+02
177             	3.34152303e+02
178             	3.34153009e+02
179             	3.34156445e+02
180             	3.34159250e+02
181             	3.34156324e+02
182             	3.34153881e+02
183             	3.34159514e+02
184             	3.34157775e+02
185             	3.34147703e+02
186             	3.34132662e+02
187             	3.34111967e+02
188             	3.34085831e+02
189             	3.34053705e+02
190             	3.34030009e+02
191             	3.34012068e+02
192             	3.33990997e+02
193             	3.33971138e+02
194             	3.33922474e+02
195             	3.33878199e+02
196             	3.33862133e+02
197             	3.33865248e+02
198             	3.33858404e+02
199             	3.33871294e+02
200             	3.33892421e+02
201             	3.33882201e+02
202             	3.33874037e+02
203             	3.33860615e+02
204             	3.33833381e+02
205             	3.33801294e+02
206             	3.33772809e+02
207             	3.33726015e+02
208             	3.33706797e+02
209             	3.33701857e+02
210             	3.33718470e+02
211             	3.33736129e+02
212             	3.33772547e+02
213             	3.33807967e+02
214             	3.33840982e+02
215             	3.33832505e+02
216             	3.33819123e+02
217             	3.33819787e+02
218             	3.33818729e+02
219             	3.33795884e+02
220             	3.33787728e+02
221             	3.33784501e+02
222             	3.33771305e+02
223             	3.33751185e+02
224             	3.33728157e+02
225             	3.33706145e+02
226             	3.33687138e+02
227             	3.33669132e+02
228             	3.33650431e+02
229             	3.33622270e+02
230             	3.33601179e+02
231             	3.33591082e+02
232             	3.33587578e+02
233             	3.33582078e+02
234             	3.33581472e+02
235             	3.33589084e+02
236             	3.33608021e+02
237             	3.33593618e+02
238             	3.33576840e+02
239             	3.33569946e+02
240             	3.33570925e+02
241             	3.33573228e+02
242             	3.33574142e+02
243             	3.33573765e+02
244             	3.33569194e+02
245             	3.33562089e+02
246             	3.33548848e+02
247             	3.33541751e+02
248             	3.33534003e+02
249             	3.33521481e+02
250             	3.33506415e+02
251             	3.33491501e+02
252             	3.33478165e+02
253             	3.33466305e+02
254             	3.33456916e+02
255             	3.33451179e+02
256             	3.33446670e+02
257             	3.33444967e+02
258             	3.33445574e+02
259             	3.33448443e+02
260             	3.33453589e+02
261             	3.33462411e+02
262             	3.33467268e+02
263             	3.33470637e+02
264             	3.33475116e+02
265             	3.33480403e+02
266             	3.33485214e+02
267             	3.33487669e+02
268             	3.33488448e+02
269             	3.33485941e+02
270             	3.33478554e+02
271             	3.33476700e+02
272             	3.33477279e+02
273             	3.33476452e+02
274             	3.33476703e+02
275             	3.33478813e+02
276             	3.33479397e+02
277             	3.33479309e+02
278             	3.33480342e+02
279             	3.33481170e+02
280             	3.33484127e+02
281             	3.33488928e+02
282             	3.33494193e+02
283             	3.33498959e+02
284             	3.33499955e+02
285             	3.33500344e+02
286             	3.33502062e+02
287             	3.33505221e+02
288             	3.33509029e+02
289             	3.33513027e+02
290             	3.33513967e+02
291             	3.33513108e+02
292             	3.33513911e+02
293             	3.33513727e+02
294             	3.33512936e+02
295             	3.33513166e+02
296             	3.33513526e+02
297             	3.33513805e+02
298             	3.33513332e+02
299             	3.33513535e+02
300             	3.33514714e+02
301             	3.33516875e+02
302             	3.33520069e+02
303             	3.33523752e+02
304             	3.33528649e+02
305             	3.33534157e+02
306             	3.33539054e+02
307             	3.33543959e+02
308             	3.33548523e+02
309             	3.33550485e+02
310             	3.33552511e+02
311             	3.33555287e+02
312             	3.33557865e+02
313             	3.33559995e+02
314             	3.33561855e+02
315             	3.33563679e+02
316             	3.33566800e+02
317             	3.33569694e+02
318             	3.33572516e+02
319             	3.33575184e+02
320             	3.33576812e+02
321             	3.33578617e+02
322             	3.33581192e+02
323             	3.33584621e+02
324             	3.33588784e+02
325             	3.33593632e+02
326             	3.33597753e+02
327             	3.33601479e+02
328             	3.33605341e+02
329             	3.33609089e+02
330             	3.33611806e+02
331             	3.33614218e+02
332             	3.33616370e+02
333             	3.33617232e+02
334             	3.33619249e+02
335             	3.33623480e+02
336             	3.33627623e+02
337             	3.33630902e+02
338             	3.33633669e+02
339             	3.33637256e+02
340             	3.33640774e+02
341             	3.33642767e+02
342             	3.33644946e+02
343             	3.33648025e+02
344             	3.33651646e+02
345             	3.33654692e+02
346             	3.33656914e+02
347             	3.33659868e+02
348             	3.33663164e+02
349             	3.33665945e+02
350             	3.33667793e+02
351             	3.33669440e+02
352             	3.33671866e+02
353             	3.33674577e+02
354             	3.33676907e+02
355             	3.33679195e+02
356             	3.33682007e+02
357             	3.33685855e+02
358             	3.33689892e+02
359             	3.33693747e+02
360             	3.33697089e+02
361             	3.33699866e+02
362             	3.33702686e+02
363             	3.33705009e+02
364             	3.33707427e+02
365             	3.33709652e+02
366             	3.33711453e+02
367             	3.33712721e+02
368             	3.33714576e+02
369             	3.33716709e+02
370             	3.33718591e+02
371             	3.33720404e+02
372             	3.33722234e+02
373             	3.33724431e+02
374             	3.33726711e+02
375             	3.33729113e+02
376             	3.33731465e+02
377             	3.33733907e+02
378             	3.33735826e+02
379             	3.33738015e+02
380             	3.33740364e+02
381             	3.33743065e+02
382             	3.33745778e+02
383             	3.33748637e+02
384             	3.33751229e+02
385             	3.33753393e+02
386             	3.33755670e+02
387             	3.33757429e+02
388             	3.33758712e+02
389             	3.33760089e+02
390             	3.33761775e+02
391             	3.33763647e+02
392             	3.33765526e+02
393             	3.33767115e+02
394             	3.33768479e+02
395             	3.33769686e+02
396             	3.33771336e+02
397             	3.33773183e+02
398             	3.33774337e+02
399             	3.33775300e+02
400             	3.33776271e+02
401             	3.33777448e+02
402             	3.33779098e+02
403             	3.33780529e+02
404             	3.33782158e+02
405             	3.33784002e+02
406             	3.33785776e+02
407             	3.33787579e+02
408             	3.33789358e+02
409             	3.33791135e+02
410             	3.33792789e+02
411             	3.33794094e+02
412             	3.33795375e+02
413             	3.33796549e+02
414             	3.33797617e+02
415             	3.33798536e+02
416             	3.33799623e+02
417             	3.33800753e+02
418             	3.33801906e+02
419             	3.33803109e+02
420             	3.33804202e+02
421             	3.33805268e+02
422             	3.33806363e+02
423             	3.33807523e+02
424             	3.33808711e+02
425             	3.33809971e+02
426             	3.33811152e+02
427             	3.33812371e+02
428             	3.33813635e+02
429             	3.33814974e+02
430             	3.33816296e+02
431             	3.33817495e+02
432             	3.33818631e+02
433             	3.33819713e+02
434             	3.33820739e+02
435             	3.33821742e+02
436             	3.33822696e+02
437             	3.33823667e+02
438             	3.33824574e+02
439             	3.33825416e+02
440             	3.33826219e+02
441             	3.33826974e+02
442             	3.33827721e+02
443             	3.33828446e+02
444             	3.33829126e+02
445             	3.33829820e+02
446             	3.33830492e+02
447             	3.33831146e+02
448             	3.33831793e+02
449             	3.33832428e+02
450             	3.33833110e+02
451             	3.33833843e+02
452             	3.33834579e+02
453             	3.33835349e+02
454             	3.33836096e+02
455             	3.33836849e+02
456             	3.33837596e+02
457             	3.33838374e+02
458             	3.33839147e+02
459             	3.33839892e+02
460             	3.33840586e+02
461             	3.33841226e+02
462             	3.33841836e+02
463             	3.33842439e+02
464             	3.33843030e+02
465             	3.33843553e+02
466             	3.33844156e+02
467             	3.33844756e+02
468             	3.33845292e+02
469             	3.33845804e+02
470             	3.33846292e+02
471             	3.33846764e+02
472             	3.33847224e+02
473             	3.33847698e+02
474             	3.33848201e+02
475             	3.33848695e+02
476             	3.33849178e+02
477             	3.33849688e+02
478             	3.33850234e+02
479             	3.33850779e+02
480             	3.33851293e+02
481             	3.33851807e+02
482             	3.33852324e+02
483             	3.33852845e+02
484             	3.33853354e+02
485             	3.33853856e+02
486             	3.33854330e+02
487             	3.33854795e+02
488             	3.33855210e+02
489             	3.33855640e+02
490             	3.33856046e+02
491             	3.33856419e+02
492             	3.33856771e+02
493             	3.33857127e+02
494             	3.33857466e+02
495             	3.33857799e+02
496             	3.33858168e+02
497             	3.33858485e+02
498             	3.33858826e+02
499             	3.33859196e+02
500             	3.33859541e+02
501             	3.33859894e+02
502             	3.33860204e+02
503             	3.33860524e+02
504             	3.33860868e+02
505             	3.33861228e+02
506             	3.33861611e+02
507             	3.33862008e+02
508             	3.33862378e+02
509             	3.33862742e+02
510             	3.33863084e+02
511             	3.33863424e+02
512             	3.33863770e+02
513             	3.33864084e+02
514             	3.33864383e+02
515             	3.33864687e+02
516             	3.33864983e+02
517             	3.33865271e+02
518             	3.33865577e+02
519             	3.33865880e+02
520             	3.33866154e+02
521             	3.33866414e+02
522             	3.33866671e+02
523             	3.33866910e+02
524             	3.33867138e+02
525             	3.33867375e+02
526             	3.33867620e+02
527             	3.33867880e+02
528             	3.33868139e+02
529             	3.33868397e+02
530             	3.33868654e+02
531             	3.33868909e+02
532             	3.33869149e+02
533             	3.33869402e+02
534             	3.33869665e+02
535             	3.33869907e+02
536             	3.33870140e+02
537             	3.33870371e+02
538             	3.33870607e+02
539             	3.33870852e+02
540             	3.33871084e+02
541             	3.33871320e+02
542             	3.33871531e+02
543             	3.33871725e+02
544             	3.33871911e+02
545             	3.33872083e+02
546             	3.33872277e+02
547             	3.33872470e+02
548             	3.33872644e+02
549             	3.33872814e+02
550             	3.33872983e+02
551             	3.33873151e+02
552             	3.33873315e+02
553             	3.33873484e+02
554             	3.33873661e+02
555             	3.33873839e+02
556             	3.33874014e+02
557             	3.33874206e+02
558             	3.33874394e+02
559             	3.33874569e+02
560             	3.33874740e+02
561             	3.33874921e+02
562             	3.33875104e+02
563             	3.33875286e+02
564             	3.33875459e+02
565             	3.33875625e+02
566             	3.33875792e+02
567             	3.33875956e+02
568             	3.33876108e+02
569             	3.33876232e+02
570             	3.33876372e+02
571             	3.33876512e+02
572             	3.33876637e+02
573             	3.33876760e+02
574             	3.33876876e+02
575             	3.33876988e+02
576             	3.33877101e+02
577             	3.33877227e+02
578             	3.33877354e+02
579             	3.33877478e+02
580             	3.33877595e+02
581             	3.33877717e+02
582             	3.33877847e+02
583             	3.33877980e+02
584             	3.33878112e+02
585             	3.33878229e+02
586             	3.33878360e+02
587             	3.33878509e+02
588             	3.33878652e+02
589             	3.33878801e+02
590             	3.33878930e+02
591             	3.33879048e+02
592             	3.33879163e+02
593             	3.33879293e+02
594             	3.33879402e+02
595             	3.33879496e+02
596             	3.33879583e+02
597             	3.33879669e+02
598             	3.33879753e+02
599             	3.33879827e+02
600             	3.33879899e+02
601             	3.33879978e+02
602             	3.33880059e+02
603             	3.33880143e+02
604             	3.33880231e+02
605             	3.33880303e+02
606             	3.33880386e+02
607             	3.33880484e+02
608             	3.33880575e+02
609             	3.33880655e+02
610             	3.33880746e+02
611             	3.33880812e+02
612             	3.33880870e+02
613             	3.33880943e+02
614             	3.33881021e+02
615             	3.33881104e+02
616             	3.33881189e+02
617             	3.33881269e+02
618             	3.33881349e+02
619             	3.33881438e+02
620             	3.33881522e+02
621             	3.33881597e+02
