# Region        : cellZone component_3
# Cells         : 80
# Volume        : 1.50732480e-01
# Time          	volAverage(T)
1               	3.00711605e+02
2               	3.01414376e+02
3               	3.02062795e+02
4               	3.02677932e+02
5               	3.03274659e+02
6               	3.03857555e+02
7               	3.04429947e+02
8               	3.04993368e+02
9               	3.05554870e+02
10              	3.06108738e+02
11              	3.06639996e+02
12              	3.07144538e+02
13              	3.07627240e+02
14              	3.08096301e+02
15              	3.08537534e+02
16              	3.08954357e+02
17              	3.09355862e+02
18              	3.09749450e+02
19              	3.10142748e+02
20              	3.10518204e+02
21              	3.10900939e+02
22              	3.11282660e+02
23              	3.11634261e+02
24              	3.11974320e+02
25              	3.12301295e+02
26              	3.12637413e+02
27              	3.12971846e+02
28              	3.13321271e+02
29              	3.13655876e+02
30              	3.13955705e+02
31              	3.14217564e+02
32              	3.14441300e+02
33              	3.14667953e+02
34              	3.14871545e+02
35              	3.15080715e+02
36              	3.15286388e+02
37              	3.15491771e+02
38              	3.15689199e+02
39              	3.15882559e+02
40              	3.16067176e+02
41              	3.16247032e+02
42              	3.16421423e+02
43              	3.16596230e+02
44              	3.16760672e+02
45              	3.16923758e+02
46              	3.17079842e+02
47              	3.17235072e+02
48              	3.17386907e+02
49              	3.17533911e+02
50              	3.17677202e+02
51              	3.17821264e+02
52              	3.17957065e+02
53              	3.18089726e+02
54              	3.18220701e+02
55              	3.18348549e+02
56              	3.18474488e+02
57              	3.18597240e+02
58              	3.18719407e+02
59              	3.18840335e+02
60              	3.18955513e+02
61              	3.19068323e+02
62              	3.19176540e+02
63              	3.19281141e+02
64              	3.19382475e+02
65              	3.19480888e+02
66              	3.19574368e+02
67              	3.19665865e+02
68              	3.19754860e+02
69              	3.19841771e+02
70              	3.19927663e+02
71              	3.20014013e+02
72              	3.20097869e+02
73              	3.20182389e+02
74              	3.20264166e+02
75              	3.20345963e+02
76              	3.20425518e+02
77              	3.20505173e+02
78              	3.20584781e+02
79              	3.20660430e+02
80              	3.20735017e+02
81              	3.20807034e+02
82              	3.20878021e+02
83              	3.20947200e+02
84              	3.21016575e+02
85              	3.21083166e+02
86              	3.21147995e+02
87              	3.21211071e+02
88              	3.21273136e+02
89              	3.21331194e+02
90              	3.21388351e+02
91              	3.21441573e+02
92              	3.21494351e+02
93              	3.21546339e+02
94              	3.21596492e+02
95              	3.21646129e+02
96              	3.21696345e+02
97              	3.21746733e+02
98              	3.21796523e+02
99              	3.21845136e+02
100             	3.21892261e+02
101             	3.21938157e+02
102             	3.21983714e+02
103             	3.22029580e+02
104             	3.22076093e+02
105             	3.22121720e+02
106             	3.22166883e+02
107             	3.22211021e+02
108             	3.22254182e+02
109             	3.22295951e+02
110             	3.22335724e+02
111             	3.22373615e+02
112             	3.22409895e+02
113             	3.22444853e+02
114             	3.22479050e+02
115             	3.22512590e+02
116             	3.22545669e+02
117             	3.22577885e+02
118             	3.22608922e+02
119             	3.22639211e+02
120             	3.22668195e+02
121             	3.22695823e+02
122             	3.22721710e+02
123             	3.22746630e+02
124             	3.22771110e+02
125             	3.22795337e+02
126             	3.22819709e+02
127             	3.22844407e+02
128             	3.22869381e+02
129             	3.22894103e+02
130             	3.22918387e+02
131             	3.22942063e+02
132             	3.22965669e+02
133             	3.22988893e+02
134             	3.23011975e+02
135             	3.23035121e+02
136             	3.23058376e+02
137             	3.23081743e+02
138             	3.23105138e+02
139             	3.23128861e+02
140             	3.23152333e+02
141             	3.23175530e+02
142             	3.23198171e+02
143             	3.23220365e+02
144             	3.23242128e+02
145             	3.23263538e+02
146             	3.23284663e+02
147             	3.23305528e+02
148             	3.23326212e+02
149             	3.23346560e+02
150             	3.23366423e+02
151             	3.23385765e+02
152             	3.23404430e+02
153             	3.23422210e+02
154             	3.23438935e+02
155             	3.23454819e+02
156             	3.23470052e+02
157             	3.23484788e+02
158             	3.23499135e+02
159             	3.23513330e+02
160             	3.23527331e+02
161             	3.23541239e+02
162             	3.23555024e+02
163             	3.23568741e+02
164             	3.23582422e+02
165             	3.23595912e+02
166             	3.23609033e+02
167             	3.23621718e+02
168             	3.23633976e+02
169             	3.23646025e+02
170             	3.23657980e+02
171             	3.23669846e+02
172             	3.23681789e+02
173             	3.23693767e+02
174             	3.23705748e+02
175             	3.23717845e+02
176             	3.23730071e+02
177             	3.23742103e+02
178             	3.23753990e+02
179             	3.23765662e+02
180             	3.23777066e+02
181             	3.23788558e+02
182             	3.23800419e+02
183             	3.23812517e+02
184             	3.23825100e+02
185             	3.23838023e+02
186             	3.23850908e+02
187             	3.23864190e+02
188             	3.23876914e+02
189             	3.23889665e+02
190             	3.23901974e+02
191             	3.23913378e+02
192             	3.23923990e+02
193             	3.23933704e+02
194             	3.23942907e+02
195             	3.23951022e+02
196             	3.23958775e+02
197             	3.23966260e+02
198             	3.23973387e+02
199             	3.23980393e+02
200             	3.23987485e+02
201             	3.23994806e+02
202             	3.24002529e+02
203             	3.24010760e+02
204             	3.24019531e+02
205             	3.24028592e+02
206             	3.24038156e+02
207             	3.24047945e+02
208             	3.24057722e+02
209             	3.24067364e+02
210             	3.24076745e+02
211             	3.24085871e+02
212             	3.24094672e+02
213             	3.24103110e+02
214             	3.24111264e+02
215             	3.24119179e+02
216             	3.24126882e+02
217             	3.24134287e+02
218             	3.24141259e+02
219             	3.24147972e+02
220             	3.24154457e+02
221             	3.24160625e+02
222             	3.24166525e+02
223             	3.24172355e+02
224             	3.24177978e+02
225             	3.24183493e+02
226             	3.24176687e+02
227             	3.24198064e+02
228             	3.24254776e+02
229             	3.24340420e+02
230             	3.24444989e+02
231             	3.24561859e+02
232             	3.24685834e+02
233             	3.24813420e+02
234             	3.24942157e+02
235             	3.25070629e+02
236             	3.25198508e+02
237             	3.25326517e+02
238             	3.25454924e+02
239             	3.25584415e+02
240             	3.25714006e+02
241             	3.25844260e+02
242             	3.25975763e+02
243             	3.26109390e+02
244             	3.26244618e+02
245             	3.26381098e+02
246             	3.26518342e+02
247             	3.26656258e+02
248             	3.26793433e+02
249             	3.26931204e+02
250             	3.27070164e+02
251             	3.27207610e+02
252             	3.27342833e+02
253             	3.27477410e+02
254             	3.27611540e+02
255             	3.27745325e+02
256             	3.27879259e+02
257             	3.28014293e+02
258             	3.28150431e+02
259             	3.28284304e+02
260             	3.28415398e+02
261             	3.28548750e+02
262             	3.28681412e+02
263             	3.28814749e+02
264             	3.28947525e+02
265             	3.29078745e+02
266             	3.29208372e+02
267             	3.29336888e+02
268             	3.29463748e+02
269             	3.29589343e+02
270             	3.29713899e+02
271             	3.29837278e+02
272             	3.29959338e+02
273             	3.30080014e+02
274             	3.30199410e+02
275             	3.30316220e+02
276             	3.30431367e+02
277             	3.30546031e+02
278             	3.30659432e+02
279             	3.30772729e+02
280             	3.30884128e+02
281             	3.30986242e+02
282             	3.31091918e+02
283             	3.31199006e+02
284             	3.31306369e+02
285             	3.31413668e+02
286             	3.31519253e+02
287             	3.31623172e+02
288             	3.31726615e+02
289             	3.31818208e+02
290             	3.31913005e+02
291             	3.32008620e+02
292             	3.32101927e+02
293             	3.32195648e+02
294             	3.32290007e+02
295             	3.32383750e+02
296             	3.32470810e+02
297             	3.32555545e+02
298             	3.32645070e+02
299             	3.32736893e+02
300             	3.32825113e+02
301             	3.32910539e+02
302             	3.32997968e+02
303             	3.33085908e+02
304             	3.33173381e+02
305             	3.33260342e+02
306             	3.33328922e+02
307             	3.33402651e+02
308             	3.33467606e+02
309             	3.33530022e+02
310             	3.33591984e+02
311             	3.33654075e+02
312             	3.33716021e+02
313             	3.33780603e+02
314             	3.33846937e+02
315             	3.33913611e+02
316             	3.33981405e+02
317             	3.34050637e+02
318             	3.34113358e+02
319             	3.34179772e+02
320             	3.34241865e+02
321             	3.34306608e+02
322             	3.34373193e+02
323             	3.34432033e+02
324             	3.34493931e+02
325             	3.34557444e+02
326             	3.34615831e+02
327             	3.34673447e+02
328             	3.34732184e+02
329             	3.34784872e+02
330             	3.34832922e+02
331             	3.34880105e+02
332             	3.34929250e+02
333             	3.34978906e+02
334             	3.35029640e+02
335             	3.35082025e+02
336             	3.35135312e+02
337             	3.35189701e+02
338             	3.35246102e+02
339             	3.35303455e+02
340             	3.35360134e+02
341             	3.35415945e+02
342             	3.35470330e+02
343             	3.35529636e+02
344             	3.35576419e+02
345             	3.35620574e+02
346             	3.35663891e+02
347             	3.35707103e+02
348             	3.35749136e+02
349             	3.35784888e+02
350             	3.35822991e+02
351             	3.35861661e+02
352             	3.35900977e+02
353             	3.35941302e+02
354             	3.35983215e+02
355             	3.36026602e+02
356             	3.36070750e+02
357             	3.36115901e+02
358             	3.36154508e+02
359             	3.36191238e+02
360             	3.36226437e+02
361             	3.36258102e+02
362             	3.36285443e+02
363             	3.36308981e+02
364             	3.36329927e+02
365             	3.36352356e+02
366             	3.36375068e+02
367             	3.36395945e+02
368             	3.36421044e+02
369             	3.36448591e+02
370             	3.36478054e+02
371             	3.36509647e+02
372             	3.36542770e+02
373             	3.36575565e+02
374             	3.36606268e+02
375             	3.36636401e+02
376             	3.36665637e+02
377             	3.36696031e+02
378             	3.36716092e+02
379             	3.36735059e+02
380             	3.36753252e+02
381             	3.36771874e+02
382             	3.36790792e+02
383             	3.36809643e+02
384             	3.36829269e+02
385             	3.36841667e+02
386             	3.36850676e+02
387             	3.36868247e+02
388             	3.36889985e+02
389             	3.36914631e+02
390             	3.36941467e+02
391             	3.36968038e+02
392             	3.36993480e+02
393             	3.37018571e+02
394             	3.37044438e+02
395             	3.37066730e+02
396             	3.37087819e+02
397             	3.37106933e+02
398             	3.37126079e+02
399             	3.37148660e+02
400             	3.37166267e+02
401             	3.37184718e+02
402             	3.37204528e+02
403             	3.37230438e+02
404             	3.37249943e+02
405             	3.37267576e+02
406             	3.37282137e+02
407             	3.37297670e+02
408             	3.37306339e+02
409             	3.37317416e+02
410             	3.37331166e+02
411             	3.37349530e+02
412             	3.37369319e+02
413             	3.37389701e+02
414             	3.37398166e+02
415             	3.37412151e+02
416             	3.37426161e+02
417             	3.37438499e+02
418             	3.37449852e+02
419             	3.37457666e+02
420             	3.37462703e+02
421             	3.37466484e+02
422             	3.37470053e+02
423             	3.37473044e+02
424             	3.37477606e+02
425             	3.37483873e+02
426             	3.37491559e+02
427             	3.37500394e+02
428             	3.37509363e+02
429             	3.37519288e+02
430             	3.37530787e+02
431             	3.37544735e+02
432             	3.37560141e+02
433             	3.37576486e+02
434             	3.37593642e+02
435             	3.37611320e+02
436             	3.37619379e+02
437             	3.37637050e+02
438             	3.37646855e+02
439             	3.37655999e+02
440             	3.37664771e+02
441             	3.37672084e+02
442             	3.37676912e+02
443             	3.37677817e+02
444             	3.37683854e+02
445             	3.37694392e+02
446             	3.37707155e+02
447             	3.37722942e+02
448             	3.37729299e+02
449             	3.37742801e+02
450             	3.37757523e+02
451             	3.37771910e+02
452             	3.37783144e+02
453             	3.37787603e+02
454             	3.37785165e+02
455             	3.37782936e+02
456             	3.37783404e+02
457             	3.37784335e+02
458             	3.37787218e+02
459             	3.37791431e+02
460             	3.37799624e+02
461             	3.37810880e+02
462             	3.37813633e+02
463             	3.37816200e+02
464             	3.37822081e+02
465             	3.37831302e+02
466             	3.37844339e+02
467             	3.37855524e+02
468             	3.37864573e+02
469             	3.37867899e+02
470             	3.37874184e+02
471             	3.37880689e+02
472             	3.37890092e+02
473             	3.37901015e+02
474             	3.37911522e+02
475             	3.37912727e+02
476             	3.37919418e+02
477             	3.37929977e+02
478             	3.37942175e+02
479             	3.37951697e+02
480             	3.37957875e+02
481             	3.37959863e+02
482             	3.37964256e+02
483             	3.37974038e+02
484             	3.37990828e+02
485             	3.37992844e+02
486             	3.38001591e+02
487             	3.38005335e+02
488             	3.38008202e+02
489             	3.38010413e+02
490             	3.38010583e+02
491             	3.38012136e+02
492             	3.37981582e+02
493             	3.37958272e+02
494             	3.37947460e+02
495             	3.37946462e+02
496             	3.37951524e+02
497             	3.37964731e+02
498             	3.37972499e+02
499             	3.37993162e+02
500             	3.38024575e+02
501             	3.38061225e+02
502             	3.38089855e+02
503             	3.38109815e+02
504             	3.38133569e+02
505             	3.38155814e+02
506             	3.38153200e+02
507             	3.38146264e+02
508             	3.38138606e+02
509             	3.38127729e+02
510             	3.38110645e+02
511             	3.38084583e+02
512             	3.38064278e+02
513             	3.38051043e+02
514             	3.38040962e+02
515             	3.38026650e+02
516             	3.38031016e+02
517             	3.38025744e+02
518             	3.38035856e+02
519             	3.38053334e+02
520             	3.38070905e+02
521             	3.38081672e+02
522             	3.38090240e+02
523             	3.38097551e+02
524             	3.38100221e+02
525             	3.38098115e+02
526             	3.38092760e+02
527             	3.38083940e+02
528             	3.38073042e+02
529             	3.38060851e+02
530             	3.38047905e+02
531             	3.38032681e+02
532             	3.38013993e+02
533             	3.37999603e+02
534             	3.37993721e+02
535             	3.37995157e+02
536             	3.37993494e+02
537             	3.38002161e+02
538             	3.38018462e+02
539             	3.38040313e+02
540             	3.38064259e+02
541             	3.38092685e+02
542             	3.38112141e+02
543             	3.38126201e+02
544             	3.38136160e+02
545             	3.38151211e+02
546             	3.38148479e+02
547             	3.38143644e+02
548             	3.38139950e+02
549             	3.38138358e+02
550             	3.38137769e+02
551             	3.38139301e+02
552             	3.38148018e+02
553             	3.38163026e+02
554             	3.38183881e+02
555             	3.38209519e+02
556             	3.38230282e+02
557             	3.38243685e+02
558             	3.38262642e+02
559             	3.38282147e+02
560             	3.38298844e+02
561             	3.38309599e+02
562             	3.38313729e+02
563             	3.38316824e+02
564             	3.38317548e+02
565             	3.38316470e+02
566             	3.38314571e+02
567             	3.38313297e+02
568             	3.38312436e+02
569             	3.38313497e+02
570             	3.38316536e+02
571             	3.38324978e+02
572             	3.38328672e+02
573             	3.38332458e+02
574             	3.38337516e+02
575             	3.38346228e+02
576             	3.38347471e+02
577             	3.38347074e+02
578             	3.38346408e+02
579             	3.38345472e+02
580             	3.38344334e+02
581             	3.38343901e+02
582             	3.38343358e+02
583             	3.38342435e+02
584             	3.38340688e+02
585             	3.38337394e+02
586             	3.38333667e+02
587             	3.38329962e+02
588             	3.38326851e+02
589             	3.38325335e+02
590             	3.38325804e+02
591             	3.38328820e+02
592             	3.38332983e+02
593             	3.38338277e+02
594             	3.38342888e+02
595             	3.38347774e+02
596             	3.38348810e+02
597             	3.38350714e+02
598             	3.38349531e+02
599             	3.38350066e+02
600             	3.38351474e+02
601             	3.38353117e+02
602             	3.38354996e+02
603             	3.38346971e+02
604             	3.38345796e+02
605             	3.38343397e+02
606             	3.38340597e+02
607             	3.38335672e+02
608             	3.38329484e+02
609             	3.38325247e+02
610             	3.38321015e+02
611             	3.38318908e+02
612             	3.38309979e+02
613             	3.38305124e+02
614             	3.38301223e+02
615             	3.38303088e+02
616             	3.38307713e+02
617             	3.38313496e+02
618             	3.38318718e+02
619             	3.38323128e+02
620             	3.38326611e+02
621             	3.38329699e+02
