# Region        : cellZone component_0
# Cells         : 242
# Volume        : 4.68113279e-01
# Time          	volAverage(T)
1               	3.00201124e+02
2               	3.00400044e+02
3               	3.00588982e+02
4               	3.00771826e+02
5               	3.00951262e+02
6               	3.01128346e+02
7               	3.01303887e+02
8               	3.01478089e+02
9               	3.01651470e+02
10              	3.01824111e+02
11              	3.01995561e+02
12              	3.02165778e+02
13              	3.02334389e+02
14              	3.02501584e+02
15              	3.02667060e+02
16              	3.02831117e+02
17              	3.02993874e+02
18              	3.03154900e+02
19              	3.03315409e+02
20              	3.03475718e+02
21              	3.03633589e+02
22              	3.03787558e+02
23              	3.03939040e+02
24              	3.04087809e+02
25              	3.04234897e+02
26              	3.04379854e+02
27              	3.04522635e+02
28              	3.04665280e+02
29              	3.04806204e+02
30              	3.04946683e+02
31              	3.05087204e+02
32              	3.05225450e+02
33              	3.05359386e+02
34              	3.05487477e+02
35              	3.05611993e+02
36              	3.05736565e+02
37              	3.05857468e+02
38              	3.05974519e+02
39              	3.06087673e+02
40              	3.06199407e+02
41              	3.06311767e+02
42              	3.06423464e+02
43              	3.06533877e+02
44              	3.06639637e+02
45              	3.06741434e+02
46              	3.06840761e+02
47              	3.06937977e+02
48              	3.07032582e+02
49              	3.07124177e+02
50              	3.07211714e+02
51              	3.07295867e+02
52              	3.07376620e+02
53              	3.07455911e+02
54              	3.07537156e+02
55              	3.07619316e+02
56              	3.07701875e+02
57              	3.07781046e+02
58              	3.07855010e+02
59              	3.07927035e+02
60              	3.07997301e+02
61              	3.08067208e+02
62              	3.08134054e+02
63              	3.08196834e+02
64              	3.08255067e+02
65              	3.08310319e+02
66              	3.08365000e+02
67              	3.08422188e+02
68              	3.08482349e+02
69              	3.08543750e+02
70              	3.08604637e+02
71              	3.08665535e+02
72              	3.08725725e+02
73              	3.08784603e+02
74              	3.08842980e+02
75              	3.08898958e+02
76              	3.08951305e+02
77              	3.09001223e+02
78              	3.09050747e+02
79              	3.09103071e+02
80              	3.09159116e+02
81              	3.09215662e+02
82              	3.09269256e+02
83              	3.09321678e+02
84              	3.09373938e+02
85              	3.09423795e+02
86              	3.09471973e+02
87              	3.09517119e+02
88              	3.09558949e+02
89              	3.09598221e+02
90              	3.09637408e+02
91              	3.09678901e+02
92              	3.09723959e+02
93              	3.09771828e+02
94              	3.09818893e+02
95              	3.09865715e+02
96              	3.09910732e+02
97              	3.09954109e+02
98              	3.09996321e+02
99              	3.10035833e+02
100             	3.10071839e+02
101             	3.10105604e+02
102             	3.10139127e+02
103             	3.10174350e+02
104             	3.10211841e+02
105             	3.10251990e+02
106             	3.10293484e+02
107             	3.10334471e+02
108             	3.10374456e+02
109             	3.10413593e+02
110             	3.10451289e+02
111             	3.10487022e+02
112             	3.10520144e+02
113             	3.10551007e+02
114             	3.10580047e+02
115             	3.10607625e+02
116             	3.10637070e+02
117             	3.10669477e+02
118             	3.10703133e+02
119             	3.10737854e+02
120             	3.10771962e+02
121             	3.10805208e+02
122             	3.10836078e+02
123             	3.10864930e+02
124             	3.10892152e+02
125             	3.10917564e+02
126             	3.10940090e+02
127             	3.10960141e+02
128             	3.10978740e+02
129             	3.10998933e+02
130             	3.11022648e+02
131             	3.11048851e+02
132             	3.11075976e+02
133             	3.11103923e+02
134             	3.11130728e+02
135             	3.11156552e+02
136             	3.11181876e+02
137             	3.11205739e+02
138             	3.11226383e+02
139             	3.11243333e+02
140             	3.11258740e+02
141             	3.11275467e+02
142             	3.11294821e+02
143             	3.11318000e+02
144             	3.11344536e+02
145             	3.11371155e+02
146             	3.11398645e+02
147             	3.11425570e+02
148             	3.11450848e+02
149             	3.11474773e+02
150             	3.11497212e+02
151             	3.11518392e+02
152             	3.11538494e+02
153             	3.11557179e+02
154             	3.11574961e+02
155             	3.11592115e+02
156             	3.11609111e+02
157             	3.11626375e+02
158             	3.11643620e+02
159             	3.11663568e+02
160             	3.11684862e+02
161             	3.11708293e+02
162             	3.11731130e+02
163             	3.11753606e+02
164             	3.11775109e+02
165             	3.11795336e+02
166             	3.11813746e+02
167             	3.11830956e+02
168             	3.11847094e+02
169             	3.11863698e+02
170             	3.11880942e+02
171             	3.11898685e+02
172             	3.11916703e+02
173             	3.11934645e+02
174             	3.11952978e+02
175             	3.11971385e+02
176             	3.11989254e+02
177             	3.12006541e+02
178             	3.12023326e+02
179             	3.12039818e+02
180             	3.12055963e+02
181             	3.12071709e+02
182             	3.12087366e+02
183             	3.12102775e+02
184             	3.12118266e+02
185             	3.12134145e+02
186             	3.12150222e+02
187             	3.12166657e+02
188             	3.12183092e+02
189             	3.12199090e+02
190             	3.12214778e+02
191             	3.12230012e+02
192             	3.12244381e+02
193             	3.12257854e+02
194             	3.12271174e+02
195             	3.12283084e+02
196             	3.12295525e+02
197             	3.12308575e+02
198             	3.12322153e+02
199             	3.12336035e+02
200             	3.12350004e+02
201             	3.12363900e+02
202             	3.12377618e+02
203             	3.12390947e+02
204             	3.12403898e+02
205             	3.12416554e+02
206             	3.12428138e+02
207             	3.12439553e+02
208             	3.12450611e+02
209             	3.12461246e+02
210             	3.12471542e+02
211             	3.12481970e+02
212             	3.12492438e+02
213             	3.12502937e+02
214             	3.12513783e+02
215             	3.12524860e+02
216             	3.12535930e+02
217             	3.12546977e+02
218             	3.12557700e+02
219             	3.12568194e+02
220             	3.12578257e+02
221             	3.12587871e+02
222             	3.12597062e+02
223             	3.12606028e+02
224             	3.12614913e+02
225             	3.12623864e+02
226             	3.12633142e+02
227             	3.12642414e+02
228             	3.12651603e+02
229             	3.12661060e+02
230             	3.12670573e+02
231             	3.12679982e+02
232             	3.12689215e+02
233             	3.12698183e+02
234             	3.12707004e+02
235             	3.12715600e+02
236             	3.12723877e+02
237             	3.12731902e+02
238             	3.12739637e+02
239             	3.12747123e+02
240             	3.12754731e+02
241             	3.12762257e+02
242             	3.12769651e+02
243             	3.12777222e+02
244             	3.12784873e+02
245             	3.12792592e+02
246             	3.12800183e+02
247             	3.12807881e+02
248             	3.12815403e+02
249             	3.12822663e+02
250             	3.12829717e+02
251             	3.12836479e+02
252             	3.12843133e+02
253             	3.12849719e+02
254             	3.12856178e+02
255             	3.12862658e+02
256             	3.12869216e+02
257             	3.12875827e+02
258             	3.12882416e+02
259             	3.12888978e+02
260             	3.12895482e+02
261             	3.12901906e+02
262             	3.12908229e+02
263             	3.12914311e+02
264             	3.12920233e+02
265             	3.12925990e+02
266             	3.12931591e+02
267             	3.12937074e+02
268             	3.12942492e+02
269             	3.12947815e+02
270             	3.12953133e+02
271             	3.12958509e+02
272             	3.12963913e+02
273             	3.12969290e+02
274             	3.12974730e+02
275             	3.12980210e+02
276             	3.12985706e+02
277             	3.12991016e+02
278             	3.12996263e+02
279             	3.13001438e+02
280             	3.13006451e+02
281             	3.13011294e+02
282             	3.13016094e+02
283             	3.13020750e+02
284             	3.13025366e+02
285             	3.13029983e+02
286             	3.13034603e+02
287             	3.13039191e+02
288             	3.13043674e+02
289             	3.13048108e+02
290             	3.13052491e+02
291             	3.13056799e+02
292             	3.13061024e+02
293             	3.13065224e+02
294             	3.13069394e+02
295             	3.13073570e+02
296             	3.13077669e+02
297             	3.13081716e+02
298             	3.13085723e+02
299             	3.13089645e+02
300             	3.13093483e+02
301             	3.13097201e+02
302             	3.13100920e+02
303             	3.13104542e+02
304             	3.13108118e+02
305             	3.13111688e+02
306             	3.13115241e+02
307             	3.13118780e+02
308             	3.13122362e+02
309             	3.13125992e+02
310             	3.13129630e+02
311             	3.13133158e+02
312             	3.13136707e+02
313             	3.13140175e+02
314             	3.13143509e+02
315             	3.13146722e+02
316             	3.13149845e+02
317             	3.13152882e+02
318             	3.13155847e+02
319             	3.13158782e+02
320             	3.13161711e+02
321             	3.13164647e+02
322             	3.13167600e+02
323             	3.13170574e+02
324             	3.13173567e+02
325             	3.13176559e+02
326             	3.13179530e+02
327             	3.13182434e+02
328             	3.13185283e+02
329             	3.13188080e+02
330             	3.13190812e+02
331             	3.13193465e+02
332             	3.13196062e+02
333             	3.13198641e+02
334             	3.13201209e+02
335             	3.13203728e+02
336             	3.13206260e+02
337             	3.13208797e+02
338             	3.13211338e+02
339             	3.13213855e+02
340             	3.13216379e+02
341             	3.13218900e+02
342             	3.13221386e+02
343             	3.13223798e+02
344             	3.13226161e+02
345             	3.13228459e+02
346             	3.13230699e+02
347             	3.13232884e+02
348             	3.13235028e+02
349             	3.13237129e+02
350             	3.13239220e+02
351             	3.13241304e+02
352             	3.13243395e+02
353             	3.13245469e+02
354             	3.13247562e+02
355             	3.13249653e+02
356             	3.13251737e+02
357             	3.13253801e+02
358             	3.13255848e+02
359             	3.13257864e+02
360             	3.13259848e+02
361             	3.13261812e+02
362             	3.13263717e+02
363             	3.13265607e+02
364             	3.13267460e+02
365             	3.13269274e+02
366             	3.13271058e+02
367             	3.13272804e+02
368             	3.13274510e+02
369             	3.13276201e+02
370             	3.13277870e+02
371             	3.13279529e+02
372             	3.13281186e+02
373             	3.13282841e+02
374             	3.13284505e+02
375             	3.13286166e+02
376             	3.13287818e+02
377             	3.13289445e+02
378             	3.13291054e+02
379             	3.13292618e+02
380             	3.13294130e+02
381             	3.13295590e+02
382             	3.13297012e+02
383             	3.13298409e+02
384             	3.13299803e+02
385             	3.13301199e+02
386             	3.13302583e+02
387             	3.13303984e+02
388             	3.13305409e+02
389             	3.13306849e+02
390             	3.13308270e+02
391             	3.13309664e+02
392             	3.13311031e+02
393             	3.13312373e+02
394             	3.13313665e+02
395             	3.13314915e+02
396             	3.13316136e+02
397             	3.13317348e+02
398             	3.13318559e+02
399             	3.13319753e+02
400             	3.13320953e+02
401             	3.13322167e+02
402             	3.13323379e+02
403             	3.13324580e+02
404             	3.13325767e+02
405             	3.13326934e+02
406             	3.13328070e+02
407             	3.13329179e+02
408             	3.13330265e+02
409             	3.13331332e+02
410             	3.13332387e+02
411             	3.13333438e+02
412             	3.13334480e+02
413             	3.13335523e+02
414             	3.13336563e+02
415             	3.13337608e+02
416             	3.13338647e+02
417             	3.13339671e+02
418             	3.13340675e+02
419             	3.13341670e+02
420             	3.13342642e+02
421             	3.13343585e+02
422             	3.13344508e+02
423             	3.13345426e+02
424             	3.13346320e+02
425             	3.13347207e+02
426             	3.13348094e+02
427             	3.13348982e+02
428             	3.13349871e+02
429             	3.13350751e+02
430             	3.13351623e+02
431             	3.13352488e+02
432             	3.13353337e+02
433             	3.13354171e+02
434             	3.13354986e+02
435             	3.13355785e+02
436             	3.13356567e+02
437             	3.13357348e+02
438             	3.13358124e+02
439             	3.13358898e+02
440             	3.13359666e+02
441             	3.13360438e+02
442             	3.13361200e+02
443             	3.13361959e+02
444             	3.13362702e+02
445             	3.13363431e+02
446             	3.13364152e+02
447             	3.13364856e+02
448             	3.13365549e+02
449             	3.13366233e+02
450             	3.13366912e+02
451             	3.13367586e+02
452             	3.13368257e+02
453             	3.13368924e+02
454             	3.13369583e+02
455             	3.13370238e+02
456             	3.13370885e+02
457             	3.13371525e+02
458             	3.13372153e+02
459             	3.13372766e+02
460             	3.13373367e+02
461             	3.13373958e+02
462             	3.13374540e+02
463             	3.13375119e+02
464             	3.13375693e+02
465             	3.13376262e+02
466             	3.13376830e+02
467             	3.13377396e+02
468             	3.13377959e+02
469             	3.13378515e+02
470             	3.13379066e+02
471             	3.13379611e+02
472             	3.13380144e+02
473             	3.13380668e+02
474             	3.13381185e+02
475             	3.13381693e+02
476             	3.13382193e+02
477             	3.13382688e+02
478             	3.13383179e+02
479             	3.13383667e+02
480             	3.13384152e+02
481             	3.13384632e+02
482             	3.13385107e+02
483             	3.13385576e+02
484             	3.13386041e+02
485             	3.13386498e+02
486             	3.13386949e+02
487             	3.13387393e+02
488             	3.13387832e+02
489             	3.13388267e+02
490             	3.13388696e+02
491             	3.13389122e+02
492             	3.13389543e+02
493             	3.13389960e+02
494             	3.13390372e+02
495             	3.13390780e+02
496             	3.13391184e+02
497             	3.13391583e+02
498             	3.13391979e+02
499             	3.13392370e+02
500             	3.13392757e+02
501             	3.13393139e+02
502             	3.13393518e+02
503             	3.13393892e+02
504             	3.13394261e+02
505             	3.13394625e+02
506             	3.13394984e+02
507             	3.13395339e+02
508             	3.13395689e+02
509             	3.13396035e+02
510             	3.13396376e+02
511             	3.13396714e+02
512             	3.13397048e+02
513             	3.13397379e+02
514             	3.13397708e+02
515             	3.13398034e+02
516             	3.13398357e+02
517             	3.13398676e+02
518             	3.13398992e+02
519             	3.13399303e+02
520             	3.13399611e+02
521             	3.13399914e+02
522             	3.13400213e+02
523             	3.13400509e+02
524             	3.13400800e+02
525             	3.13401089e+02
526             	3.13401375e+02
527             	3.13401657e+02
528             	3.13401937e+02
529             	3.13402214e+02
530             	3.13402487e+02
531             	3.13402758e+02
532             	3.13403026e+02
533             	3.13403290e+02
534             	3.13403551e+02
535             	3.13403809e+02
536             	3.13404064e+02
537             	3.13404315e+02
538             	3.13404564e+02
539             	3.13404811e+02
540             	3.13405054e+02
541             	3.13405295e+02
542             	3.13405533e+02
543             	3.13405769e+02
544             	3.13406003e+02
545             	3.13406234e+02
546             	3.13406462e+02
547             	3.13406688e+02
548             	3.13406911e+02
549             	3.13407132e+02
550             	3.13407350e+02
551             	3.13407565e+02
552             	3.13407778e+02
553             	3.13407988e+02
554             	3.13408196e+02
555             	3.13408401e+02
556             	3.13408604e+02
557             	3.13408804e+02
558             	3.13409003e+02
559             	3.13409198e+02
560             	3.13409392e+02
561             	3.13409584e+02
562             	3.13409773e+02
563             	3.13409961e+02
564             	3.13410146e+02
565             	3.13410330e+02
566             	3.13410511e+02
567             	3.13410690e+02
568             	3.13410867e+02
569             	3.13411041e+02
570             	3.13411214e+02
571             	3.13411385e+02
572             	3.13411554e+02
573             	3.13411721e+02
574             	3.13411886e+02
575             	3.13412050e+02
576             	3.13412212e+02
577             	3.13412372e+02
578             	3.13412531e+02
579             	3.13412688e+02
580             	3.13412843e+02
581             	3.13412995e+02
582             	3.13413146e+02
583             	3.13413295e+02
584             	3.13413442e+02
585             	3.13413587e+02
586             	3.13413730e+02
587             	3.13413872e+02
588             	3.13414012e+02
589             	3.13414151e+02
590             	3.13414289e+02
591             	3.13414425e+02
592             	3.13414560e+02
593             	3.13414693e+02
594             	3.13414826e+02
595             	3.13414956e+02
596             	3.13415085e+02
597             	3.13415213e+02
598             	3.13415338e+02
599             	3.13415463e+02
600             	3.13415585e+02
601             	3.13415706e+02
602             	3.13415826e+02
603             	3.13415945e+02
604             	3.13416062e+02
605             	3.13416178e+02
606             	3.13416292e+02
607             	3.13416406e+02
608             	3.13416518e+02
609             	3.13416628e+02
610             	3.13416738e+02
611             	3.13416846e+02
612             	3.13416952e+02
613             	3.13417058e+02
614             	3.13417162e+02
615             	3.13417265e+02
616             	3.13417367e+02
617             	3.13417468e+02
618             	3.13417568e+02
619             	3.13417667e+02
620             	3.13417764e+02
621             	3.13417861e+02
