# Region        : cellZone component_3
# Cells         : 155
# Volume        : 3.03031980e-01
# Time          	volAverage(T)
1               	3.00357581e+02
2               	3.00709327e+02
3               	3.01030242e+02
4               	3.01330271e+02
5               	3.01621709e+02
6               	3.01904191e+02
7               	3.02180789e+02
8               	3.02449974e+02
9               	3.02715176e+02
10              	3.02977692e+02
11              	3.03235400e+02
12              	3.03487837e+02
13              	3.03733187e+02
14              	3.03972609e+02
15              	3.04207835e+02
16              	3.04442222e+02
17              	3.04670962e+02
18              	3.04892389e+02
19              	3.05112489e+02
20              	3.05333340e+02
21              	3.05553345e+02
22              	3.05768105e+02
23              	3.05974332e+02
24              	3.06179649e+02
25              	3.06380389e+02
26              	3.06580474e+02
27              	3.06778536e+02
28              	3.06972471e+02
29              	3.07161577e+02
30              	3.07345324e+02
31              	3.07522264e+02
32              	3.07690815e+02
33              	3.07851548e+02
34              	3.08005731e+02
35              	3.08153491e+02
36              	3.08291847e+02
37              	3.08424171e+02
38              	3.08554087e+02
39              	3.08683326e+02
40              	3.08808791e+02
41              	3.08936847e+02
42              	3.09061694e+02
43              	3.09184433e+02
44              	3.09302309e+02
45              	3.09415446e+02
46              	3.09522643e+02
47              	3.09624506e+02
48              	3.09721456e+02
49              	3.09813322e+02
50              	3.09899354e+02
51              	3.09982587e+02
52              	3.10061822e+02
53              	3.10134104e+02
54              	3.10205981e+02
55              	3.10270189e+02
56              	3.10334906e+02
57              	3.10398021e+02
58              	3.10466801e+02
59              	3.10537504e+02
60              	3.10612113e+02
61              	3.10685378e+02
62              	3.10753618e+02
63              	3.10816867e+02
64              	3.10876675e+02
65              	3.10927026e+02
66              	3.10972340e+02
67              	3.11013254e+02
68              	3.11051544e+02
69              	3.11087823e+02
70              	3.11125856e+02
71              	3.11165163e+02
72              	3.11207323e+02
73              	3.11251136e+02
74              	3.11299364e+02
75              	3.11349489e+02
76              	3.11400798e+02
77              	3.11451446e+02
78              	3.11499644e+02
79              	3.11548548e+02
80              	3.11596025e+02
81              	3.11643738e+02
82              	3.11692024e+02
83              	3.11738908e+02
84              	3.11786046e+02
85              	3.11832232e+02
86              	3.11876524e+02
87              	3.11918527e+02
88              	3.11958983e+02
89              	3.11997237e+02
90              	3.12033656e+02
91              	3.12069118e+02
92              	3.12104539e+02
93              	3.12140540e+02
94              	3.12177077e+02
95              	3.12214587e+02
96              	3.12253226e+02
97              	3.12290943e+02
98              	3.12325484e+02
99              	3.12358053e+02
100             	3.12387346e+02
101             	3.12413618e+02
102             	3.12437461e+02
103             	3.12459231e+02
104             	3.12479034e+02
105             	3.12498088e+02
106             	3.12517838e+02
107             	3.12537828e+02
108             	3.12558860e+02
109             	3.12579906e+02
110             	3.12600761e+02
111             	3.12621367e+02
112             	3.12641352e+02
113             	3.12660734e+02
114             	3.12679055e+02
115             	3.12697564e+02
116             	3.12716037e+02
117             	3.12734659e+02
118             	3.12753554e+02
119             	3.12772682e+02
120             	3.12792058e+02
121             	3.12811479e+02
122             	3.12831077e+02
123             	3.12850751e+02
124             	3.12870329e+02
125             	3.12889589e+02
126             	3.12908248e+02
127             	3.12926149e+02
128             	3.12943167e+02
129             	3.12959194e+02
130             	3.12973984e+02
131             	3.12988239e+02
132             	3.13002534e+02
133             	3.13016022e+02
134             	3.13029384e+02
135             	3.13042543e+02
136             	3.13055258e+02
137             	3.13067887e+02
138             	3.13080163e+02
139             	3.13091939e+02
140             	3.13103847e+02
141             	3.13115779e+02
142             	3.13128015e+02
143             	3.13140559e+02
144             	3.13153715e+02
145             	3.13167458e+02
146             	3.13181627e+02
147             	3.13195898e+02
148             	3.13209861e+02
149             	3.13222876e+02
150             	3.13234736e+02
151             	3.13245568e+02
152             	3.13255557e+02
153             	3.13264852e+02
154             	3.13273433e+02
155             	3.13281556e+02
156             	3.13289078e+02
157             	3.13296633e+02
158             	3.13304294e+02
159             	3.13311794e+02
160             	3.13319354e+02
161             	3.13327009e+02
162             	3.13334599e+02
163             	3.13342461e+02
164             	3.13350417e+02
165             	3.13358416e+02
166             	3.13366366e+02
167             	3.13373934e+02
168             	3.13381437e+02
169             	3.13388782e+02
170             	3.13395894e+02
171             	3.13402696e+02
172             	3.13409205e+02
173             	3.13415572e+02
174             	3.13421922e+02
175             	3.13428380e+02
176             	3.13434922e+02
177             	3.13441458e+02
178             	3.13447865e+02
179             	3.13454189e+02
180             	3.13460536e+02
181             	3.13466458e+02
182             	3.13472011e+02
183             	3.13477126e+02
184             	3.13482018e+02
185             	3.13486356e+02
186             	3.13490569e+02
187             	3.13494311e+02
188             	3.13497858e+02
189             	3.13501389e+02
190             	3.13504872e+02
191             	3.13508319e+02
192             	3.13511686e+02
193             	3.13514928e+02
194             	3.13518226e+02
195             	3.13521576e+02
196             	3.13525011e+02
197             	3.13528470e+02
198             	3.13532003e+02
199             	3.13535647e+02
200             	3.13539211e+02
201             	3.13542632e+02
202             	3.13545850e+02
203             	3.13548861e+02
204             	3.13551748e+02
205             	3.13554430e+02
206             	3.13556931e+02
207             	3.13559312e+02
208             	3.13561458e+02
209             	3.13563453e+02
210             	3.13565253e+02
211             	3.13566890e+02
212             	3.13568423e+02
213             	3.13569813e+02
214             	3.13571099e+02
215             	3.13572358e+02
216             	3.13573870e+02
217             	3.13575588e+02
218             	3.13577523e+02
219             	3.13579623e+02
220             	3.13581884e+02
221             	3.13584232e+02
222             	3.13586573e+02
223             	3.13588808e+02
224             	3.13590926e+02
225             	3.13592843e+02
226             	3.13594549e+02
227             	3.13596084e+02
228             	3.13597462e+02
229             	3.13598673e+02
230             	3.13599755e+02
231             	3.13600766e+02
232             	3.13601768e+02
233             	3.13602779e+02
234             	3.13603847e+02
235             	3.13605030e+02
236             	3.13606291e+02
237             	3.13607751e+02
238             	3.13609300e+02
239             	3.13610867e+02
240             	3.13612488e+02
241             	3.13614111e+02
242             	3.13615694e+02
243             	3.13617269e+02
244             	3.13618809e+02
245             	3.13620286e+02
246             	3.13621688e+02
247             	3.13622928e+02
248             	3.13624025e+02
249             	3.13625003e+02
250             	3.13625879e+02
251             	3.13626662e+02
252             	3.13627367e+02
253             	3.13628047e+02
254             	3.13628742e+02
255             	3.13629483e+02
256             	3.13630296e+02
257             	3.13631185e+02
258             	3.13632153e+02
259             	3.13633146e+02
260             	3.13634176e+02
261             	3.13635203e+02
262             	3.13636207e+02
263             	3.13637193e+02
264             	3.13638118e+02
265             	3.13638978e+02
266             	3.13639771e+02
267             	3.13640497e+02
268             	3.13641210e+02
269             	3.13641925e+02
270             	3.13642654e+02
271             	3.13643393e+02
272             	3.13644090e+02
273             	3.13644740e+02
274             	3.13645345e+02
275             	3.13645912e+02
276             	3.13646463e+02
277             	3.13647021e+02
278             	3.13647598e+02
279             	3.13648190e+02
280             	3.13648813e+02
281             	3.13649479e+02
282             	3.13650182e+02
283             	3.13650899e+02
284             	3.13651603e+02
285             	3.13652314e+02
286             	3.13653012e+02
287             	3.13653670e+02
288             	3.13654284e+02
289             	3.13654846e+02
290             	3.13655357e+02
291             	3.13655841e+02
292             	3.13656284e+02
293             	3.13656693e+02
294             	3.13657083e+02
295             	3.13657444e+02
296             	3.13657786e+02
297             	3.13658142e+02
298             	3.13658511e+02
299             	3.13658907e+02
300             	3.13659280e+02
301             	3.13659640e+02
302             	3.13659989e+02
303             	3.13660331e+02
304             	3.13660678e+02
305             	3.13661032e+02
306             	3.13661395e+02
307             	3.13661757e+02
308             	3.13662123e+02
309             	3.13662505e+02
310             	3.13662901e+02
311             	3.13663294e+02
312             	3.13663677e+02
313             	3.13664043e+02
314             	3.13664394e+02
315             	3.13664733e+02
316             	3.13665041e+02
317             	3.13665321e+02
318             	3.13665572e+02
319             	3.13665801e+02
320             	3.13665986e+02
321             	3.13666172e+02
322             	3.13666366e+02
323             	3.13666572e+02
324             	3.13666773e+02
325             	3.13666970e+02
326             	3.13667190e+02
327             	3.13667416e+02
328             	3.13667635e+02
329             	3.13667857e+02
330             	3.13668065e+02
331             	3.13668266e+02
332             	3.13668478e+02
333             	3.13668697e+02
334             	3.13668926e+02
335             	3.13669154e+02
336             	3.13669370e+02
337             	3.13669576e+02
338             	3.13669740e+02
339             	3.13669874e+02
340             	3.13669978e+02
341             	3.13670064e+02
342             	3.13670147e+02
343             	3.13670228e+02
344             	3.13670323e+02
345             	3.13670439e+02
346             	3.13670578e+02
347             	3.13670730e+02
348             	3.13670890e+02
349             	3.13671055e+02
350             	3.13671216e+02
351             	3.13671369e+02
352             	3.13671508e+02
353             	3.13671625e+02
354             	3.13671715e+02
355             	3.13671778e+02
356             	3.13671818e+02
357             	3.13671851e+02
358             	3.13671886e+02
359             	3.13671925e+02
360             	3.13671950e+02
361             	3.13671988e+02
362             	3.13672040e+02
363             	3.13672108e+02
364             	3.13672194e+02
365             	3.13672288e+02
366             	3.13672384e+02
367             	3.13672482e+02
368             	3.13672581e+02
369             	3.13672679e+02
370             	3.13672783e+02
371             	3.13672887e+02
372             	3.13672988e+02
373             	3.13673083e+02
374             	3.13673175e+02
375             	3.13673259e+02
376             	3.13673330e+02
377             	3.13673384e+02
378             	3.13673416e+02
379             	3.13673424e+02
380             	3.13673409e+02
381             	3.13673380e+02
382             	3.13673341e+02
383             	3.13673303e+02
384             	3.13673276e+02
385             	3.13673268e+02
386             	3.13673283e+02
387             	3.13673327e+02
388             	3.13673379e+02
389             	3.13673449e+02
390             	3.13673533e+02
391             	3.13673625e+02
392             	3.13673720e+02
393             	3.13673809e+02
394             	3.13673898e+02
395             	3.13674003e+02
396             	3.13674107e+02
397             	3.13674210e+02
398             	3.13674317e+02
399             	3.13674425e+02
400             	3.13674530e+02
401             	3.13674629e+02
402             	3.13674705e+02
403             	3.13674762e+02
404             	3.13674796e+02
405             	3.13674803e+02
406             	3.13674788e+02
407             	3.13674754e+02
408             	3.13674704e+02
409             	3.13674646e+02
410             	3.13674593e+02
411             	3.13674564e+02
412             	3.13674554e+02
413             	3.13674566e+02
414             	3.13674599e+02
415             	3.13674643e+02
416             	3.13674697e+02
417             	3.13674759e+02
418             	3.13674818e+02
419             	3.13674857e+02
420             	3.13674876e+02
421             	3.13674876e+02
422             	3.13674856e+02
423             	3.13674823e+02
424             	3.13674783e+02
425             	3.13674748e+02
426             	3.13674728e+02
427             	3.13674724e+02
428             	3.13674737e+02
429             	3.13674768e+02
430             	3.13674814e+02
431             	3.13674870e+02
432             	3.13674932e+02
433             	3.13674994e+02
434             	3.13675044e+02
435             	3.13675080e+02
436             	3.13675102e+02
437             	3.13675115e+02
438             	3.13675120e+02
439             	3.13675124e+02
440             	3.13675129e+02
441             	3.13675136e+02
442             	3.13675148e+02
443             	3.13675165e+02
444             	3.13675193e+02
445             	3.13675225e+02
446             	3.13675260e+02
447             	3.13675294e+02
448             	3.13675326e+02
449             	3.13675352e+02
450             	3.13675373e+02
451             	3.13675389e+02
452             	3.13675399e+02
453             	3.13675401e+02
454             	3.13675397e+02
455             	3.13675388e+02
456             	3.13675377e+02
457             	3.13675368e+02
458             	3.13675364e+02
459             	3.13675370e+02
460             	3.13675379e+02
461             	3.13675397e+02
462             	3.13675421e+02
463             	3.13675450e+02
464             	3.13675481e+02
465             	3.13675513e+02
466             	3.13675544e+02
467             	3.13675574e+02
468             	3.13675602e+02
469             	3.13675626e+02
470             	3.13675646e+02
471             	3.13675661e+02
472             	3.13675671e+02
473             	3.13675675e+02
474             	3.13675674e+02
475             	3.13675676e+02
476             	3.13675675e+02
477             	3.13675672e+02
478             	3.13675669e+02
479             	3.13675666e+02
480             	3.13675666e+02
481             	3.13675669e+02
482             	3.13675667e+02
483             	3.13675667e+02
484             	3.13675670e+02
485             	3.13675674e+02
486             	3.13675682e+02
487             	3.13675691e+02
488             	3.13675704e+02
489             	3.13675718e+02
490             	3.13675735e+02
491             	3.13675755e+02
492             	3.13675778e+02
493             	3.13675801e+02
494             	3.13675828e+02
495             	3.13675854e+02
496             	3.13675877e+02
497             	3.13675894e+02
498             	3.13675910e+02
499             	3.13675924e+02
500             	3.13675940e+02
501             	3.13675957e+02
502             	3.13675971e+02
503             	3.13675982e+02
504             	3.13675989e+02
505             	3.13675990e+02
506             	3.13675983e+02
507             	3.13675968e+02
508             	3.13675949e+02
509             	3.13675931e+02
510             	3.13675915e+02
511             	3.13675902e+02
512             	3.13675893e+02
513             	3.13675889e+02
514             	3.13675894e+02
515             	3.13675904e+02
516             	3.13675919e+02
517             	3.13675937e+02
518             	3.13675955e+02
519             	3.13675975e+02
520             	3.13675990e+02
521             	3.13676003e+02
522             	3.13676011e+02
523             	3.13676017e+02
524             	3.13676019e+02
525             	3.13676019e+02
526             	3.13676017e+02
527             	3.13676014e+02
528             	3.13676010e+02
529             	3.13676008e+02
530             	3.13676009e+02
531             	3.13676013e+02
532             	3.13676019e+02
533             	3.13676026e+02
534             	3.13676039e+02
535             	3.13676056e+02
536             	3.13676074e+02
537             	3.13676093e+02
538             	3.13676112e+02
539             	3.13676130e+02
540             	3.13676144e+02
541             	3.13676154e+02
542             	3.13676157e+02
543             	3.13676154e+02
544             	3.13676147e+02
545             	3.13676134e+02
546             	3.13676120e+02
547             	3.13676103e+02
548             	3.13676085e+02
549             	3.13676067e+02
550             	3.13676055e+02
551             	3.13676048e+02
552             	3.13676044e+02
553             	3.13676042e+02
554             	3.13676043e+02
555             	3.13676046e+02
556             	3.13676050e+02
557             	3.13676055e+02
558             	3.13676061e+02
559             	3.13676069e+02
560             	3.13676078e+02
561             	3.13676089e+02
562             	3.13676098e+02
563             	3.13676105e+02
564             	3.13676110e+02
565             	3.13676113e+02
566             	3.13676115e+02
567             	3.13676117e+02
568             	3.13676119e+02
569             	3.13676120e+02
570             	3.13676122e+02
571             	3.13676123e+02
572             	3.13676125e+02
573             	3.13676127e+02
574             	3.13676129e+02
575             	3.13676131e+02
576             	3.13676133e+02
577             	3.13676134e+02
578             	3.13676133e+02
579             	3.13676135e+02
580             	3.13676138e+02
581             	3.13676141e+02
582             	3.13676142e+02
583             	3.13676143e+02
584             	3.13676145e+02
585             	3.13676147e+02
586             	3.13676144e+02
587             	3.13676140e+02
588             	3.13676135e+02
589             	3.13676129e+02
590             	3.13676120e+02
591             	3.13676110e+02
592             	3.13676098e+02
593             	3.13676084e+02
594             	3.13676072e+02
595             	3.13676060e+02
596             	3.13676051e+02
597             	3.13676048e+02
598             	3.13676048e+02
599             	3.13676052e+02
600             	3.13676058e+02
601             	3.13676065e+02
602             	3.13676074e+02
603             	3.13676082e+02
604             	3.13676089e+02
605             	3.13676095e+02
606             	3.13676101e+02
607             	3.13676098e+02
608             	3.13676091e+02
609             	3.13676080e+02
610             	3.13676068e+02
611             	3.13676052e+02
612             	3.13676035e+02
613             	3.13676023e+02
614             	3.13676013e+02
615             	3.13676007e+02
616             	3.13676004e+02
617             	3.13676008e+02
618             	3.13676018e+02
619             	3.13676032e+02
620             	3.13676050e+02
621             	3.13676068e+02
