# Region        : cellZone component_1
# Cells         : 64
# Volume        : 1.29450340e-01
# Time          	volAverage(T)
1               	3.01050277e+02
2               	3.02086371e+02
3               	3.03009849e+02
4               	3.03861531e+02
5               	3.04678330e+02
6               	3.05472177e+02
7               	3.06242383e+02
8               	3.06993026e+02
9               	3.07732187e+02
10              	3.08450131e+02
11              	3.09133980e+02
12              	3.09783669e+02
13              	3.10404239e+02
14              	3.11014412e+02
15              	3.11630300e+02
16              	3.12234780e+02
17              	3.12835776e+02
18              	3.13414227e+02
19              	3.13972919e+02
20              	3.14502193e+02
21              	3.15011482e+02
22              	3.15500895e+02
23              	3.15971200e+02
24              	3.16433284e+02
25              	3.16881642e+02
26              	3.17297096e+02
27              	3.17694612e+02
28              	3.18085521e+02
29              	3.18464793e+02
30              	3.18852814e+02
31              	3.19204598e+02
32              	3.19522066e+02
33              	3.19791800e+02
34              	3.20106097e+02
35              	3.20432574e+02
36              	3.20751223e+02
37              	3.21062016e+02
38              	3.21364106e+02
39              	3.21659700e+02
40              	3.21938997e+02
41              	3.22212375e+02
42              	3.22492623e+02
43              	3.22780567e+02
44              	3.23050362e+02
45              	3.23303967e+02
46              	3.23548168e+02
47              	3.23777807e+02
48              	3.23992631e+02
49              	3.24189449e+02
50              	3.24381352e+02
51              	3.24578009e+02
52              	3.24785765e+02
53              	3.24994179e+02
54              	3.25206922e+02
55              	3.25425580e+02
56              	3.25651819e+02
57              	3.25883361e+02
58              	3.26122024e+02
59              	3.26355429e+02
60              	3.26552563e+02
61              	3.26743484e+02
62              	3.26938724e+02
63              	3.27128110e+02
64              	3.27302218e+02
65              	3.27455967e+02
66              	3.27592264e+02
67              	3.27722642e+02
68              	3.27852016e+02
69              	3.27968828e+02
70              	3.28085732e+02
71              	3.28206287e+02
72              	3.28336654e+02
73              	3.28482436e+02
74              	3.28647553e+02
75              	3.28827818e+02
76              	3.29022948e+02
77              	3.29218238e+02
78              	3.29390378e+02
79              	3.29529504e+02
80              	3.29651367e+02
81              	3.29770322e+02
82              	3.29877526e+02
83              	3.29988918e+02
84              	3.30095967e+02
85              	3.30210644e+02
86              	3.30317915e+02
87              	3.30402960e+02
88              	3.30464177e+02
89              	3.30512730e+02
90              	3.30573152e+02
91              	3.30635371e+02
92              	3.30713378e+02
93              	3.30797509e+02
94              	3.30878783e+02
95              	3.30975006e+02
96              	3.31086602e+02
97              	3.31222661e+02
98              	3.31347874e+02
99              	3.31468440e+02
100             	3.31572910e+02
101             	3.31665182e+02
102             	3.31744281e+02
103             	3.31820705e+02
104             	3.31892833e+02
105             	3.31960121e+02
106             	3.32021811e+02
107             	3.32090198e+02
108             	3.32160883e+02
109             	3.32235503e+02
110             	3.32316203e+02
111             	3.32405111e+02
112             	3.32512275e+02
113             	3.32642438e+02
114             	3.32793116e+02
115             	3.32932842e+02
116             	3.33095391e+02
117             	3.33229833e+02
118             	3.33365648e+02
119             	3.33486720e+02
120             	3.33561601e+02
121             	3.33621473e+02
122             	3.33653093e+02
123             	3.33667955e+02
124             	3.33682774e+02
125             	3.33701676e+02
126             	3.33721085e+02
127             	3.33743572e+02
128             	3.33766885e+02
129             	3.33792893e+02
130             	3.33824657e+02
131             	3.33862141e+02
132             	3.33910867e+02
133             	3.33965435e+02
134             	3.34026857e+02
135             	3.34060199e+02
136             	3.34097453e+02
137             	3.34143966e+02
138             	3.34187474e+02
139             	3.34245492e+02
140             	3.34304842e+02
141             	3.34356736e+02
142             	3.34408250e+02
143             	3.34464214e+02
144             	3.34526074e+02
145             	3.34589290e+02
146             	3.34651968e+02
147             	3.34714619e+02
148             	3.34773936e+02
149             	3.34833813e+02
150             	3.34889446e+02
151             	3.34941928e+02
152             	3.34962729e+02
153             	3.34992424e+02
154             	3.35029608e+02
155             	3.35069158e+02
156             	3.35083633e+02
157             	3.35107489e+02
158             	3.35132189e+02
159             	3.35155455e+02
160             	3.35177087e+02
161             	3.35199502e+02
162             	3.35225431e+02
163             	3.35251340e+02
164             	3.35284571e+02
165             	3.35323789e+02
166             	3.35370454e+02
167             	3.35421458e+02
168             	3.35482754e+02
169             	3.35513036e+02
170             	3.35552194e+02
171             	3.35596943e+02
172             	3.35641840e+02
173             	3.35683920e+02
174             	3.35723831e+02
175             	3.35763548e+02
176             	3.35793139e+02
177             	3.35832882e+02
178             	3.35883309e+02
179             	3.35941402e+02
180             	3.36001844e+02
181             	3.36054033e+02
182             	3.36104932e+02
183             	3.36155303e+02
184             	3.36200648e+02
185             	3.36248007e+02
186             	3.36284072e+02
187             	3.36327513e+02
188             	3.36373919e+02
189             	3.36429657e+02
190             	3.36494287e+02
191             	3.36559488e+02
192             	3.36621593e+02
193             	3.36680250e+02
194             	3.36732544e+02
195             	3.36776478e+02
196             	3.36814429e+02
197             	3.36831512e+02
198             	3.36854022e+02
199             	3.36871281e+02
200             	3.36890531e+02
201             	3.36917839e+02
202             	3.36952256e+02
203             	3.36989595e+02
204             	3.37039656e+02
205             	3.37095756e+02
206             	3.37156256e+02
207             	3.37225549e+02
208             	3.37297999e+02
209             	3.37365716e+02
210             	3.37426601e+02
211             	3.37482072e+02
212             	3.37531479e+02
213             	3.37568901e+02
214             	3.37592432e+02
215             	3.37606514e+02
216             	3.37617874e+02
217             	3.37626722e+02
218             	3.37619913e+02
219             	3.37621193e+02
220             	3.37629120e+02
221             	3.37644089e+02
222             	3.37664520e+02
223             	3.37683482e+02
224             	3.37691355e+02
225             	3.37680449e+02
226             	3.37681934e+02
227             	3.37693553e+02
228             	3.37710995e+02
229             	3.37732157e+02
230             	3.37758520e+02
231             	3.37761305e+02
232             	3.37777273e+02
233             	3.37800151e+02
234             	3.37827826e+02
235             	3.37846799e+02
236             	3.37858740e+02
237             	3.37868189e+02
238             	3.37877506e+02
239             	3.37869659e+02
240             	3.37861293e+02
241             	3.37852544e+02
242             	3.37848328e+02
243             	3.37844835e+02
244             	3.37847118e+02
245             	3.37863395e+02
246             	3.37889388e+02
247             	3.37921103e+02
248             	3.37960000e+02
249             	3.37997080e+02
250             	3.38033663e+02
251             	3.38067607e+02
252             	3.38095007e+02
253             	3.38115822e+02
254             	3.38124006e+02
255             	3.38124172e+02
256             	3.38119975e+02
257             	3.38114264e+02
258             	3.38109584e+02
259             	3.38100959e+02
260             	3.38100569e+02
261             	3.38114884e+02
262             	3.38138105e+02
263             	3.38167669e+02
264             	3.38195385e+02
265             	3.38217021e+02
266             	3.38236923e+02
267             	3.38254351e+02
268             	3.38267795e+02
269             	3.38276411e+02
270             	3.38288287e+02
271             	3.38282199e+02
272             	3.38268680e+02
273             	3.38260103e+02
274             	3.38254612e+02
275             	3.38248943e+02
276             	3.38239379e+02
277             	3.38237093e+02
278             	3.38242077e+02
279             	3.38254625e+02
280             	3.38274163e+02
281             	3.38299857e+02
282             	3.38329523e+02
283             	3.38360981e+02
284             	3.38389051e+02
285             	3.38428068e+02
286             	3.38455658e+02
287             	3.38478397e+02
288             	3.38499880e+02
289             	3.38520077e+02
290             	3.38538996e+02
291             	3.38557347e+02
292             	3.38575038e+02
293             	3.38593774e+02
294             	3.38607845e+02
295             	3.38621130e+02
296             	3.38636650e+02
297             	3.38651753e+02
298             	3.38663869e+02
299             	3.38671238e+02
300             	3.38676059e+02
301             	3.38676842e+02
302             	3.38674413e+02
303             	3.38670383e+02
304             	3.38666115e+02
305             	3.38660937e+02
306             	3.38661364e+02
307             	3.38665362e+02
308             	3.38671335e+02
309             	3.38680413e+02
310             	3.38691651e+02
311             	3.38703647e+02
312             	3.38709764e+02
313             	3.38723143e+02
314             	3.38740281e+02
315             	3.38757677e+02
316             	3.38776817e+02
317             	3.38771429e+02
318             	3.38773561e+02
319             	3.38779851e+02
320             	3.38789693e+02
321             	3.38794125e+02
322             	3.38795501e+02
323             	3.38785955e+02
324             	3.38772107e+02
325             	3.38768759e+02
326             	3.38772084e+02
327             	3.38777149e+02
328             	3.38779450e+02
329             	3.38787514e+02
330             	3.38780069e+02
331             	3.38784407e+02
332             	3.38792637e+02
333             	3.38803356e+02
334             	3.38818679e+02
335             	3.38832423e+02
336             	3.38836398e+02
337             	3.38842897e+02
338             	3.38853950e+02
339             	3.38871068e+02
340             	3.38890915e+02
341             	3.38912064e+02
342             	3.38930319e+02
343             	3.38936987e+02
344             	3.38921820e+02
345             	3.38920003e+02
346             	3.38930126e+02
347             	3.38946327e+02
348             	3.38968242e+02
349             	3.38970230e+02
350             	3.38983862e+02
351             	3.38991944e+02
352             	3.38998297e+02
353             	3.39003355e+02
354             	3.39009747e+02
355             	3.39019069e+02
356             	3.39028572e+02
357             	3.39033131e+02
358             	3.39040099e+02
359             	3.39052777e+02
360             	3.39071328e+02
361             	3.39095655e+02
362             	3.39126127e+02
363             	3.39154950e+02
364             	3.39173341e+02
365             	3.39186256e+02
366             	3.39196821e+02
367             	3.39201076e+02
368             	3.39200658e+02
369             	3.39193666e+02
370             	3.39172247e+02
371             	3.39158041e+02
372             	3.39151943e+02
373             	3.39149252e+02
374             	3.39146914e+02
375             	3.39140950e+02
376             	3.39132785e+02
377             	3.39123930e+02
378             	3.39115235e+02
379             	3.39102706e+02
380             	3.39089583e+02
381             	3.39077881e+02
382             	3.39068000e+02
383             	3.39059919e+02
384             	3.39050544e+02
385             	3.39046890e+02
386             	3.39046473e+02
387             	3.39046726e+02
388             	3.39047069e+02
389             	3.39046857e+02
390             	3.39046155e+02
391             	3.39048175e+02
392             	3.39052076e+02
393             	3.39058132e+02
394             	3.39062593e+02
395             	3.39066934e+02
396             	3.39071389e+02
397             	3.39076547e+02
398             	3.39079534e+02
399             	3.39076443e+02
400             	3.39071945e+02
401             	3.39064544e+02
402             	3.39054840e+02
403             	3.39042915e+02
404             	3.39016978e+02
405             	3.39001357e+02
406             	3.38993032e+02
407             	3.38989083e+02
408             	3.38988353e+02
409             	3.38991521e+02
410             	3.38998072e+02
411             	3.39003724e+02
412             	3.39013032e+02
413             	3.39027534e+02
414             	3.39039809e+02
415             	3.39045965e+02
416             	3.39052010e+02
417             	3.39059841e+02
418             	3.39069407e+02
419             	3.39080503e+02
420             	3.39092212e+02
421             	3.39104063e+02
422             	3.39114993e+02
423             	3.39127163e+02
424             	3.39139313e+02
425             	3.39150400e+02
426             	3.39160602e+02
427             	3.39169380e+02
428             	3.39175919e+02
429             	3.39181206e+02
430             	3.39185953e+02
431             	3.39190269e+02
432             	3.39194081e+02
433             	3.39197306e+02
434             	3.39200452e+02
435             	3.39202741e+02
436             	3.39203326e+02
437             	3.39201756e+02
438             	3.39197281e+02
439             	3.39191479e+02
440             	3.39186233e+02
441             	3.39180085e+02
442             	3.39173382e+02
443             	3.39167466e+02
444             	3.39161365e+02
445             	3.39153421e+02
446             	3.39148194e+02
447             	3.39144603e+02
448             	3.39146232e+02
449             	3.39155463e+02
450             	3.39169394e+02
451             	3.39187324e+02
452             	3.39208080e+02
453             	3.39230882e+02
454             	3.39232307e+02
455             	3.39240476e+02
456             	3.39247898e+02
457             	3.39252415e+02
458             	3.39252515e+02
459             	3.39247958e+02
460             	3.39239719e+02
461             	3.39228716e+02
462             	3.39200543e+02
463             	3.39184864e+02
464             	3.39180654e+02
465             	3.39180548e+02
466             	3.39183954e+02
467             	3.39186498e+02
468             	3.39185804e+02
469             	3.39182210e+02
470             	3.39176225e+02
471             	3.39168031e+02
472             	3.39154887e+02
473             	3.39135901e+02
474             	3.39117845e+02
475             	3.39102259e+02
476             	3.39092307e+02
477             	3.39074796e+02
478             	3.39048226e+02
479             	3.39033418e+02
480             	3.39029218e+02
481             	3.39029627e+02
482             	3.39034357e+02
483             	3.39043834e+02
484             	3.39057761e+02
485             	3.39075418e+02
486             	3.39095161e+02
487             	3.39115078e+02
488             	3.39116899e+02
489             	3.39129420e+02
490             	3.39148130e+02
491             	3.39163026e+02
492             	3.39173403e+02
493             	3.39179849e+02
494             	3.39180209e+02
495             	3.39176708e+02
496             	3.39167662e+02
497             	3.39149146e+02
498             	3.39131457e+02
499             	3.39108226e+02
500             	3.39085751e+02
501             	3.39067223e+02
502             	3.39051887e+02
503             	3.39041226e+02
504             	3.39036351e+02
505             	3.39037572e+02
506             	3.39043401e+02
507             	3.39050044e+02
508             	3.39059138e+02
509             	3.39070416e+02
510             	3.39080687e+02
511             	3.39087958e+02
512             	3.39091748e+02
513             	3.39092408e+02
514             	3.39090632e+02
515             	3.39087136e+02
516             	3.39082864e+02
517             	3.39078934e+02
518             	3.39068348e+02
519             	3.39068344e+02
520             	3.39076974e+02
521             	3.39082751e+02
522             	3.39096898e+02
523             	3.39116005e+02
524             	3.39136642e+02
525             	3.39135097e+02
526             	3.39139076e+02
527             	3.39144261e+02
528             	3.39149584e+02
529             	3.39153357e+02
530             	3.39154802e+02
531             	3.39150028e+02
532             	3.39138463e+02
533             	3.39131045e+02
534             	3.39116937e+02
535             	3.39108773e+02
536             	3.39112123e+02
537             	3.39121305e+02
538             	3.39132557e+02
539             	3.39141469e+02
540             	3.39121461e+02
541             	3.39107725e+02
542             	3.39096000e+02
543             	3.39082191e+02
544             	3.39065859e+02
545             	3.39046329e+02
546             	3.39028869e+02
547             	3.39010687e+02
548             	3.38997593e+02
549             	3.38994368e+02
550             	3.38998681e+02
551             	3.39000730e+02
552             	3.39000066e+02
553             	3.38997509e+02
554             	3.38993867e+02
555             	3.38989693e+02
556             	3.38985945e+02
557             	3.38982668e+02
558             	3.38979949e+02
559             	3.38977835e+02
560             	3.38976280e+02
561             	3.38975034e+02
562             	3.38973800e+02
563             	3.38972357e+02
564             	3.38970276e+02
565             	3.38967305e+02
566             	3.38963285e+02
567             	3.38956235e+02
568             	3.38948029e+02
569             	3.38939783e+02
570             	3.38937232e+02
571             	3.38940412e+02
572             	3.38948033e+02
573             	3.38958920e+02
574             	3.38971305e+02
575             	3.38986237e+02
576             	3.39004102e+02
577             	3.39014176e+02
578             	3.39033044e+02
579             	3.39058324e+02
580             	3.39082582e+02
581             	3.39101874e+02
582             	3.39114896e+02
583             	3.39122951e+02
584             	3.39123714e+02
585             	3.39119854e+02
586             	3.39113583e+02
587             	3.39105694e+02
588             	3.39094928e+02
589             	3.39088301e+02
590             	3.39085065e+02
591             	3.39090289e+02
592             	3.39106861e+02
593             	3.39107419e+02
594             	3.39109997e+02
595             	3.39117409e+02
596             	3.39124447e+02
597             	3.39129526e+02
598             	3.39130754e+02
599             	3.39113909e+02
600             	3.39107812e+02
601             	3.39110307e+02
602             	3.39119636e+02
603             	3.39139507e+02
604             	3.39133553e+02
605             	3.39140311e+02
606             	3.39141346e+02
607             	3.39140558e+02
608             	3.39138395e+02
609             	3.39116842e+02
610             	3.39095654e+02
611             	3.39082799e+02
612             	3.39076071e+02
613             	3.39072309e+02
614             	3.39071646e+02
615             	3.39075129e+02
616             	3.39080899e+02
617             	3.39062673e+02
618             	3.39050447e+02
619             	3.39044019e+02
620             	3.39016456e+02
621             	3.38999877e+02
