# Region        : cellZone component_4
# Cells         : 55
# Volume        : 8.09330430e-02
# Time          	volAverage(T)
1               	3.01928272e+02
2               	3.03790471e+02
3               	3.05226745e+02
4               	3.06394014e+02
5               	3.07526389e+02
6               	3.08670188e+02
7               	3.09778518e+02
8               	3.10805308e+02
9               	3.11789344e+02
10              	3.12760510e+02
11              	3.13608501e+02
12              	3.14350369e+02
13              	3.14992951e+02
14              	3.15619011e+02
15              	3.16150449e+02
16              	3.16591743e+02
17              	3.16982201e+02
18              	3.17413621e+02
19              	3.17909350e+02
20              	3.18436210e+02
21              	3.18927389e+02
22              	3.19360675e+02
23              	3.19690210e+02
24              	3.20049169e+02
25              	3.20345249e+02
26              	3.20668469e+02
27              	3.21011204e+02
28              	3.21405300e+02
29              	3.21697408e+02
30              	3.21833945e+02
31              	3.21749659e+02
32              	3.21572022e+02
33              	3.21666265e+02
34              	3.21808263e+02
35              	3.21906237e+02
36              	3.22009185e+02
37              	3.22093013e+02
38              	3.22143174e+02
39              	3.22186174e+02
40              	3.22220325e+02
41              	3.22311159e+02
42              	3.22385922e+02
43              	3.22507994e+02
44              	3.22672849e+02
45              	3.22914841e+02
46              	3.23094528e+02
47              	3.23142034e+02
48              	3.23068434e+02
49              	3.23105949e+02
50              	3.23297966e+02
51              	3.23516391e+02
52              	3.23672271e+02
53              	3.23764525e+02
54              	3.23816497e+02
55              	3.23833419e+02
56              	3.23949570e+02
57              	3.24154725e+02
58              	3.24287505e+02
59              	3.24350817e+02
60              	3.24339899e+02
61              	3.24383434e+02
62              	3.24575776e+02
63              	3.24780044e+02
64              	3.24978385e+02
65              	3.25104523e+02
66              	3.25177534e+02
67              	3.25245505e+02
68              	3.25320993e+02
69              	3.25422902e+02
70              	3.25512262e+02
71              	3.25589494e+02
72              	3.25645695e+02
73              	3.25678569e+02
74              	3.25684772e+02
75              	3.25758399e+02
76              	3.25891310e+02
77              	3.26058389e+02
78              	3.26151463e+02
79              	3.26030352e+02
80              	3.25857596e+02
81              	3.25726810e+02
82              	3.25742318e+02
83              	3.25850656e+02
84              	3.25945035e+02
85              	3.26021855e+02
86              	3.26079270e+02
87              	3.26114814e+02
88              	3.26193964e+02
89              	3.26312203e+02
90              	3.26415735e+02
91              	3.26572316e+02
92              	3.26750777e+02
93              	3.26863458e+02
94              	3.26972129e+02
95              	3.27049223e+02
96              	3.27139980e+02
97              	3.27298484e+02
98              	3.27442871e+02
99              	3.27525880e+02
100             	3.27577418e+02
101             	3.27590004e+02
102             	3.27570481e+02
103             	3.27563501e+02
104             	3.27521628e+02
105             	3.27481616e+02
106             	3.27427226e+02
107             	3.27414526e+02
108             	3.27411068e+02
109             	3.27461600e+02
110             	3.27545891e+02
111             	3.27636111e+02
112             	3.27758400e+02
113             	3.27776048e+02
114             	3.27762290e+02
115             	3.27765914e+02
116             	3.27774686e+02
117             	3.27790206e+02
118             	3.27805877e+02
119             	3.27805327e+02
120             	3.27777892e+02
121             	3.27754136e+02
122             	3.27772896e+02
123             	3.27814568e+02
124             	3.27877538e+02
125             	3.27942365e+02
126             	3.28009018e+02
127             	3.28113636e+02
128             	3.28216105e+02
129             	3.28328796e+02
130             	3.28380682e+02
131             	3.28442446e+02
132             	3.28490238e+02
133             	3.28507056e+02
134             	3.28509674e+02
135             	3.28499616e+02
136             	3.28501861e+02
137             	3.28497003e+02
138             	3.28468263e+02
139             	3.28425208e+02
140             	3.28369497e+02
141             	3.28320907e+02
142             	3.28321067e+02
143             	3.28345137e+02
144             	3.28394057e+02
145             	3.28463407e+02
146             	3.28525743e+02
147             	3.28584162e+02
148             	3.28631460e+02
149             	3.28665038e+02
150             	3.28687541e+02
151             	3.28704767e+02
152             	3.28720622e+02
153             	3.28739417e+02
154             	3.28760191e+02
155             	3.28788760e+02
156             	3.28827575e+02
157             	3.28870922e+02
158             	3.28919918e+02
159             	3.28930204e+02
160             	3.28958557e+02
161             	3.29003562e+02
162             	3.29055308e+02
163             	3.29104872e+02
164             	3.29148665e+02
165             	3.29183654e+02
166             	3.29211135e+02
167             	3.29235158e+02
168             	3.29252233e+02
169             	3.29260751e+02
170             	3.29263914e+02
171             	3.29262800e+02
172             	3.29254302e+02
173             	3.29246803e+02
174             	3.29242850e+02
175             	3.29240001e+02
176             	3.29244431e+02
177             	3.29245654e+02
178             	3.29241666e+02
179             	3.29244240e+02
180             	3.29218391e+02
181             	3.29220144e+02
182             	3.29241675e+02
183             	3.29280034e+02
184             	3.29302886e+02
185             	3.29341344e+02
186             	3.29387864e+02
187             	3.29428422e+02
188             	3.29462140e+02
189             	3.29493462e+02
190             	3.29517940e+02
191             	3.29540299e+02
192             	3.29563060e+02
193             	3.29587997e+02
194             	3.29587053e+02
195             	3.29596495e+02
196             	3.29616100e+02
197             	3.29625116e+02
198             	3.29630500e+02
199             	3.29637712e+02
200             	3.29654431e+02
201             	3.29665627e+02
202             	3.29681526e+02
203             	3.29699206e+02
204             	3.29716604e+02
205             	3.29729721e+02
206             	3.29741243e+02
207             	3.29747151e+02
208             	3.29748055e+02
209             	3.29748075e+02
210             	3.29718276e+02
211             	3.29696780e+02
212             	3.29683983e+02
213             	3.29674145e+02
214             	3.29668456e+02
215             	3.29667515e+02
216             	3.29667610e+02
217             	3.29668485e+02
218             	3.29672275e+02
219             	3.29679513e+02
220             	3.29688655e+02
221             	3.29690706e+02
222             	3.29690712e+02
223             	3.29696364e+02
224             	3.29706554e+02
225             	3.29717701e+02
226             	3.29726235e+02
227             	3.29734415e+02
228             	3.29712839e+02
229             	3.29710674e+02
230             	3.29730387e+02
231             	3.29723460e+02
232             	3.29731238e+02
233             	3.29729602e+02
234             	3.29746941e+02
235             	3.29777293e+02
236             	3.29816419e+02
237             	3.29837416e+02
238             	3.29857530e+02
239             	3.29874044e+02
240             	3.29892333e+02
241             	3.29908519e+02
242             	3.29922160e+02
243             	3.29932046e+02
244             	3.29936926e+02
245             	3.29944332e+02
246             	3.29917312e+02
247             	3.29907956e+02
248             	3.29880490e+02
249             	3.29873741e+02
250             	3.29884226e+02
251             	3.29900481e+02
252             	3.29914471e+02
253             	3.29920690e+02
254             	3.29923122e+02
255             	3.29928987e+02
256             	3.29935001e+02
257             	3.29931403e+02
258             	3.29915241e+02
259             	3.29907563e+02
260             	3.29911692e+02
261             	3.29922118e+02
262             	3.29895214e+02
263             	3.29880839e+02
264             	3.29882461e+02
265             	3.29889644e+02
266             	3.29893268e+02
267             	3.29894899e+02
268             	3.29899869e+02
269             	3.29907261e+02
270             	3.29916331e+02
271             	3.29897955e+02
272             	3.29896988e+02
273             	3.29913409e+02
274             	3.29895755e+02
275             	3.29889027e+02
276             	3.29900203e+02
277             	3.29886772e+02
278             	3.29884912e+02
279             	3.29898875e+02
280             	3.29909320e+02
281             	3.29911396e+02
282             	3.29908846e+02
283             	3.29914569e+02
284             	3.29924851e+02
285             	3.29930173e+02
286             	3.29905665e+02
287             	3.29898309e+02
288             	3.29878369e+02
289             	3.29876206e+02
290             	3.29886315e+02
291             	3.29902002e+02
292             	3.29890118e+02
293             	3.29892828e+02
294             	3.29909676e+02
295             	3.29929890e+02
296             	3.29950058e+02
297             	3.29932833e+02
298             	3.29931432e+02
299             	3.29943130e+02
300             	3.29952806e+02
301             	3.29962452e+02
302             	3.29974276e+02
303             	3.29959228e+02
304             	3.29956466e+02
305             	3.29965047e+02
306             	3.29979803e+02
307             	3.29952535e+02
308             	3.29940462e+02
309             	3.29947329e+02
310             	3.29968039e+02
311             	3.29952227e+02
312             	3.29949265e+02
313             	3.29963897e+02
314             	3.29981921e+02
315             	3.29969850e+02
316             	3.29970909e+02
317             	3.29986509e+02
318             	3.30007541e+02
319             	3.30026821e+02
320             	3.30029675e+02
321             	3.30029784e+02
322             	3.30044259e+02
323             	3.30028564e+02
324             	3.30026266e+02
325             	3.30040666e+02
326             	3.30025548e+02
327             	3.30021719e+02
328             	3.30032714e+02
329             	3.30019114e+02
330             	3.30018873e+02
331             	3.30033493e+02
332             	3.30021248e+02
333             	3.30021346e+02
334             	3.30037066e+02
335             	3.30025545e+02
336             	3.30024748e+02
337             	3.30035793e+02
338             	3.30053171e+02
339             	3.30055219e+02
340             	3.30062253e+02
341             	3.30040062e+02
342             	3.30033908e+02
343             	3.30044248e+02
344             	3.30029258e+02
345             	3.30025544e+02
346             	3.30035472e+02
347             	3.30020924e+02
348             	3.30018988e+02
349             	3.30034065e+02
350             	3.30017657e+02
351             	3.30013438e+02
352             	3.30025911e+02
353             	3.30014454e+02
354             	3.30014898e+02
355             	3.30029254e+02
356             	3.30045377e+02
357             	3.30057553e+02
358             	3.30060372e+02
359             	3.30067702e+02
360             	3.30049486e+02
361             	3.30046575e+02
362             	3.30058084e+02
363             	3.30043576e+02
364             	3.30041383e+02
365             	3.30055372e+02
366             	3.30037007e+02
367             	3.30031069e+02
368             	3.30041021e+02
369             	3.30060427e+02
370             	3.30042127e+02
371             	3.30036794e+02
372             	3.30048716e+02
373             	3.30068979e+02
374             	3.30076980e+02
375             	3.30078216e+02
376             	3.30056853e+02
377             	3.30054426e+02
378             	3.30067097e+02
379             	3.30053812e+02
380             	3.30051603e+02
381             	3.30064592e+02
382             	3.30048671e+02
383             	3.30044910e+02
384             	3.30055870e+02
385             	3.30042837e+02
386             	3.30042670e+02
387             	3.30054039e+02
388             	3.30071317e+02
389             	3.30052141e+02
390             	3.30046265e+02
391             	3.30057395e+02
392             	3.30045900e+02
393             	3.30045858e+02
394             	3.30058844e+02
395             	3.30045405e+02
396             	3.30043244e+02
397             	3.30052430e+02
398             	3.30069631e+02
399             	3.30051200e+02
400             	3.30044917e+02
401             	3.30054423e+02
402             	3.30072189e+02
403             	3.30052334e+02
404             	3.30046250e+02
405             	3.30057090e+02
406             	3.30043203e+02
407             	3.30040945e+02
408             	3.30051038e+02
409             	3.30068724e+02
410             	3.30050272e+02
411             	3.30044581e+02
412             	3.30056881e+02
413             	3.30043850e+02
414             	3.30042218e+02
415             	3.30054748e+02
416             	3.30040930e+02
417             	3.30038908e+02
418             	3.30051191e+02
419             	3.30038219e+02
420             	3.30036418e+02
421             	3.30046742e+02
422             	3.30058879e+02
423             	3.30042016e+02
424             	3.30038342e+02
425             	3.30050542e+02
426             	3.30036891e+02
427             	3.30034492e+02
428             	3.30045917e+02
429             	3.30031864e+02
430             	3.30030020e+02
431             	3.30042285e+02
432             	3.30030183e+02
433             	3.30029738e+02
434             	3.30042316e+02
435             	3.30061920e+02
436             	3.30044262e+02
437             	3.30039200e+02
438             	3.30051524e+02
439             	3.30069823e+02
440             	3.30051185e+02
441             	3.30045617e+02
442             	3.30057144e+02
443             	3.30044688e+02
444             	3.30043660e+02
445             	3.30055498e+02
446             	3.30042392e+02
447             	3.30041192e+02
448             	3.30053337e+02
449             	3.30040847e+02
450             	3.30040094e+02
451             	3.30052362e+02
452             	3.30040015e+02
453             	3.30039538e+02
454             	3.30052559e+02
455             	3.30039708e+02
456             	3.30038338e+02
457             	3.30050536e+02
458             	3.30038078e+02
459             	3.30037331e+02
460             	3.30050272e+02
461             	3.30037677e+02
462             	3.30036726e+02
463             	3.30049574e+02
464             	3.30037150e+02
465             	3.30036175e+02
466             	3.30047863e+02
467             	3.30066850e+02
468             	3.30047525e+02
469             	3.30040526e+02
470             	3.30050857e+02
471             	3.30039126e+02
472             	3.30038557e+02
473             	3.30050199e+02
474             	3.30037442e+02
475             	3.30036393e+02
476             	3.30049095e+02
477             	3.30036210e+02
478             	3.30034842e+02
479             	3.30046648e+02
480             	3.30034595e+02
481             	3.30034181e+02
482             	3.30046630e+02
483             	3.30034510e+02
484             	3.30033884e+02
485             	3.30046389e+02
486             	3.30034103e+02
487             	3.30033427e+02
488             	3.30045962e+02
489             	3.30033399e+02
490             	3.30032313e+02
491             	3.30044036e+02
492             	3.30031811e+02
493             	3.30031158e+02
494             	3.30043148e+02
495             	3.30030806e+02
496             	3.30030002e+02
497             	3.30041922e+02
498             	3.30029511e+02
499             	3.30028755e+02
500             	3.30040972e+02
501             	3.30028523e+02
502             	3.30027776e+02
503             	3.30040417e+02
504             	3.30028139e+02
505             	3.30027418e+02
506             	3.30039736e+02
507             	3.30027578e+02
508             	3.30027027e+02
509             	3.30039462e+02
510             	3.30027209e+02
511             	3.30026533e+02
512             	3.30038955e+02
513             	3.30026785e+02
514             	3.30026051e+02
515             	3.30038279e+02
516             	3.30026024e+02
517             	3.30025279e+02
518             	3.30037351e+02
519             	3.30024985e+02
520             	3.30024268e+02
521             	3.30036395e+02
522             	3.30024080e+02
523             	3.30023531e+02
524             	3.30035941e+02
525             	3.30023598e+02
526             	3.30022948e+02
527             	3.30035427e+02
528             	3.30023379e+02
529             	3.30022904e+02
530             	3.30035372e+02
531             	3.30023329e+02
532             	3.30022848e+02
533             	3.30035344e+02
534             	3.30023237e+02
535             	3.30022616e+02
536             	3.30035052e+02
537             	3.30022994e+02
538             	3.30022466e+02
539             	3.30034860e+02
540             	3.30022665e+02
541             	3.30022089e+02
542             	3.30034604e+02
543             	3.30022428e+02
544             	3.30021830e+02
545             	3.30034244e+02
546             	3.30022220e+02
547             	3.30021789e+02
548             	3.30034288e+02
549             	3.30022294e+02
550             	3.30021871e+02
551             	3.30034590e+02
552             	3.30022471e+02
553             	3.30021929e+02
554             	3.30034521e+02
555             	3.30022476e+02
556             	3.30022034e+02
557             	3.30034655e+02
558             	3.30022557e+02
559             	3.30022003e+02
560             	3.30034436e+02
561             	3.30022379e+02
562             	3.30021846e+02
563             	3.30034225e+02
564             	3.30022192e+02
565             	3.30021743e+02
566             	3.30034142e+02
567             	3.30022092e+02
568             	3.30021625e+02
569             	3.30034244e+02
570             	3.30022118e+02
571             	3.30021569e+02
572             	3.30034158e+02
573             	3.30022077e+02
574             	3.30021590e+02
575             	3.30034104e+02
576             	3.30022113e+02
577             	3.30021692e+02
578             	3.30034175e+02
579             	3.30022156e+02
580             	3.30021738e+02
581             	3.30034346e+02
582             	3.30022222e+02
583             	3.30021673e+02
584             	3.30034150e+02
585             	3.30022070e+02
586             	3.30021529e+02
587             	3.30033940e+02
588             	3.30021901e+02
589             	3.30021424e+02
590             	3.30033888e+02
591             	3.30021770e+02
592             	3.30021280e+02
593             	3.30033807e+02
594             	3.30021710e+02
595             	3.30021230e+02
596             	3.30033755e+02
597             	3.30021734e+02
598             	3.30021289e+02
599             	3.30033704e+02
600             	3.30021732e+02
601             	3.30021358e+02
602             	3.30033927e+02
603             	3.30021839e+02
604             	3.30021344e+02
605             	3.30033946e+02
606             	3.30021801e+02
607             	3.30021241e+02
608             	3.30033744e+02
609             	3.30021629e+02
610             	3.30021092e+02
611             	3.30033522e+02
612             	3.30021458e+02
613             	3.30020962e+02
614             	3.30033427e+02
615             	3.30021337e+02
616             	3.30020843e+02
617             	3.30033324e+02
618             	3.30021234e+02
619             	3.30020701e+02
620             	3.30033150e+02
621             	3.30021150e+02
