# Region        : cellZone component_2
# Cells         : 224
# Volume        : 4.48557086e-01
# Time          	volAverage(T)
1               	3.00666063e+02
2               	3.01328453e+02
3               	3.01963671e+02
4               	3.02582202e+02
5               	3.03193206e+02
6               	3.03798418e+02
7               	3.04397401e+02
8               	3.04993315e+02
9               	3.05586279e+02
10              	3.06176338e+02
11              	3.06761830e+02
12              	3.07343705e+02
13              	3.07924661e+02
14              	3.08504723e+02
15              	3.09083222e+02
16              	3.09652822e+02
17              	3.10217617e+02
18              	3.10777101e+02
19              	3.11337095e+02
20              	3.11900389e+02
21              	3.12449731e+02
22              	3.12999320e+02
23              	3.13540227e+02
24              	3.14073328e+02
25              	3.14600691e+02
26              	3.15121884e+02
27              	3.15634196e+02
28              	3.16137986e+02
29              	3.16636781e+02
30              	3.17134176e+02
31              	3.17631698e+02
32              	3.18136230e+02
33              	3.18637306e+02
34              	3.19124184e+02
35              	3.19600955e+02
36              	3.20079235e+02
37              	3.20551735e+02
38              	3.21010098e+02
39              	3.21455844e+02
40              	3.21897092e+02
41              	3.22335517e+02
42              	3.22779586e+02
43              	3.23228421e+02
44              	3.23678715e+02
45              	3.24133002e+02
46              	3.24596200e+02
47              	3.25057726e+02
48              	3.25514602e+02
49              	3.25970312e+02
50              	3.26416843e+02
51              	3.26851449e+02
52              	3.27277735e+02
53              	3.27703651e+02
54              	3.28132226e+02
55              	3.28560154e+02
56              	3.28990435e+02
57              	3.29421781e+02
58              	3.29850458e+02
59              	3.30278402e+02
60              	3.30710060e+02
61              	3.31146121e+02
62              	3.31578620e+02
63              	3.32001316e+02
64              	3.32420190e+02
65              	3.32834513e+02
66              	3.33244532e+02
67              	3.33652011e+02
68              	3.34054329e+02
69              	3.34455590e+02
70              	3.34846717e+02
71              	3.35238239e+02
72              	3.35631150e+02
73              	3.36018897e+02
74              	3.36399990e+02
75              	3.36772432e+02
76              	3.37141066e+02
77              	3.37505911e+02
78              	3.37869708e+02
79              	3.38234836e+02
80              	3.38598485e+02
81              	3.38961274e+02
82              	3.39326754e+02
83              	3.39690651e+02
84              	3.40056571e+02
85              	3.40420915e+02
86              	3.40776020e+02
87              	3.41123914e+02
88              	3.41465570e+02
89              	3.41799265e+02
90              	3.42126841e+02
91              	3.42449493e+02
92              	3.42769824e+02
93              	3.43087354e+02
94              	3.43401591e+02
95              	3.43717655e+02
96              	3.44035359e+02
97              	3.44355862e+02
98              	3.44673282e+02
99              	3.44986232e+02
100             	3.45299361e+02
101             	3.45611245e+02
102             	3.45917785e+02
103             	3.46216988e+02
104             	3.46509794e+02
105             	3.46797027e+02
106             	3.47088375e+02
107             	3.47385470e+02
108             	3.47683740e+02
109             	3.47979275e+02
110             	3.48272602e+02
111             	3.48564484e+02
112             	3.48851426e+02
113             	3.49129044e+02
114             	3.49398834e+02
115             	3.49662340e+02
116             	3.49920740e+02
117             	3.50175131e+02
118             	3.50425153e+02
119             	3.50670608e+02
120             	3.50914547e+02
121             	3.51157319e+02
122             	3.51399817e+02
123             	3.51642383e+02
124             	3.51885380e+02
125             	3.52129509e+02
126             	3.52373386e+02
127             	3.52620459e+02
128             	3.52868654e+02
129             	3.53116896e+02
130             	3.53364211e+02
131             	3.53609863e+02
132             	3.53848468e+02
133             	3.54084841e+02
134             	3.54317581e+02
135             	3.54547183e+02
136             	3.54772317e+02
137             	3.54992692e+02
138             	3.55210653e+02
139             	3.55426652e+02
140             	3.55638977e+02
141             	3.55849876e+02
142             	3.56058408e+02
143             	3.56264874e+02
144             	3.56468163e+02
145             	3.56670770e+02
146             	3.56871112e+02
147             	3.57067807e+02
148             	3.57261001e+02
149             	3.57450774e+02
150             	3.57640889e+02
151             	3.57830036e+02
152             	3.58018951e+02
153             	3.58206849e+02
154             	3.58395318e+02
155             	3.58585647e+02
156             	3.58774849e+02
157             	3.58963552e+02
158             	3.59149922e+02
159             	3.59334037e+02
160             	3.59517748e+02
161             	3.59700260e+02
162             	3.59878279e+02
163             	3.60054347e+02
164             	3.60226758e+02
165             	3.60397141e+02
166             	3.60565751e+02
167             	3.60728583e+02
168             	3.60887335e+02
169             	3.61045777e+02
170             	3.61202481e+02
171             	3.61355544e+02
172             	3.61508393e+02
173             	3.61661822e+02
174             	3.61817957e+02
175             	3.61979043e+02
176             	3.62143068e+02
177             	3.62309484e+02
178             	3.62477507e+02
179             	3.62646575e+02
180             	3.62815012e+02
181             	3.62977782e+02
182             	3.63136259e+02
183             	3.63288808e+02
184             	3.63434244e+02
185             	3.63573145e+02
186             	3.63710674e+02
187             	3.63846173e+02
188             	3.63979910e+02
189             	3.64113419e+02
190             	3.64247143e+02
191             	3.64381914e+02
192             	3.64516893e+02
193             	3.64651694e+02
194             	3.64780250e+02
195             	3.64911703e+02
196             	3.65041755e+02
197             	3.65167554e+02
198             	3.65289227e+02
199             	3.65408718e+02
200             	3.65527192e+02
201             	3.65644608e+02
202             	3.65763129e+02
203             	3.65881978e+02
204             	3.66003316e+02
205             	3.66127502e+02
206             	3.66253525e+02
207             	3.66380352e+02
208             	3.66503581e+02
209             	3.66628710e+02
210             	3.66751119e+02
211             	3.66869416e+02
212             	3.66985408e+02
213             	3.67097902e+02
214             	3.67208263e+02
215             	3.67315466e+02
216             	3.67420911e+02
217             	3.67526292e+02
218             	3.67630497e+02
219             	3.67733966e+02
220             	3.67840034e+02
221             	3.67947659e+02
222             	3.68056372e+02
223             	3.68165165e+02
224             	3.68273630e+02
225             	3.68383796e+02
226             	3.68493321e+02
227             	3.68598593e+02
228             	3.68698086e+02
229             	3.68793300e+02
230             	3.68885679e+02
231             	3.68976546e+02
232             	3.69066083e+02
233             	3.69155231e+02
234             	3.69244636e+02
235             	3.69334976e+02
236             	3.69426825e+02
237             	3.69520391e+02
238             	3.69615486e+02
239             	3.69712224e+02
240             	3.69810263e+02
241             	3.69908863e+02
242             	3.70007425e+02
243             	3.70104485e+02
244             	3.70199523e+02
245             	3.70292753e+02
246             	3.70384702e+02
247             	3.70475387e+02
248             	3.70564835e+02
249             	3.70652905e+02
250             	3.70741194e+02
251             	3.70827680e+02
252             	3.70912361e+02
253             	3.70995745e+02
254             	3.71077410e+02
255             	3.71157294e+02
256             	3.71235514e+02
257             	3.71312290e+02
258             	3.71387787e+02
259             	3.71461473e+02
260             	3.71536108e+02
261             	3.71611352e+02
262             	3.71687240e+02
263             	3.71763410e+02
264             	3.71839855e+02
265             	3.71916675e+02
266             	3.71994257e+02
267             	3.72072897e+02
268             	3.72152175e+02
269             	3.72230850e+02
270             	3.72309860e+02
271             	3.72388682e+02
272             	3.72466728e+02
273             	3.72543977e+02
274             	3.72619929e+02
275             	3.72694749e+02
276             	3.72768928e+02
277             	3.72842298e+02
278             	3.72915449e+02
279             	3.72988933e+02
280             	3.73061968e+02
281             	3.73135762e+02
282             	3.73210365e+02
283             	3.73286437e+02
284             	3.73363083e+02
285             	3.73439398e+02
286             	3.73514856e+02
287             	3.73589095e+02
288             	3.73661752e+02
289             	3.73732450e+02
290             	3.73801267e+02
291             	3.73868531e+02
292             	3.73934482e+02
293             	3.73999568e+02
294             	3.74063918e+02
295             	3.74127666e+02
296             	3.74190781e+02
297             	3.74253274e+02
298             	3.74314636e+02
299             	3.74376479e+02
300             	3.74438107e+02
301             	3.74499393e+02
302             	3.74560593e+02
303             	3.74622093e+02
304             	3.74683786e+02
305             	3.74745906e+02
306             	3.74808389e+02
307             	3.74870849e+02
308             	3.74933640e+02
309             	3.74996641e+02
310             	3.75059374e+02
311             	3.75121237e+02
312             	3.75181434e+02
313             	3.75241255e+02
314             	3.75300048e+02
315             	3.75358412e+02
316             	3.75416261e+02
317             	3.75473523e+02
318             	3.75530865e+02
319             	3.75588179e+02
320             	3.75645186e+02
321             	3.75701958e+02
322             	3.75756645e+02
323             	3.75811609e+02
324             	3.75866087e+02
325             	3.75919604e+02
326             	3.75971861e+02
327             	3.76022661e+02
328             	3.76072727e+02
329             	3.76122830e+02
330             	3.76172944e+02
331             	3.76223296e+02
332             	3.76274139e+02
333             	3.76325595e+02
334             	3.76377579e+02
335             	3.76429902e+02
336             	3.76482173e+02
337             	3.76534629e+02
338             	3.76587394e+02
339             	3.76639845e+02
340             	3.76691507e+02
341             	3.76742084e+02
342             	3.76791693e+02
343             	3.76839752e+02
344             	3.76887642e+02
345             	3.76934806e+02
346             	3.76981556e+02
347             	3.77027749e+02
348             	3.77074212e+02
349             	3.77120487e+02
350             	3.77167078e+02
351             	3.77213739e+02
352             	3.77260631e+02
353             	3.77307042e+02
354             	3.77352968e+02
355             	3.77398205e+02
356             	3.77442572e+02
357             	3.77485309e+02
358             	3.77526257e+02
359             	3.77565817e+02
360             	3.77605667e+02
361             	3.77645472e+02
362             	3.77685582e+02
363             	3.77726671e+02
364             	3.77768264e+02
365             	3.77810098e+02
366             	3.77851947e+02
367             	3.77894054e+02
368             	3.77935886e+02
369             	3.77977318e+02
370             	3.78018607e+02
371             	3.78060183e+02
372             	3.78101807e+02
373             	3.78143470e+02
374             	3.78185447e+02
375             	3.78227830e+02
376             	3.78270573e+02
377             	3.78313470e+02
378             	3.78356324e+02
379             	3.78398943e+02
380             	3.78441345e+02
381             	3.78483128e+02
382             	3.78523989e+02
383             	3.78563531e+02
384             	3.78601315e+02
385             	3.78637921e+02
386             	3.78674083e+02
387             	3.78709720e+02
388             	3.78745382e+02
389             	3.78781007e+02
390             	3.78816440e+02
391             	3.78851948e+02
392             	3.78887688e+02
393             	3.78923657e+02
394             	3.78959707e+02
395             	3.78995856e+02
396             	3.79032053e+02
397             	3.79068088e+02
398             	3.79103577e+02
399             	3.79138397e+02
400             	3.79172415e+02
401             	3.79205594e+02
402             	3.79238035e+02
403             	3.79269964e+02
404             	3.79301346e+02
405             	3.79332184e+02
406             	3.79362872e+02
407             	3.79393391e+02
408             	3.79423727e+02
409             	3.79453877e+02
410             	3.79483838e+02
411             	3.79513599e+02
412             	3.79543156e+02
413             	3.79572507e+02
414             	3.79601654e+02
415             	3.79630610e+02
416             	3.79659141e+02
417             	3.79687525e+02
418             	3.79715760e+02
419             	3.79743840e+02
420             	3.79771772e+02
421             	3.79799564e+02
422             	3.79827236e+02
423             	3.79854801e+02
424             	3.79882163e+02
425             	3.79909393e+02
426             	3.79936524e+02
427             	3.79963503e+02
428             	3.79990308e+02
429             	3.80016918e+02
430             	3.80043319e+02
431             	3.80069516e+02
432             	3.80095523e+02
433             	3.80121356e+02
434             	3.80147032e+02
435             	3.80172601e+02
436             	3.80198025e+02
437             	3.80223276e+02
438             	3.80248355e+02
439             	3.80273258e+02
440             	3.80297980e+02
441             	3.80322514e+02
442             	3.80346863e+02
443             	3.80371036e+02
444             	3.80395041e+02
445             	3.80418875e+02
446             	3.80442532e+02
447             	3.80466007e+02
448             	3.80489295e+02
449             	3.80512412e+02
450             	3.80535365e+02
451             	3.80558138e+02
452             	3.80580750e+02
453             	3.80603213e+02
454             	3.80625516e+02
455             	3.80647655e+02
456             	3.80669636e+02
457             	3.80691462e+02
458             	3.80713141e+02
459             	3.80734674e+02
460             	3.80756071e+02
461             	3.80777336e+02
462             	3.80798485e+02
463             	3.80819527e+02
464             	3.80840465e+02
465             	3.80861306e+02
466             	3.80882050e+02
467             	3.80902691e+02
468             	3.80923221e+02
469             	3.80943633e+02
470             	3.80963893e+02
471             	3.80984029e+02
472             	3.81004048e+02
473             	3.81023933e+02
474             	3.81043678e+02
475             	3.81063286e+02
476             	3.81082767e+02
477             	3.81102109e+02
478             	3.81121306e+02
479             	3.81140353e+02
480             	3.81159245e+02
481             	3.81177979e+02
482             	3.81196554e+02
483             	3.81214970e+02
484             	3.81233227e+02
485             	3.81251333e+02
486             	3.81269297e+02
487             	3.81287125e+02
488             	3.81304826e+02
489             	3.81322423e+02
490             	3.81339912e+02
491             	3.81357281e+02
492             	3.81374550e+02
493             	3.81391687e+02
494             	3.81408697e+02
495             	3.81425570e+02
496             	3.81442314e+02
497             	3.81458972e+02
498             	3.81475548e+02
499             	3.81492074e+02
500             	3.81508569e+02
501             	3.81525030e+02
502             	3.81541446e+02
503             	3.81557749e+02
504             	3.81573940e+02
505             	3.81590001e+02
506             	3.81605904e+02
507             	3.81621642e+02
508             	3.81637210e+02
509             	3.81652631e+02
510             	3.81667905e+02
511             	3.81683045e+02
512             	3.81698036e+02
513             	3.81712894e+02
514             	3.81727651e+02
515             	3.81742296e+02
516             	3.81756838e+02
517             	3.81771284e+02
518             	3.81785640e+02
519             	3.81799909e+02
520             	3.81814083e+02
521             	3.81828164e+02
522             	3.81842153e+02
523             	3.81856052e+02
524             	3.81869866e+02
525             	3.81883597e+02
526             	3.81897250e+02
527             	3.81910828e+02
528             	3.81924274e+02
529             	3.81937675e+02
530             	3.81951047e+02
531             	3.81964361e+02
532             	3.81977606e+02
533             	3.81990770e+02
534             	3.82003841e+02
535             	3.82016795e+02
536             	3.82029651e+02
537             	3.82042424e+02
538             	3.82055108e+02
539             	3.82067709e+02
540             	3.82080222e+02
541             	3.82092665e+02
542             	3.82105022e+02
543             	3.82117224e+02
544             	3.82129304e+02
545             	3.82141294e+02
546             	3.82153188e+02
547             	3.82165020e+02
548             	3.82176757e+02
549             	3.82188375e+02
550             	3.82199919e+02
551             	3.82211426e+02
552             	3.82222917e+02
553             	3.82234405e+02
554             	3.82245877e+02
555             	3.82257318e+02
556             	3.82268707e+02
557             	3.82280046e+02
558             	3.82291308e+02
559             	3.82302480e+02
560             	3.82313560e+02
561             	3.82324563e+02
562             	3.82335469e+02
563             	3.82346286e+02
564             	3.82357021e+02
565             	3.82367651e+02
566             	3.82378104e+02
567             	3.82388433e+02
568             	3.82398790e+02
569             	3.82409081e+02
570             	3.82419288e+02
571             	3.82429410e+02
572             	3.82439453e+02
573             	3.82449423e+02
574             	3.82459315e+02
575             	3.82469132e+02
576             	3.82478879e+02
577             	3.82488564e+02
578             	3.82498200e+02
579             	3.82507685e+02
580             	3.82517116e+02
581             	3.82526522e+02
582             	3.82535855e+02
583             	3.82545111e+02
584             	3.82554294e+02
585             	3.82563410e+02
586             	3.82572473e+02
587             	3.82581498e+02
588             	3.82590480e+02
589             	3.82599412e+02
590             	3.82608296e+02
591             	3.82617142e+02
592             	3.82625960e+02
593             	3.82634727e+02
594             	3.82643460e+02
595             	3.82652135e+02
596             	3.82660756e+02
597             	3.82669323e+02
598             	3.82677840e+02
599             	3.82686308e+02
600             	3.82694727e+02
601             	3.82703088e+02
602             	3.82711383e+02
603             	3.82719611e+02
604             	3.82727774e+02
605             	3.82735869e+02
606             	3.82743895e+02
607             	3.82751856e+02
608             	3.82759756e+02
609             	3.82767588e+02
610             	3.82775351e+02
611             	3.82783043e+02
612             	3.82790665e+02
613             	3.82798213e+02
614             	3.82805695e+02
615             	3.82813106e+02
616             	3.82820455e+02
617             	3.82827745e+02
618             	3.82834983e+02
619             	3.82842196e+02
620             	3.82849393e+02
621             	3.82856576e+02
