# Region        : cellZone component_1
# Cells         : 163
# Volume        : 3.13111572e-01
# Time          	volAverage(T)
1               	3.05310244e+02
2               	3.10465176e+02
3               	3.14577170e+02
4               	3.18076739e+02
5               	3.21515794e+02
6               	3.24999401e+02
7               	3.28407313e+02
8               	3.31720925e+02
9               	3.34954002e+02
10              	3.38092014e+02
11              	3.41101653e+02
12              	3.44040762e+02
13              	3.46938371e+02
14              	3.49787874e+02
15              	3.52584055e+02
16              	3.55228341e+02
17              	3.57747211e+02
18              	3.60277339e+02
19              	3.62852605e+02
20              	3.65509701e+02
21              	3.67986562e+02
22              	3.70217548e+02
23              	3.72371280e+02
24              	3.74513430e+02
25              	3.76609722e+02
26              	3.78552904e+02
27              	3.80301559e+02
28              	3.81930028e+02
29              	3.83555283e+02
30              	3.85248090e+02
31              	3.86920911e+02
32              	3.88739003e+02
33              	3.90538139e+02
34              	3.92197253e+02
35              	3.93720594e+02
36              	3.95277711e+02
37              	3.96685623e+02
38              	3.97870863e+02
39              	3.98883274e+02
40              	3.99760026e+02
41              	4.00619525e+02
42              	4.01515792e+02
43              	4.02473382e+02
44              	4.03460576e+02
45              	4.04430619e+02
46              	4.05500162e+02
47              	4.06616657e+02
48              	4.07678495e+02
49              	4.08629970e+02
50              	4.09373525e+02
51              	4.09920580e+02
52              	4.10360482e+02
53              	4.10693708e+02
54              	4.11010915e+02
55              	4.11328864e+02
56              	4.11644975e+02
57              	4.12024873e+02
58              	4.12504502e+02
59              	4.13031951e+02
60              	4.13604700e+02
61              	4.14146916e+02
62              	4.14508658e+02
63              	4.14745347e+02
64              	4.14902902e+02
65              	4.15073127e+02
66              	4.15297478e+02
67              	4.15561503e+02
68              	4.15841244e+02
69              	4.16118211e+02
70              	4.16434516e+02
71              	4.16705254e+02
72              	4.16941434e+02
73              	4.17101426e+02
74              	4.17150592e+02
75              	4.17135466e+02
76              	4.17068092e+02
77              	4.16962251e+02
78              	4.16848251e+02
79              	4.16743520e+02
80              	4.16654346e+02
81              	4.16643556e+02
82              	4.16701094e+02
83              	4.16876004e+02
84              	4.17134976e+02
85              	4.17406664e+02
86              	4.17553390e+02
87              	4.17667064e+02
88              	4.17719464e+02
89              	4.17715883e+02
90              	4.17665680e+02
91              	4.17576268e+02
92              	4.17481383e+02
93              	4.17407535e+02
94              	4.17393384e+02
95              	4.17441480e+02
96              	4.17515387e+02
97              	4.17629655e+02
98              	4.17749605e+02
99              	4.17872872e+02
100             	4.17993561e+02
101             	4.18081425e+02
102             	4.18106166e+02
103             	4.18073957e+02
104             	4.18004258e+02
105             	4.17978059e+02
106             	4.18021525e+02
107             	4.18163384e+02
108             	4.18307492e+02
109             	4.18434070e+02
110             	4.18581254e+02
111             	4.18734411e+02
112             	4.18861554e+02
113             	4.18946951e+02
114             	4.18953816e+02
115             	4.18895367e+02
116             	4.18812947e+02
117             	4.18724914e+02
118             	4.18637033e+02
119             	4.18562156e+02
120             	4.18486300e+02
121             	4.18436552e+02
122             	4.18418887e+02
123             	4.18427605e+02
124             	4.18445105e+02
125             	4.18461853e+02
126             	4.18458120e+02
127             	4.18458988e+02
128             	4.18454046e+02
129             	4.18439950e+02
130             	4.18425299e+02
131             	4.18381476e+02
132             	4.18351744e+02
133             	4.18327177e+02
134             	4.18326249e+02
135             	4.18321897e+02
136             	4.18297065e+02
137             	4.18302693e+02
138             	4.18317277e+02
139             	4.18352639e+02
140             	4.18360616e+02
141             	4.18376514e+02
142             	4.18382705e+02
143             	4.18382108e+02
144             	4.18363125e+02
145             	4.18344155e+02
146             	4.18296201e+02
147             	4.18245521e+02
148             	4.18185423e+02
149             	4.18143805e+02
150             	4.18066824e+02
151             	4.17988759e+02
152             	4.17930487e+02
153             	4.17874988e+02
154             	4.17828164e+02
155             	4.17787823e+02
156             	4.17747366e+02
157             	4.17695300e+02
158             	4.17653995e+02
159             	4.17632395e+02
160             	4.17619248e+02
161             	4.17612130e+02
162             	4.17596675e+02
163             	4.17604966e+02
164             	4.17622821e+02
165             	4.17616723e+02
166             	4.17612228e+02
167             	4.17567890e+02
168             	4.17521230e+02
169             	4.17457804e+02
170             	4.17401355e+02
171             	4.17331544e+02
172             	4.17262590e+02
173             	4.17215875e+02
174             	4.17167025e+02
175             	4.17156132e+02
176             	4.17162159e+02
177             	4.17181267e+02
178             	4.17214975e+02
179             	4.17261448e+02
180             	4.17297903e+02
181             	4.17296839e+02
182             	4.17299720e+02
183             	4.17292757e+02
184             	4.17264156e+02
185             	4.17215002e+02
186             	4.17176227e+02
187             	4.17153091e+02
188             	4.17121365e+02
189             	4.17111741e+02
190             	4.17129160e+02
191             	4.17151821e+02
192             	4.17182129e+02
193             	4.17213557e+02
194             	4.17200493e+02
195             	4.17196851e+02
196             	4.17189536e+02
197             	4.17162625e+02
198             	4.17121684e+02
199             	4.17048423e+02
200             	4.16995164e+02
201             	4.16943663e+02
202             	4.16906821e+02
203             	4.16881859e+02
204             	4.16881483e+02
205             	4.16902327e+02
206             	4.16931541e+02
207             	4.16965274e+02
208             	4.16984081e+02
209             	4.17021966e+02
210             	4.17052754e+02
211             	4.17069798e+02
212             	4.17061161e+02
213             	4.17050147e+02
214             	4.17014317e+02
215             	4.16983961e+02
216             	4.16954339e+02
217             	4.16935136e+02
218             	4.16923691e+02
219             	4.16938236e+02
220             	4.16962240e+02
221             	4.16998173e+02
222             	4.17048998e+02
223             	4.17096936e+02
224             	4.17122039e+02
225             	4.17154891e+02
226             	4.17179192e+02
227             	4.17172125e+02
228             	4.17150435e+02
229             	4.17130005e+02
230             	4.17111190e+02
231             	4.17087618e+02
232             	4.17062644e+02
233             	4.17044617e+02
234             	4.17041144e+02
235             	4.17051160e+02
236             	4.17070925e+02
237             	4.17096453e+02
238             	4.17122516e+02
239             	4.17152724e+02
240             	4.17177560e+02
241             	4.17196701e+02
242             	4.17212970e+02
243             	4.17223082e+02
244             	4.17224287e+02
245             	4.17223889e+02
246             	4.17206049e+02
247             	4.17208790e+02
248             	4.17215771e+02
249             	4.17223559e+02
250             	4.17231067e+02
251             	4.17240245e+02
252             	4.17258239e+02
253             	4.17283979e+02
254             	4.17309320e+02
255             	4.17330252e+02
256             	4.17347673e+02
257             	4.17362521e+02
258             	4.17376619e+02
259             	4.17386840e+02
260             	4.17394038e+02
261             	4.17398974e+02
262             	4.17403496e+02
263             	4.17405033e+02
264             	4.17404280e+02
265             	4.17407320e+02
266             	4.17411578e+02
267             	4.17416984e+02
268             	4.17423694e+02
269             	4.17429300e+02
270             	4.17435796e+02
271             	4.17443206e+02
272             	4.17448054e+02
273             	4.17451113e+02
274             	4.17452874e+02
275             	4.17454278e+02
276             	4.17458045e+02
277             	4.17461718e+02
278             	4.17469165e+02
279             	4.17490716e+02
280             	4.17503180e+02
281             	4.17513655e+02
282             	4.17531166e+02
283             	4.17561633e+02
284             	4.17598221e+02
285             	4.17633458e+02
286             	4.17663770e+02
287             	4.17692791e+02
288             	4.17719798e+02
289             	4.17740722e+02
290             	4.17754043e+02
291             	4.17763618e+02
292             	4.17770055e+02
293             	4.17779842e+02
294             	4.17788194e+02
295             	4.17794129e+02
296             	4.17799362e+02
297             	4.17805649e+02
298             	4.17816175e+02
299             	4.17825286e+02
300             	4.17831297e+02
301             	4.17836051e+02
302             	4.17841926e+02
303             	4.17852661e+02
304             	4.17859747e+02
305             	4.17862340e+02
306             	4.17864888e+02
307             	4.17866959e+02
308             	4.17870079e+02
309             	4.17875821e+02
310             	4.17882312e+02
311             	4.17888930e+02
312             	4.17899745e+02
313             	4.17910435e+02
314             	4.17922778e+02
315             	4.17940870e+02
316             	4.17961061e+02
317             	4.17978636e+02
318             	4.17996270e+02
319             	4.18012881e+02
320             	4.18029173e+02
321             	4.18049714e+02
322             	4.18058821e+02
323             	4.18071427e+02
324             	4.18085628e+02
325             	4.18091902e+02
326             	4.18087100e+02
327             	4.18077082e+02
328             	4.18074925e+02
329             	4.18064984e+02
330             	4.18055295e+02
331             	4.18051343e+02
332             	4.18053745e+02
333             	4.18062763e+02
334             	4.18075776e+02
335             	4.18086046e+02
336             	4.18095454e+02
337             	4.18109652e+02
338             	4.18122094e+02
339             	4.18129109e+02
340             	4.18130685e+02
341             	4.18129115e+02
342             	4.18131424e+02
343             	4.18134786e+02
344             	4.18133917e+02
345             	4.18133501e+02
346             	4.18135542e+02
347             	4.18140422e+02
348             	4.18151033e+02
349             	4.18164861e+02
350             	4.18178560e+02
351             	4.18193257e+02
352             	4.18208261e+02
353             	4.18216951e+02
354             	4.18221385e+02
355             	4.18226888e+02
356             	4.18227246e+02
357             	4.18219508e+02
358             	4.18205782e+02
359             	4.18191972e+02
360             	4.18182093e+02
361             	4.18175857e+02
362             	4.18169959e+02
363             	4.18167193e+02
364             	4.18166714e+02
365             	4.18170520e+02
366             	4.18176485e+02
367             	4.18184702e+02
368             	4.18190949e+02
369             	4.18194795e+02
370             	4.18198985e+02
371             	4.18202750e+02
372             	4.18204208e+02
373             	4.18205367e+02
374             	4.18207912e+02
375             	4.18211450e+02
376             	4.18215901e+02
377             	4.18220837e+02
378             	4.18226199e+02
379             	4.18231753e+02
380             	4.18238377e+02
381             	4.18244375e+02
382             	4.18249142e+02
383             	4.18252142e+02
384             	4.18254753e+02
385             	4.18259436e+02
386             	4.18261600e+02
387             	4.18263444e+02
388             	4.18267682e+02
389             	4.18273276e+02
390             	4.18279090e+02
391             	4.18285702e+02
392             	4.18292766e+02
393             	4.18300031e+02
394             	4.18306872e+02
395             	4.18313556e+02
396             	4.18320225e+02
397             	4.18327023e+02
398             	4.18331166e+02
399             	4.18334706e+02
400             	4.18336891e+02
401             	4.18337574e+02
402             	4.18337658e+02
403             	4.18334537e+02
404             	4.18329438e+02
405             	4.18324188e+02
406             	4.18319975e+02
407             	4.18316407e+02
408             	4.18313171e+02
409             	4.18310142e+02
410             	4.18307297e+02
411             	4.18304658e+02
412             	4.18302219e+02
413             	4.18299943e+02
414             	4.18297824e+02
415             	4.18295872e+02
416             	4.18293684e+02
417             	4.18291666e+02
418             	4.18289786e+02
419             	4.18288037e+02
420             	4.18286453e+02
421             	4.18285051e+02
422             	4.18283823e+02
423             	4.18282768e+02
424             	4.18281820e+02
425             	4.18280920e+02
426             	4.18280041e+02
427             	4.18279160e+02
428             	4.18278251e+02
429             	4.18277320e+02
430             	4.18276385e+02
431             	4.18275479e+02
432             	4.18274672e+02
433             	4.18274080e+02
434             	4.18273742e+02
435             	4.18273691e+02
436             	4.18273934e+02
437             	4.18274328e+02
438             	4.18274800e+02
439             	4.18275274e+02
440             	4.18275639e+02
441             	4.18275861e+02
442             	4.18275933e+02
443             	4.18275842e+02
444             	4.18275613e+02
445             	4.18275286e+02
446             	4.18274899e+02
447             	4.18274515e+02
448             	4.18274177e+02
449             	4.18273866e+02
450             	4.18273600e+02
451             	4.18273409e+02
452             	4.18273275e+02
453             	4.18273216e+02
454             	4.18273237e+02
455             	4.18273306e+02
456             	4.18273425e+02
457             	4.18273601e+02
458             	4.18273815e+02
459             	4.18274090e+02
460             	4.18274438e+02
461             	4.18274838e+02
462             	4.18275289e+02
463             	4.18275796e+02
464             	4.18276340e+02
465             	4.18276921e+02
466             	4.18277530e+02
467             	4.18278127e+02
468             	4.18278699e+02
469             	4.18279229e+02
470             	4.18279712e+02
471             	4.18280135e+02
472             	4.18280515e+02
473             	4.18280839e+02
474             	4.18281115e+02
475             	4.18281370e+02
476             	4.18281601e+02
477             	4.18281815e+02
478             	4.18282026e+02
479             	4.18282217e+02
480             	4.18282396e+02
481             	4.18282563e+02
482             	4.18282698e+02
483             	4.18282811e+02
484             	4.18282915e+02
485             	4.18283013e+02
486             	4.18283128e+02
487             	4.18283302e+02
488             	4.18283531e+02
489             	4.18283846e+02
490             	4.18284156e+02
491             	4.18284422e+02
492             	4.18284610e+02
493             	4.18284682e+02
494             	4.18284621e+02
495             	4.18284474e+02
496             	4.18284329e+02
497             	4.18284193e+02
498             	4.18284171e+02
499             	4.18284317e+02
500             	4.18284647e+02
501             	4.18285181e+02
502             	4.18285901e+02
503             	4.18286649e+02
504             	4.18287399e+02
505             	4.18288049e+02
506             	4.18288527e+02
507             	4.18288843e+02
508             	4.18288999e+02
509             	4.18288976e+02
510             	4.18288852e+02
511             	4.18288635e+02
512             	4.18288357e+02
513             	4.18288063e+02
514             	4.18287799e+02
515             	4.18287577e+02
516             	4.18287437e+02
517             	4.18287388e+02
518             	4.18287402e+02
519             	4.18287486e+02
520             	4.18287623e+02
521             	4.18287784e+02
522             	4.18287972e+02
523             	4.18288179e+02
524             	4.18288380e+02
525             	4.18288575e+02
526             	4.18288766e+02
527             	4.18288936e+02
528             	4.18289117e+02
529             	4.18289314e+02
530             	4.18289515e+02
531             	4.18289730e+02
532             	4.18289962e+02
533             	4.18290196e+02
534             	4.18290443e+02
535             	4.18290716e+02
536             	4.18290996e+02
537             	4.18291297e+02
538             	4.18291622e+02
539             	4.18291931e+02
540             	4.18292265e+02
541             	4.18292624e+02
542             	4.18292989e+02
543             	4.18293284e+02
544             	4.18293499e+02
545             	4.18293601e+02
546             	4.18293574e+02
547             	4.18293429e+02
548             	4.18293186e+02
549             	4.18292962e+02
550             	4.18292779e+02
551             	4.18292704e+02
552             	4.18292815e+02
553             	4.18293188e+02
554             	4.18293799e+02
555             	4.18294598e+02
556             	4.18295526e+02
557             	4.18296482e+02
558             	4.18297429e+02
559             	4.18298275e+02
560             	4.18298961e+02
561             	4.18299498e+02
562             	4.18299906e+02
563             	4.18300171e+02
564             	4.18300318e+02
565             	4.18300377e+02
566             	4.18300409e+02
567             	4.18300445e+02
568             	4.18300534e+02
569             	4.18300674e+02
570             	4.18300867e+02
571             	4.18301102e+02
572             	4.18301336e+02
573             	4.18301563e+02
574             	4.18301776e+02
575             	4.18301937e+02
576             	4.18302052e+02
577             	4.18302134e+02
578             	4.18302173e+02
579             	4.18302142e+02
580             	4.18302032e+02
581             	4.18301804e+02
582             	4.18301461e+02
583             	4.18301046e+02
584             	4.18300595e+02
585             	4.18300175e+02
586             	4.18299834e+02
587             	4.18299584e+02
588             	4.18299469e+02
589             	4.18299501e+02
590             	4.18299650e+02
591             	4.18299906e+02
592             	4.18300231e+02
593             	4.18300593e+02
594             	4.18300971e+02
595             	4.18301347e+02
596             	4.18301698e+02
597             	4.18302035e+02
598             	4.18302371e+02
599             	4.18302675e+02
600             	4.18302946e+02
601             	4.18303181e+02
602             	4.18303364e+02
603             	4.18303505e+02
604             	4.18303608e+02
605             	4.18303661e+02
606             	4.18303679e+02
607             	4.18303672e+02
608             	4.18303624e+02
609             	4.18303554e+02
610             	4.18303475e+02
611             	4.18303365e+02
612             	4.18303232e+02
613             	4.18303082e+02
614             	4.18302900e+02
615             	4.18302708e+02
616             	4.18302519e+02
617             	4.18302330e+02
618             	4.18302188e+02
619             	4.18302115e+02
620             	4.18302103e+02
621             	4.18302188e+02
