# Region        : cellZone component_1
# Cells         : 245
# Volume        : 5.03980998e-01
# Time          	volAverage(T)
1               	3.00154785e+02
2               	3.00307676e+02
3               	3.00449749e+02
4               	3.00583820e+02
5               	3.00713146e+02
6               	3.00839017e+02
7               	3.00961871e+02
8               	3.01081983e+02
9               	3.01200010e+02
10              	3.01316261e+02
11              	3.01430556e+02
12              	3.01543055e+02
13              	3.01653786e+02
14              	3.01763030e+02
15              	3.01870910e+02
16              	3.01977407e+02
17              	3.02083190e+02
18              	3.02186565e+02
19              	3.02287091e+02
20              	3.02385234e+02
21              	3.02482418e+02
22              	3.02577924e+02
23              	3.02670632e+02
24              	3.02759118e+02
25              	3.02844259e+02
26              	3.02928701e+02
27              	3.03012232e+02
28              	3.03095422e+02
29              	3.03174842e+02
30              	3.03250577e+02
31              	3.03321520e+02
32              	3.03384877e+02
33              	3.03441410e+02
34              	3.03499642e+02
35              	3.03561548e+02
36              	3.03623946e+02
37              	3.03685760e+02
38              	3.03747322e+02
39              	3.03808411e+02
40              	3.03868033e+02
41              	3.03925757e+02
42              	3.03981298e+02
43              	3.04037485e+02
44              	3.04092979e+02
45              	3.04149826e+02
46              	3.04205926e+02
47              	3.04262126e+02
48              	3.04317475e+02
49              	3.04370788e+02
50              	3.04423977e+02
51              	3.04475953e+02
52              	3.04526980e+02
53              	3.04576439e+02
54              	3.04622887e+02
55              	3.04666216e+02
56              	3.04706748e+02
57              	3.04744434e+02
58              	3.04780637e+02
59              	3.04819883e+02
60              	3.04861658e+02
61              	3.04903826e+02
62              	3.04940464e+02
63              	3.04968438e+02
64              	3.04998508e+02
65              	3.05027827e+02
66              	3.05056900e+02
67              	3.05085385e+02
68              	3.05113021e+02
69              	3.05140247e+02
70              	3.05166934e+02
71              	3.05190726e+02
72              	3.05212972e+02
73              	3.05233811e+02
74              	3.05255383e+02
75              	3.05276511e+02
76              	3.05298646e+02
77              	3.05321084e+02
78              	3.05344333e+02
79              	3.05367762e+02
80              	3.05390346e+02
81              	3.05413931e+02
82              	3.05437748e+02
83              	3.05462382e+02
84              	3.05489710e+02
85              	3.05514550e+02
86              	3.05537365e+02
87              	3.05557642e+02
88              	3.05575544e+02
89              	3.05590664e+02
90              	3.05602175e+02
91              	3.05610360e+02
92              	3.05615807e+02
93              	3.05620237e+02
94              	3.05624305e+02
95              	3.05628606e+02
96              	3.05632764e+02
97              	3.05638600e+02
98              	3.05645631e+02
99              	3.05655242e+02
100             	3.05666471e+02
101             	3.05678868e+02
102             	3.05691675e+02
103             	3.05704830e+02
104             	3.05717068e+02
105             	3.05730298e+02
106             	3.05743651e+02
107             	3.05756480e+02
108             	3.05767532e+02
109             	3.05776105e+02
110             	3.05781617e+02
111             	3.05784076e+02
112             	3.05784215e+02
113             	3.05782996e+02
114             	3.05783035e+02
115             	3.05786256e+02
116             	3.05793195e+02
117             	3.05803186e+02
118             	3.05814403e+02
119             	3.05824861e+02
120             	3.05834620e+02
121             	3.05842497e+02
122             	3.05846616e+02
123             	3.05847125e+02
124             	3.05844988e+02
125             	3.05842194e+02
126             	3.05840062e+02
127             	3.05840767e+02
128             	3.05844807e+02
129             	3.05852354e+02
130             	3.05862443e+02
131             	3.05873415e+02
132             	3.05884475e+02
133             	3.05894173e+02
134             	3.05902399e+02
135             	3.05907584e+02
136             	3.05910543e+02
137             	3.05911738e+02
138             	3.05911992e+02
139             	3.05912325e+02
140             	3.05913512e+02
141             	3.05915621e+02
142             	3.05918528e+02
143             	3.05923605e+02
144             	3.05929789e+02
145             	3.05938119e+02
146             	3.05946924e+02
147             	3.05955690e+02
148             	3.05964705e+02
149             	3.05973514e+02
150             	3.05983163e+02
151             	3.05994182e+02
152             	3.06006273e+02
153             	3.06020140e+02
154             	3.06034154e+02
155             	3.06048110e+02
156             	3.06060912e+02
157             	3.06070357e+02
158             	3.06076677e+02
159             	3.06080419e+02
160             	3.06082453e+02
161             	3.06083770e+02
162             	3.06085107e+02
163             	3.06086620e+02
164             	3.06088610e+02
165             	3.06091189e+02
166             	3.06095266e+02
167             	3.06100238e+02
168             	3.06106661e+02
169             	3.06114113e+02
170             	3.06121315e+02
171             	3.06128026e+02
172             	3.06134048e+02
173             	3.06139384e+02
174             	3.06144451e+02
175             	3.06149795e+02
176             	3.06155600e+02
177             	3.06161905e+02
178             	3.06168824e+02
179             	3.06176220e+02
180             	3.06183721e+02
181             	3.06191208e+02
182             	3.06198157e+02
183             	3.06204808e+02
184             	3.06210298e+02
185             	3.06214928e+02
186             	3.06218917e+02
187             	3.06222537e+02
188             	3.06226214e+02
189             	3.06229909e+02
190             	3.06233628e+02
191             	3.06237581e+02
192             	3.06241658e+02
193             	3.06246497e+02
194             	3.06252010e+02
195             	3.06258368e+02
196             	3.06265063e+02
197             	3.06271445e+02
198             	3.06277321e+02
199             	3.06282227e+02
200             	3.06286497e+02
201             	3.06290436e+02
202             	3.06294529e+02
203             	3.06298948e+02
204             	3.06304049e+02
205             	3.06309283e+02
206             	3.06314767e+02
207             	3.06320084e+02
208             	3.06324648e+02
209             	3.06328186e+02
210             	3.06330467e+02
211             	3.06331606e+02
212             	3.06331931e+02
213             	3.06331983e+02
214             	3.06331945e+02
215             	3.06332529e+02
216             	3.06334157e+02
217             	3.06336814e+02
218             	3.06340410e+02
219             	3.06344535e+02
220             	3.06349189e+02
221             	3.06354381e+02
222             	3.06359254e+02
223             	3.06364107e+02
224             	3.06368724e+02
225             	3.06373119e+02
226             	3.06377276e+02
227             	3.06381393e+02
228             	3.06385603e+02
229             	3.06390015e+02
230             	3.06394638e+02
231             	3.06399282e+02
232             	3.06404131e+02
233             	3.06409038e+02
234             	3.06413726e+02
235             	3.06418098e+02
236             	3.06422193e+02
237             	3.06425968e+02
238             	3.06429495e+02
239             	3.06432796e+02
240             	3.06435927e+02
241             	3.06439026e+02
242             	3.06442192e+02
243             	3.06445466e+02
244             	3.06448733e+02
245             	3.06451906e+02
246             	3.06455114e+02
247             	3.06458270e+02
248             	3.06461392e+02
249             	3.06464406e+02
250             	3.06467280e+02
251             	3.06469949e+02
252             	3.06472374e+02
253             	3.06474660e+02
254             	3.06476721e+02
255             	3.06478391e+02
256             	3.06479589e+02
257             	3.06480454e+02
258             	3.06481076e+02
259             	3.06481553e+02
260             	3.06482028e+02
261             	3.06482689e+02
262             	3.06483467e+02
263             	3.06484450e+02
264             	3.06485729e+02
265             	3.06487253e+02
266             	3.06488958e+02
267             	3.06491009e+02
268             	3.06493308e+02
269             	3.06495685e+02
270             	3.06498119e+02
271             	3.06500227e+02
272             	3.06502216e+02
273             	3.06503922e+02
274             	3.06505299e+02
275             	3.06506461e+02
276             	3.06507429e+02
277             	3.06508243e+02
278             	3.06509007e+02
279             	3.06509762e+02
280             	3.06510492e+02
281             	3.06511313e+02
282             	3.06512381e+02
283             	3.06513583e+02
284             	3.06514946e+02
285             	3.06516437e+02
286             	3.06517893e+02
287             	3.06519445e+02
288             	3.06521066e+02
289             	3.06522553e+02
290             	3.06523968e+02
291             	3.06525212e+02
292             	3.06526378e+02
293             	3.06527510e+02
294             	3.06528590e+02
295             	3.06529605e+02
296             	3.06530589e+02
297             	3.06531562e+02
298             	3.06532522e+02
299             	3.06533438e+02
300             	3.06534352e+02
301             	3.06535258e+02
302             	3.06536194e+02
303             	3.06537187e+02
304             	3.06538248e+02
305             	3.06539329e+02
306             	3.06540555e+02
307             	3.06541956e+02
308             	3.06543433e+02
309             	3.06544943e+02
310             	3.06546570e+02
311             	3.06548272e+02
312             	3.06549962e+02
313             	3.06551633e+02
314             	3.06553125e+02
315             	3.06554515e+02
316             	3.06555711e+02
317             	3.06556768e+02
318             	3.06557723e+02
319             	3.06558653e+02
320             	3.06559511e+02
321             	3.06560374e+02
322             	3.06561289e+02
323             	3.06562227e+02
324             	3.06563165e+02
325             	3.06564077e+02
326             	3.06564960e+02
327             	3.06565802e+02
328             	3.06566617e+02
329             	3.06567353e+02
330             	3.06568029e+02
331             	3.06568723e+02
332             	3.06569435e+02
333             	3.06570205e+02
334             	3.06571020e+02
335             	3.06571875e+02
336             	3.06572781e+02
337             	3.06573613e+02
338             	3.06574313e+02
339             	3.06575012e+02
340             	3.06575632e+02
341             	3.06576161e+02
342             	3.06576592e+02
343             	3.06576925e+02
344             	3.06577246e+02
345             	3.06577579e+02
346             	3.06577965e+02
347             	3.06578368e+02
348             	3.06578809e+02
349             	3.06579315e+02
350             	3.06579847e+02
351             	3.06580364e+02
352             	3.06580856e+02
353             	3.06581320e+02
354             	3.06581748e+02
355             	3.06582092e+02
356             	3.06582380e+02
357             	3.06582718e+02
358             	3.06583103e+02
359             	3.06583544e+02
360             	3.06584056e+02
361             	3.06584570e+02
362             	3.06585063e+02
363             	3.06585571e+02
364             	3.06586050e+02
365             	3.06586498e+02
366             	3.06586904e+02
367             	3.06587275e+02
368             	3.06587615e+02
369             	3.06587921e+02
370             	3.06588212e+02
371             	3.06588502e+02
372             	3.06588798e+02
373             	3.06589118e+02
374             	3.06589492e+02
375             	3.06589911e+02
376             	3.06590342e+02
377             	3.06590758e+02
378             	3.06591129e+02
379             	3.06591477e+02
380             	3.06591783e+02
381             	3.06592051e+02
382             	3.06592293e+02
383             	3.06592540e+02
384             	3.06592818e+02
385             	3.06593069e+02
386             	3.06593298e+02
387             	3.06593531e+02
388             	3.06593769e+02
389             	3.06594026e+02
390             	3.06594291e+02
391             	3.06594563e+02
392             	3.06594826e+02
393             	3.06595049e+02
394             	3.06595230e+02
395             	3.06595410e+02
396             	3.06595548e+02
397             	3.06595673e+02
398             	3.06595806e+02
399             	3.06595952e+02
400             	3.06596098e+02
401             	3.06596266e+02
402             	3.06596462e+02
403             	3.06596660e+02
404             	3.06596855e+02
405             	3.06597056e+02
406             	3.06597255e+02
407             	3.06597459e+02
408             	3.06597678e+02
409             	3.06597882e+02
410             	3.06598096e+02
411             	3.06598306e+02
412             	3.06598504e+02
413             	3.06598687e+02
414             	3.06598873e+02
415             	3.06599050e+02
416             	3.06599226e+02
417             	3.06599380e+02
418             	3.06599528e+02
419             	3.06599676e+02
420             	3.06599828e+02
421             	3.06599994e+02
422             	3.06600167e+02
423             	3.06600341e+02
424             	3.06600503e+02
425             	3.06600654e+02
426             	3.06600786e+02
427             	3.06600907e+02
428             	3.06601015e+02
429             	3.06601125e+02
430             	3.06601241e+02
431             	3.06601359e+02
432             	3.06601479e+02
433             	3.06601607e+02
434             	3.06601754e+02
435             	3.06601901e+02
436             	3.06602057e+02
437             	3.06602220e+02
438             	3.06602374e+02
439             	3.06602517e+02
440             	3.06602650e+02
441             	3.06602774e+02
442             	3.06602888e+02
443             	3.06603000e+02
444             	3.06603123e+02
445             	3.06603251e+02
446             	3.06603377e+02
447             	3.06603512e+02
448             	3.06603653e+02
449             	3.06603795e+02
450             	3.06603935e+02
451             	3.06604073e+02
452             	3.06604203e+02
453             	3.06604321e+02
454             	3.06604422e+02
455             	3.06604512e+02
456             	3.06604594e+02
457             	3.06604674e+02
458             	3.06604758e+02
459             	3.06604839e+02
460             	3.06604912e+02
461             	3.06604987e+02
462             	3.06605059e+02
463             	3.06605131e+02
464             	3.06605201e+02
465             	3.06605274e+02
466             	3.06605348e+02
467             	3.06605416e+02
468             	3.06605482e+02
469             	3.06605546e+02
470             	3.06605605e+02
471             	3.06605666e+02
472             	3.06605727e+02
473             	3.06605789e+02
474             	3.06605851e+02
475             	3.06605918e+02
476             	3.06605986e+02
477             	3.06606055e+02
478             	3.06606125e+02
479             	3.06606198e+02
480             	3.06606270e+02
481             	3.06606342e+02
482             	3.06606410e+02
483             	3.06606474e+02
484             	3.06606537e+02
485             	3.06606600e+02
486             	3.06606660e+02
487             	3.06606720e+02
488             	3.06606778e+02
489             	3.06606830e+02
490             	3.06606878e+02
491             	3.06606923e+02
492             	3.06606964e+02
493             	3.06607005e+02
494             	3.06607049e+02
495             	3.06607096e+02
496             	3.06607145e+02
497             	3.06607198e+02
498             	3.06607249e+02
499             	3.06607299e+02
500             	3.06607347e+02
501             	3.06607395e+02
502             	3.06607443e+02
503             	3.06607492e+02
504             	3.06607539e+02
505             	3.06607591e+02
506             	3.06607648e+02
507             	3.06607708e+02
508             	3.06607770e+02
509             	3.06607832e+02
510             	3.06607889e+02
511             	3.06607942e+02
512             	3.06607989e+02
513             	3.06608030e+02
514             	3.06608065e+02
515             	3.06608099e+02
516             	3.06608131e+02
517             	3.06608163e+02
518             	3.06608194e+02
519             	3.06608227e+02
520             	3.06608257e+02
521             	3.06608284e+02
522             	3.06608307e+02
523             	3.06608328e+02
524             	3.06608345e+02
525             	3.06608360e+02
526             	3.06608374e+02
527             	3.06608389e+02
528             	3.06608403e+02
529             	3.06608420e+02
530             	3.06608438e+02
531             	3.06608457e+02
532             	3.06608476e+02
533             	3.06608495e+02
534             	3.06608516e+02
535             	3.06608538e+02
536             	3.06608561e+02
537             	3.06608583e+02
538             	3.06608608e+02
539             	3.06608636e+02
540             	3.06608664e+02
541             	3.06608695e+02
542             	3.06608727e+02
543             	3.06608760e+02
544             	3.06608794e+02
545             	3.06608831e+02
546             	3.06608867e+02
547             	3.06608902e+02
548             	3.06608935e+02
549             	3.06608968e+02
550             	3.06609000e+02
551             	3.06609031e+02
552             	3.06609061e+02
553             	3.06609090e+02
554             	3.06609119e+02
555             	3.06609147e+02
556             	3.06609172e+02
557             	3.06609197e+02
558             	3.06609220e+02
559             	3.06609241e+02
560             	3.06609261e+02
561             	3.06609278e+02
562             	3.06609293e+02
563             	3.06609306e+02
564             	3.06609315e+02
565             	3.06609323e+02
566             	3.06609328e+02
567             	3.06609331e+02
568             	3.06609332e+02
569             	3.06609332e+02
570             	3.06609332e+02
571             	3.06609330e+02
572             	3.06609328e+02
573             	3.06609327e+02
574             	3.06609326e+02
575             	3.06609325e+02
576             	3.06609325e+02
577             	3.06609325e+02
578             	3.06609326e+02
579             	3.06609327e+02
580             	3.06609330e+02
581             	3.06609333e+02
582             	3.06609337e+02
583             	3.06609344e+02
584             	3.06609352e+02
585             	3.06609361e+02
586             	3.06609372e+02
587             	3.06609384e+02
588             	3.06609397e+02
589             	3.06609409e+02
590             	3.06609421e+02
591             	3.06609433e+02
592             	3.06609443e+02
593             	3.06609452e+02
594             	3.06609461e+02
595             	3.06609468e+02
596             	3.06609475e+02
597             	3.06609482e+02
598             	3.06609488e+02
599             	3.06609494e+02
600             	3.06609501e+02
601             	3.06609508e+02
602             	3.06609516e+02
603             	3.06609524e+02
604             	3.06609532e+02
605             	3.06609540e+02
606             	3.06609548e+02
607             	3.06609556e+02
608             	3.06609563e+02
609             	3.06609570e+02
610             	3.06609575e+02
611             	3.06609581e+02
612             	3.06609586e+02
613             	3.06609590e+02
614             	3.06609593e+02
615             	3.06609595e+02
616             	3.06609597e+02
617             	3.06609599e+02
618             	3.06609602e+02
619             	3.06609606e+02
620             	3.06609611e+02
621             	3.06609617e+02
