# Region        : cellZone component_2
# Cells         : 134
# Volume        : 2.71754272e-01
# Time          	volAverage(T)
1               	3.00779718e+02
2               	3.01546084e+02
3               	3.02231431e+02
4               	3.02856329e+02
5               	3.03447255e+02
6               	3.04012609e+02
7               	3.04559839e+02
8               	3.05095858e+02
9               	3.05621095e+02
10              	3.06135786e+02
11              	3.06639910e+02
12              	3.07138240e+02
13              	3.07613741e+02
14              	3.08039349e+02
15              	3.08423698e+02
16              	3.08803387e+02
17              	3.09186261e+02
18              	3.09565559e+02
19              	3.09945283e+02
20              	3.10309033e+02
21              	3.10646759e+02
22              	3.10965930e+02
23              	3.11268230e+02
24              	3.11560980e+02
25              	3.11847913e+02
26              	3.12123612e+02
27              	3.12406995e+02
28              	3.12704004e+02
29              	3.13009871e+02
30              	3.13298174e+02
31              	3.13552510e+02
32              	3.13815251e+02
33              	3.14084801e+02
34              	3.14352523e+02
35              	3.14614202e+02
36              	3.14866543e+02
37              	3.15116970e+02
38              	3.15354658e+02
39              	3.15583461e+02
40              	3.15798788e+02
41              	3.15996645e+02
42              	3.16181188e+02
43              	3.16356642e+02
44              	3.16522212e+02
45              	3.16690233e+02
46              	3.16851621e+02
47              	3.16997522e+02
48              	3.17124465e+02
49              	3.17226656e+02
50              	3.17328969e+02
51              	3.17409664e+02
52              	3.17492752e+02
53              	3.17573297e+02
54              	3.17640866e+02
55              	3.17695770e+02
56              	3.17745093e+02
57              	3.17792155e+02
58              	3.17840107e+02
59              	3.17889752e+02
60              	3.17939932e+02
61              	3.17996129e+02
62              	3.18059462e+02
63              	3.18137597e+02
64              	3.18228155e+02
65              	3.18328596e+02
66              	3.18430680e+02
67              	3.18529130e+02
68              	3.18629457e+02
69              	3.18734555e+02
70              	3.18844609e+02
71              	3.18942238e+02
72              	3.19040541e+02
73              	3.19130089e+02
74              	3.19214105e+02
75              	3.19285782e+02
76              	3.19345665e+02
77              	3.19389550e+02
78              	3.19427554e+02
79              	3.19461177e+02
80              	3.19495642e+02
81              	3.19528767e+02
82              	3.19576910e+02
83              	3.19651194e+02
84              	3.19691583e+02
85              	3.19675836e+02
86              	3.19633260e+02
87              	3.19604864e+02
88              	3.19577019e+02
89              	3.19524257e+02
90              	3.19456236e+02
91              	3.19375854e+02
92              	3.19297887e+02
93              	3.19228316e+02
94              	3.19170590e+02
95              	3.19142109e+02
96              	3.19146999e+02
97              	3.19158101e+02
98              	3.19167218e+02
99              	3.19170210e+02
100             	3.19167634e+02
101             	3.19150223e+02
102             	3.19119976e+02
103             	3.19078188e+02
104             	3.19037931e+02
105             	3.19003136e+02
106             	3.18988896e+02
107             	3.18993104e+02
108             	3.19021074e+02
109             	3.19078908e+02
110             	3.19113182e+02
111             	3.19133506e+02
112             	3.19136224e+02
113             	3.19134268e+02
114             	3.19129089e+02
115             	3.19113787e+02
116             	3.19082311e+02
117             	3.19041412e+02
118             	3.18999012e+02
119             	3.18978757e+02
120             	3.18974968e+02
121             	3.19000205e+02
122             	3.19040843e+02
123             	3.19041828e+02
124             	3.18975675e+02
125             	3.18918073e+02
126             	3.18869320e+02
127             	3.18828589e+02
128             	3.18789160e+02
129             	3.18748584e+02
130             	3.18707596e+02
131             	3.18666901e+02
132             	3.18625928e+02
133             	3.18603128e+02
134             	3.18600396e+02
135             	3.18626993e+02
136             	3.18678375e+02
137             	3.18735623e+02
138             	3.18780751e+02
139             	3.18804662e+02
140             	3.18815079e+02
141             	3.18815199e+02
142             	3.18801926e+02
143             	3.18775717e+02
144             	3.18733921e+02
145             	3.18688372e+02
146             	3.18646240e+02
147             	3.18626328e+02
148             	3.18632984e+02
149             	3.18670960e+02
150             	3.18725578e+02
151             	3.18764194e+02
152             	3.18781779e+02
153             	3.18786644e+02
154             	3.18779946e+02
155             	3.18764948e+02
156             	3.18746245e+02
157             	3.18729869e+02
158             	3.18708555e+02
159             	3.18690951e+02
160             	3.18675247e+02
161             	3.18666773e+02
162             	3.18665630e+02
163             	3.18675601e+02
164             	3.18690100e+02
165             	3.18704116e+02
166             	3.18722857e+02
167             	3.18749496e+02
168             	3.18786630e+02
169             	3.18831339e+02
170             	3.18877610e+02
171             	3.18932137e+02
172             	3.18986407e+02
173             	3.19039157e+02
174             	3.19087083e+02
175             	3.19121587e+02
176             	3.19142300e+02
177             	3.19151508e+02
178             	3.19152441e+02
179             	3.19148510e+02
180             	3.19145469e+02
181             	3.19142435e+02
182             	3.19142839e+02
183             	3.19151208e+02
184             	3.19171112e+02
185             	3.19209430e+02
186             	3.19255177e+02
187             	3.19300217e+02
188             	3.19340037e+02
189             	3.19376693e+02
190             	3.19401256e+02
191             	3.19414988e+02
192             	3.19421855e+02
193             	3.19424804e+02
194             	3.19425208e+02
195             	3.19431051e+02
196             	3.19440384e+02
197             	3.19470310e+02
198             	3.19516192e+02
199             	3.19567846e+02
200             	3.19617996e+02
201             	3.19661948e+02
202             	3.19693171e+02
203             	3.19708424e+02
204             	3.19708354e+02
205             	3.19695024e+02
206             	3.19670473e+02
207             	3.19642848e+02
208             	3.19614173e+02
209             	3.19592092e+02
210             	3.19579156e+02
211             	3.19581478e+02
212             	3.19596248e+02
213             	3.19622059e+02
214             	3.19649347e+02
215             	3.19681183e+02
216             	3.19712106e+02
217             	3.19739407e+02
218             	3.19756190e+02
219             	3.19772751e+02
220             	3.19785426e+02
221             	3.19796317e+02
222             	3.19807343e+02
223             	3.19815773e+02
224             	3.19825876e+02
225             	3.19838551e+02
226             	3.19849733e+02
227             	3.19866158e+02
228             	3.19879155e+02
229             	3.19894961e+02
230             	3.19911061e+02
231             	3.19927493e+02
232             	3.19944735e+02
233             	3.19965640e+02
234             	3.19986987e+02
235             	3.20008316e+02
236             	3.20028118e+02
237             	3.20047952e+02
238             	3.20067310e+02
239             	3.20085049e+02
240             	3.20096883e+02
241             	3.20107127e+02
242             	3.20110813e+02
243             	3.20114904e+02
244             	3.20114177e+02
245             	3.20117026e+02
246             	3.20116887e+02
247             	3.20124601e+02
248             	3.20133961e+02
249             	3.20144052e+02
250             	3.20161359e+02
251             	3.20179103e+02
252             	3.20195974e+02
253             	3.20210716e+02
254             	3.20223621e+02
255             	3.20233172e+02
256             	3.20240375e+02
257             	3.20240902e+02
258             	3.20242671e+02
259             	3.20241611e+02
260             	3.20241995e+02
261             	3.20242517e+02
262             	3.20243573e+02
263             	3.20244004e+02
264             	3.20249403e+02
265             	3.20258736e+02
266             	3.20266925e+02
267             	3.20279955e+02
268             	3.20290801e+02
269             	3.20301164e+02
270             	3.20313043e+02
271             	3.20321813e+02
272             	3.20327821e+02
273             	3.20332757e+02
274             	3.20336185e+02
275             	3.20335859e+02
276             	3.20339839e+02
277             	3.20340131e+02
278             	3.20345251e+02
279             	3.20352442e+02
280             	3.20363796e+02
281             	3.20377684e+02
282             	3.20393656e+02
283             	3.20412324e+02
284             	3.20428390e+02
285             	3.20444388e+02
286             	3.20458737e+02
287             	3.20470886e+02
288             	3.20479669e+02
289             	3.20481426e+02
290             	3.20478763e+02
291             	3.20478528e+02
292             	3.20477782e+02
293             	3.20477612e+02
294             	3.20478388e+02
295             	3.20483416e+02
296             	3.20491690e+02
297             	3.20497410e+02
298             	3.20501503e+02
299             	3.20506119e+02
300             	3.20510367e+02
301             	3.20512019e+02
302             	3.20510509e+02
303             	3.20506661e+02
304             	3.20504292e+02
305             	3.20501214e+02
306             	3.20497121e+02
307             	3.20495025e+02
308             	3.20494612e+02
309             	3.20493292e+02
310             	3.20495151e+02
311             	3.20499901e+02
312             	3.20505563e+02
313             	3.20510713e+02
314             	3.20515219e+02
315             	3.20518367e+02
316             	3.20520502e+02
317             	3.20523472e+02
318             	3.20526570e+02
319             	3.20528563e+02
320             	3.20528651e+02
321             	3.20526506e+02
322             	3.20528489e+02
323             	3.20528820e+02
324             	3.20531680e+02
325             	3.20536920e+02
326             	3.20545091e+02
327             	3.20552279e+02
328             	3.20562659e+02
329             	3.20569153e+02
330             	3.20576189e+02
331             	3.20582398e+02
332             	3.20587535e+02
333             	3.20590678e+02
334             	3.20590830e+02
335             	3.20589037e+02
336             	3.20586363e+02
337             	3.20583754e+02
338             	3.20578728e+02
339             	3.20575852e+02
340             	3.20574973e+02
341             	3.20575879e+02
342             	3.20578162e+02
343             	3.20582816e+02
344             	3.20584240e+02
345             	3.20588685e+02
346             	3.20591332e+02
347             	3.20593012e+02
348             	3.20594685e+02
349             	3.20595226e+02
350             	3.20595483e+02
351             	3.20594067e+02
352             	3.20590725e+02
353             	3.20584718e+02
354             	3.20582253e+02
355             	3.20581140e+02
356             	3.20583529e+02
357             	3.20589753e+02
358             	3.20597417e+02
359             	3.20606356e+02
360             	3.20611613e+02
361             	3.20617004e+02
362             	3.20619272e+02
363             	3.20617837e+02
364             	3.20612832e+02
365             	3.20603467e+02
366             	3.20598696e+02
367             	3.20591399e+02
368             	3.20588400e+02
369             	3.20590571e+02
370             	3.20592536e+02
371             	3.20595391e+02
372             	3.20600478e+02
373             	3.20605199e+02
374             	3.20610042e+02
375             	3.20607446e+02
376             	3.20605599e+02
377             	3.20602767e+02
378             	3.20596716e+02
379             	3.20592739e+02
380             	3.20589026e+02
381             	3.20587609e+02
382             	3.20588375e+02
383             	3.20591837e+02
384             	3.20594015e+02
385             	3.20599158e+02
386             	3.20605334e+02
387             	3.20611452e+02
388             	3.20612807e+02
389             	3.20612888e+02
390             	3.20611442e+02
391             	3.20609303e+02
392             	3.20606545e+02
393             	3.20602558e+02
394             	3.20596579e+02
395             	3.20594620e+02
396             	3.20593620e+02
397             	3.20594794e+02
398             	3.20597944e+02
399             	3.20602333e+02
400             	3.20607592e+02
401             	3.20612260e+02
402             	3.20614877e+02
403             	3.20618197e+02
404             	3.20620346e+02
405             	3.20622745e+02
406             	3.20624250e+02
407             	3.20625648e+02
408             	3.20626596e+02
409             	3.20625238e+02
410             	3.20625656e+02
411             	3.20626598e+02
412             	3.20627345e+02
413             	3.20625613e+02
414             	3.20621485e+02
415             	3.20619558e+02
416             	3.20618272e+02
417             	3.20617757e+02
418             	3.20619102e+02
419             	3.20618232e+02
420             	3.20620075e+02
421             	3.20624365e+02
422             	3.20630263e+02
423             	3.20635418e+02
424             	3.20638679e+02
425             	3.20642152e+02
426             	3.20645422e+02
427             	3.20647242e+02
428             	3.20648480e+02
429             	3.20647495e+02
430             	3.20644326e+02
431             	3.20640202e+02
432             	3.20635751e+02
433             	3.20631701e+02
434             	3.20629232e+02
435             	3.20628074e+02
436             	3.20626808e+02
437             	3.20626254e+02
438             	3.20626357e+02
439             	3.20627162e+02
440             	3.20628747e+02
441             	3.20631185e+02
442             	3.20633396e+02
443             	3.20635612e+02
444             	3.20638273e+02
445             	3.20640929e+02
446             	3.20643418e+02
447             	3.20645915e+02
448             	3.20649247e+02
449             	3.20652850e+02
450             	3.20656663e+02
451             	3.20658507e+02
452             	3.20661301e+02
453             	3.20661914e+02
454             	3.20661926e+02
455             	3.20660860e+02
456             	3.20659058e+02
457             	3.20656736e+02
458             	3.20654219e+02
459             	3.20651954e+02
460             	3.20648638e+02
461             	3.20646385e+02
462             	3.20645203e+02
463             	3.20644264e+02
464             	3.20643828e+02
465             	3.20640752e+02
466             	3.20642386e+02
467             	3.20641515e+02
468             	3.20642180e+02
469             	3.20643458e+02
470             	3.20645628e+02
471             	3.20648967e+02
472             	3.20649824e+02
473             	3.20647733e+02
474             	3.20646327e+02
475             	3.20643595e+02
476             	3.20638324e+02
477             	3.20629506e+02
478             	3.20619264e+02
479             	3.20606888e+02
480             	3.20598260e+02
481             	3.20594200e+02
482             	3.20596809e+02
483             	3.20605518e+02
484             	3.20617467e+02
485             	3.20628473e+02
486             	3.20642551e+02
487             	3.20654934e+02
488             	3.20668193e+02
489             	3.20680394e+02
490             	3.20688641e+02
491             	3.20691535e+02
492             	3.20691014e+02
493             	3.20689815e+02
494             	3.20685262e+02
495             	3.20682626e+02
496             	3.20683171e+02
497             	3.20686364e+02
498             	3.20685668e+02
499             	3.20687953e+02
500             	3.20690916e+02
501             	3.20692707e+02
502             	3.20690505e+02
503             	3.20688549e+02
504             	3.20684553e+02
505             	3.20679859e+02
506             	3.20674243e+02
507             	3.20668058e+02
508             	3.20661815e+02
509             	3.20656043e+02
510             	3.20649267e+02
511             	3.20646496e+02
512             	3.20646686e+02
513             	3.20649153e+02
514             	3.20649534e+02
515             	3.20652384e+02
516             	3.20657702e+02
517             	3.20663124e+02
518             	3.20666438e+02
519             	3.20671686e+02
520             	3.20677745e+02
521             	3.20687460e+02
522             	3.20694039e+02
523             	3.20700171e+02
524             	3.20707751e+02
525             	3.20713116e+02
526             	3.20717690e+02
527             	3.20716791e+02
528             	3.20716067e+02
529             	3.20712924e+02
530             	3.20707013e+02
531             	3.20699118e+02
532             	3.20688358e+02
533             	3.20678256e+02
534             	3.20670672e+02
535             	3.20664842e+02
536             	3.20661602e+02
537             	3.20661953e+02
538             	3.20661846e+02
539             	3.20667453e+02
540             	3.20671554e+02
541             	3.20678150e+02
542             	3.20682771e+02
543             	3.20687054e+02
544             	3.20689468e+02
545             	3.20689626e+02
546             	3.20689202e+02
547             	3.20687716e+02
548             	3.20685290e+02
549             	3.20680050e+02
550             	3.20678816e+02
551             	3.20676594e+02
552             	3.20674609e+02
553             	3.20675422e+02
554             	3.20677443e+02
555             	3.20677853e+02
556             	3.20678036e+02
557             	3.20677648e+02
558             	3.20676860e+02
559             	3.20674796e+02
560             	3.20671625e+02
561             	3.20669480e+02
562             	3.20665356e+02
563             	3.20658016e+02
564             	3.20653533e+02
565             	3.20651005e+02
566             	3.20650127e+02
567             	3.20647876e+02
568             	3.20648899e+02
569             	3.20652185e+02
570             	3.20656724e+02
571             	3.20660648e+02
572             	3.20662832e+02
573             	3.20666026e+02
574             	3.20668701e+02
575             	3.20670758e+02
576             	3.20671687e+02
577             	3.20671321e+02
578             	3.20669818e+02
579             	3.20667662e+02
580             	3.20665576e+02
581             	3.20663560e+02
582             	3.20661650e+02
583             	3.20656035e+02
584             	3.20652557e+02
585             	3.20650158e+02
586             	3.20648041e+02
587             	3.20645830e+02
588             	3.20643656e+02
589             	3.20641218e+02
590             	3.20639412e+02
591             	3.20638079e+02
592             	3.20636977e+02
593             	3.20636002e+02
594             	3.20634991e+02
595             	3.20634793e+02
596             	3.20634761e+02
597             	3.20635623e+02
598             	3.20636211e+02
599             	3.20637192e+02
600             	3.20638552e+02
601             	3.20640291e+02
602             	3.20642273e+02
603             	3.20644372e+02
604             	3.20646683e+02
605             	3.20648945e+02
606             	3.20651529e+02
607             	3.20653902e+02
608             	3.20656551e+02
609             	3.20658908e+02
610             	3.20661219e+02
611             	3.20663340e+02
612             	3.20665219e+02
613             	3.20666896e+02
614             	3.20668390e+02
615             	3.20669885e+02
616             	3.20670785e+02
617             	3.20671408e+02
618             	3.20671895e+02
619             	3.20672234e+02
620             	3.20672375e+02
621             	3.20672294e+02
