# Region        : cellZone component_0
# Cells         : 126
# Volume        : 2.11163398e-01
# Time          	volAverage(T)
1               	3.00598526e+02
2               	3.01180217e+02
3               	3.01678575e+02
4               	3.02119674e+02
5               	3.02538139e+02
6               	3.02944891e+02
7               	3.03340431e+02
8               	3.03723463e+02
9               	3.04099632e+02
10              	3.04471457e+02
11              	3.04835009e+02
12              	3.05184206e+02
13              	3.05518464e+02
14              	3.05830978e+02
15              	3.06143439e+02
16              	3.06438599e+02
17              	3.06714331e+02
18              	3.06982310e+02
19              	3.07236469e+02
20              	3.07487234e+02
21              	3.07751245e+02
22              	3.08021193e+02
23              	3.08268982e+02
24              	3.08495014e+02
25              	3.08693917e+02
26              	3.08865323e+02
27              	3.09027731e+02
28              	3.09210829e+02
29              	3.09414795e+02
30              	3.09615724e+02
31              	3.09810122e+02
32              	3.09993402e+02
33              	3.10174193e+02
34              	3.10349923e+02
35              	3.10527053e+02
36              	3.10711376e+02
37              	3.10905499e+02
38              	3.11078526e+02
39              	3.11209651e+02
40              	3.11285083e+02
41              	3.11339801e+02
42              	3.11433977e+02
43              	3.11543857e+02
44              	3.11650602e+02
45              	3.11759038e+02
46              	3.11872058e+02
47              	3.11986496e+02
48              	3.12099148e+02
49              	3.12208376e+02
50              	3.12311429e+02
51              	3.12406937e+02
52              	3.12493536e+02
53              	3.12582271e+02
54              	3.12669408e+02
55              	3.12753899e+02
56              	3.12831504e+02
57              	3.12901342e+02
58              	3.12967071e+02
59              	3.13032942e+02
60              	3.13085788e+02
61              	3.13138915e+02
62              	3.13180754e+02
63              	3.13213402e+02
64              	3.13242816e+02
65              	3.13272433e+02
66              	3.13301184e+02
67              	3.13330719e+02
68              	3.13362599e+02
69              	3.13393864e+02
70              	3.13430657e+02
71              	3.13468976e+02
72              	3.13511492e+02
73              	3.13550802e+02
74              	3.13584493e+02
75              	3.13612720e+02
76              	3.13638200e+02
77              	3.13658262e+02
78              	3.13673691e+02
79              	3.13688531e+02
80              	3.13704053e+02
81              	3.13724480e+02
82              	3.13748408e+02
83              	3.13774682e+02
84              	3.13808072e+02
85              	3.13844582e+02
86              	3.13887981e+02
87              	3.13932337e+02
88              	3.13977071e+02
89              	3.14019578e+02
90              	3.14060184e+02
91              	3.14098342e+02
92              	3.14132627e+02
93              	3.14164076e+02
94              	3.14190454e+02
95              	3.14213868e+02
96              	3.14235418e+02
97              	3.14255129e+02
98              	3.14275628e+02
99              	3.14297555e+02
100             	3.14324924e+02
101             	3.14356654e+02
102             	3.14393160e+02
103             	3.14431521e+02
104             	3.14465706e+02
105             	3.14498732e+02
106             	3.14526423e+02
107             	3.14552174e+02
108             	3.14572801e+02
109             	3.14590791e+02
110             	3.14607739e+02
111             	3.14623417e+02
112             	3.14639398e+02
113             	3.14654990e+02
114             	3.14669383e+02
115             	3.14685679e+02
116             	3.14704415e+02
117             	3.14723814e+02
118             	3.14746068e+02
119             	3.14767199e+02
120             	3.14789756e+02
121             	3.14813111e+02
122             	3.14836506e+02
123             	3.14859069e+02
124             	3.14880922e+02
125             	3.14901264e+02
126             	3.14918107e+02
127             	3.14933630e+02
128             	3.14948301e+02
129             	3.14961499e+02
130             	3.14973800e+02
131             	3.14985840e+02
132             	3.14998171e+02
133             	3.15011293e+02
134             	3.15025486e+02
135             	3.15041008e+02
136             	3.15057901e+02
137             	3.15075124e+02
138             	3.15091345e+02
139             	3.15106064e+02
140             	3.15119455e+02
141             	3.15131784e+02
142             	3.15144168e+02
143             	3.15155678e+02
144             	3.15167057e+02
145             	3.15177597e+02
146             	3.15188124e+02
147             	3.15199109e+02
148             	3.15209736e+02
149             	3.15219966e+02
150             	3.15230036e+02
151             	3.15240605e+02
152             	3.15252202e+02
153             	3.15264525e+02
154             	3.15277269e+02
155             	3.15290857e+02
156             	3.15303583e+02
157             	3.15315885e+02
158             	3.15327639e+02
159             	3.15339234e+02
160             	3.15349643e+02
161             	3.15359365e+02
162             	3.15368858e+02
163             	3.15378055e+02
164             	3.15386855e+02
165             	3.15395580e+02
166             	3.15403810e+02
167             	3.15411878e+02
168             	3.15419847e+02
169             	3.15427752e+02
170             	3.15434683e+02
171             	3.15441093e+02
172             	3.15447624e+02
173             	3.15453963e+02
174             	3.15459850e+02
175             	3.15466065e+02
176             	3.15472458e+02
177             	3.15478918e+02
178             	3.15485949e+02
179             	3.15493210e+02
180             	3.15500350e+02
181             	3.15507017e+02
182             	3.15513320e+02
183             	3.15519563e+02
184             	3.15525704e+02
185             	3.15531623e+02
186             	3.15536708e+02
187             	3.15541918e+02
188             	3.15546664e+02
189             	3.15551187e+02
190             	3.15555663e+02
191             	3.15560225e+02
192             	3.15564772e+02
193             	3.15569349e+02
194             	3.15573692e+02
195             	3.15577925e+02
196             	3.15581883e+02
197             	3.15585437e+02
198             	3.15588576e+02
199             	3.15591288e+02
200             	3.15593738e+02
201             	3.15596083e+02
202             	3.15598507e+02
203             	3.15600992e+02
204             	3.15603627e+02
205             	3.15606693e+02
206             	3.15609734e+02
207             	3.15612682e+02
208             	3.15615834e+02
209             	3.15618923e+02
210             	3.15621883e+02
211             	3.15624228e+02
212             	3.15626273e+02
213             	3.15627850e+02
214             	3.15629502e+02
215             	3.15631337e+02
216             	3.15633326e+02
217             	3.15635358e+02
218             	3.15637360e+02
219             	3.15639351e+02
220             	3.15641236e+02
221             	3.15643253e+02
222             	3.15645322e+02
223             	3.15647450e+02
224             	3.15649888e+02
225             	3.15652780e+02
226             	3.15655557e+02
227             	3.15657952e+02
228             	3.15660117e+02
229             	3.15662003e+02
230             	3.15663315e+02
231             	3.15664066e+02
232             	3.15664428e+02
233             	3.15664713e+02
234             	3.15664945e+02
235             	3.15665474e+02
236             	3.15666296e+02
237             	3.15667468e+02
238             	3.15669088e+02
239             	3.15671184e+02
240             	3.15673476e+02
241             	3.15675859e+02
242             	3.15678186e+02
243             	3.15680335e+02
244             	3.15681953e+02
245             	3.15683152e+02
246             	3.15683904e+02
247             	3.15684131e+02
248             	3.15684042e+02
249             	3.15683913e+02
250             	3.15683854e+02
251             	3.15684212e+02
252             	3.15685082e+02
253             	3.15686185e+02
254             	3.15687586e+02
255             	3.15689279e+02
256             	3.15691094e+02
257             	3.15692673e+02
258             	3.15694090e+02
259             	3.15695223e+02
260             	3.15696171e+02
261             	3.15696955e+02
262             	3.15697667e+02
263             	3.15698337e+02
264             	3.15698972e+02
265             	3.15699619e+02
266             	3.15700254e+02
267             	3.15700862e+02
268             	3.15701457e+02
269             	3.15702046e+02
270             	3.15702521e+02
271             	3.15702935e+02
272             	3.15703377e+02
273             	3.15703824e+02
274             	3.15704251e+02
275             	3.15704633e+02
276             	3.15704977e+02
277             	3.15705278e+02
278             	3.15705525e+02
279             	3.15705754e+02
280             	3.15705983e+02
281             	3.15706235e+02
282             	3.15706526e+02
283             	3.15706858e+02
284             	3.15707196e+02
285             	3.15707531e+02
286             	3.15707870e+02
287             	3.15708223e+02
288             	3.15708560e+02
289             	3.15708765e+02
290             	3.15709002e+02
291             	3.15709176e+02
292             	3.15709287e+02
293             	3.15709324e+02
294             	3.15709272e+02
295             	3.15709143e+02
296             	3.15708959e+02
297             	3.15708744e+02
298             	3.15708512e+02
299             	3.15708287e+02
300             	3.15708089e+02
301             	3.15707917e+02
302             	3.15707771e+02
303             	3.15707654e+02
304             	3.15707570e+02
305             	3.15707523e+02
306             	3.15707543e+02
307             	3.15707582e+02
308             	3.15707667e+02
309             	3.15707804e+02
310             	3.15707992e+02
311             	3.15708244e+02
312             	3.15708563e+02
313             	3.15708919e+02
314             	3.15709327e+02
315             	3.15709786e+02
316             	3.15710299e+02
317             	3.15710848e+02
318             	3.15711418e+02
319             	3.15711991e+02
320             	3.15712576e+02
321             	3.15713134e+02
322             	3.15713656e+02
323             	3.15714134e+02
324             	3.15714586e+02
325             	3.15714970e+02
326             	3.15715288e+02
327             	3.15715528e+02
328             	3.15715707e+02
329             	3.15715851e+02
330             	3.15715874e+02
331             	3.15715890e+02
332             	3.15715961e+02
333             	3.15716085e+02
334             	3.15716280e+02
335             	3.15716618e+02
336             	3.15716986e+02
337             	3.15717395e+02
338             	3.15717794e+02
339             	3.15718175e+02
340             	3.15718557e+02
341             	3.15718955e+02
342             	3.15719414e+02
343             	3.15719866e+02
344             	3.15720267e+02
345             	3.15720582e+02
346             	3.15720773e+02
347             	3.15720736e+02
348             	3.15720550e+02
349             	3.15720261e+02
350             	3.15719819e+02
351             	3.15719348e+02
352             	3.15718949e+02
353             	3.15718636e+02
354             	3.15718437e+02
355             	3.15718369e+02
356             	3.15718471e+02
357             	3.15718642e+02
358             	3.15718819e+02
359             	3.15718988e+02
360             	3.15719120e+02
361             	3.15719210e+02
362             	3.15719263e+02
363             	3.15719286e+02
364             	3.15719301e+02
365             	3.15719309e+02
366             	3.15719313e+02
367             	3.15719377e+02
368             	3.15719585e+02
369             	3.15719822e+02
370             	3.15720005e+02
371             	3.15720113e+02
372             	3.15720093e+02
373             	3.15719893e+02
374             	3.15719547e+02
375             	3.15719205e+02
376             	3.15718899e+02
377             	3.15718646e+02
378             	3.15718479e+02
379             	3.15718405e+02
380             	3.15718446e+02
381             	3.15718618e+02
382             	3.15718826e+02
383             	3.15718951e+02
384             	3.15719096e+02
385             	3.15719214e+02
386             	3.15719316e+02
387             	3.15719468e+02
388             	3.15719757e+02
389             	3.15720151e+02
390             	3.15720675e+02
391             	3.15721242e+02
392             	3.15721759e+02
393             	3.15722185e+02
394             	3.15722495e+02
395             	3.15722558e+02
396             	3.15722451e+02
397             	3.15722173e+02
398             	3.15721743e+02
399             	3.15721169e+02
400             	3.15720527e+02
401             	3.15719918e+02
402             	3.15719364e+02
403             	3.15718897e+02
404             	3.15718408e+02
405             	3.15718005e+02
406             	3.15717792e+02
407             	3.15717736e+02
408             	3.15717833e+02
409             	3.15718080e+02
410             	3.15718435e+02
411             	3.15718871e+02
412             	3.15719357e+02
413             	3.15719902e+02
414             	3.15720533e+02
415             	3.15721194e+02
416             	3.15721787e+02
417             	3.15722296e+02
418             	3.15722712e+02
419             	3.15722943e+02
420             	3.15723102e+02
421             	3.15723172e+02
422             	3.15723156e+02
423             	3.15723032e+02
424             	3.15722823e+02
425             	3.15722546e+02
426             	3.15722203e+02
427             	3.15721819e+02
428             	3.15721400e+02
429             	3.15720968e+02
430             	3.15720551e+02
431             	3.15720133e+02
432             	3.15719746e+02
433             	3.15719395e+02
434             	3.15719098e+02
435             	3.15718880e+02
436             	3.15718736e+02
437             	3.15718674e+02
438             	3.15718699e+02
439             	3.15718813e+02
440             	3.15719028e+02
441             	3.15719338e+02
442             	3.15719721e+02
443             	3.15720143e+02
444             	3.15720556e+02
445             	3.15720927e+02
446             	3.15721238e+02
447             	3.15721444e+02
448             	3.15721533e+02
449             	3.15721431e+02
450             	3.15721269e+02
451             	3.15721050e+02
452             	3.15720790e+02
453             	3.15720504e+02
454             	3.15720216e+02
455             	3.15719946e+02
456             	3.15719575e+02
457             	3.15719170e+02
458             	3.15718788e+02
459             	3.15718427e+02
460             	3.15718124e+02
461             	3.15717917e+02
462             	3.15717895e+02
463             	3.15718013e+02
464             	3.15718291e+02
465             	3.15718674e+02
466             	3.15719105e+02
467             	3.15719539e+02
468             	3.15719914e+02
469             	3.15720174e+02
470             	3.15720280e+02
471             	3.15720249e+02
472             	3.15720051e+02
473             	3.15719670e+02
474             	3.15719217e+02
475             	3.15718723e+02
476             	3.15718268e+02
477             	3.15717864e+02
478             	3.15717542e+02
479             	3.15717314e+02
480             	3.15717175e+02
481             	3.15717114e+02
482             	3.15717111e+02
483             	3.15716965e+02
484             	3.15716842e+02
485             	3.15716829e+02
486             	3.15716871e+02
487             	3.15717096e+02
488             	3.15717454e+02
489             	3.15717922e+02
490             	3.15718475e+02
491             	3.15719045e+02
492             	3.15719727e+02
493             	3.15720413e+02
494             	3.15720954e+02
495             	3.15721140e+02
496             	3.15721360e+02
497             	3.15721522e+02
498             	3.15721601e+02
499             	3.15721601e+02
500             	3.15721513e+02
501             	3.15721138e+02
502             	3.15720681e+02
503             	3.15720240e+02
504             	3.15719856e+02
505             	3.15719595e+02
506             	3.15719531e+02
507             	3.15719702e+02
508             	3.15720083e+02
509             	3.15720683e+02
510             	3.15721310e+02
511             	3.15721922e+02
512             	3.15722456e+02
513             	3.15722861e+02
514             	3.15723103e+02
515             	3.15723168e+02
516             	3.15722984e+02
517             	3.15722748e+02
518             	3.15722508e+02
519             	3.15722363e+02
520             	3.15722304e+02
521             	3.15722262e+02
522             	3.15722180e+02
523             	3.15722035e+02
524             	3.15721810e+02
525             	3.15721500e+02
526             	3.15721111e+02
527             	3.15720663e+02
528             	3.15720124e+02
529             	3.15719563e+02
530             	3.15718995e+02
531             	3.15718450e+02
532             	3.15717948e+02
533             	3.15717504e+02
534             	3.15717029e+02
535             	3.15716658e+02
536             	3.15716405e+02
537             	3.15716328e+02
538             	3.15716305e+02
539             	3.15716421e+02
540             	3.15716602e+02
541             	3.15716819e+02
542             	3.15717065e+02
543             	3.15717341e+02
544             	3.15717592e+02
545             	3.15717797e+02
546             	3.15717933e+02
547             	3.15717988e+02
548             	3.15717994e+02
549             	3.15718018e+02
550             	3.15718054e+02
551             	3.15718134e+02
552             	3.15718267e+02
553             	3.15718442e+02
554             	3.15718642e+02
555             	3.15718834e+02
556             	3.15719017e+02
557             	3.15719136e+02
558             	3.15719247e+02
559             	3.15719304e+02
560             	3.15719359e+02
561             	3.15719449e+02
562             	3.15719575e+02
563             	3.15719746e+02
564             	3.15719966e+02
565             	3.15720199e+02
566             	3.15720451e+02
567             	3.15720676e+02
568             	3.15720868e+02
569             	3.15721027e+02
570             	3.15721133e+02
571             	3.15721182e+02
572             	3.15721171e+02
573             	3.15721101e+02
574             	3.15720972e+02
575             	3.15720895e+02
576             	3.15720807e+02
577             	3.15720645e+02
578             	3.15720422e+02
579             	3.15720148e+02
580             	3.15719830e+02
581             	3.15719476e+02
582             	3.15719110e+02
583             	3.15718761e+02
584             	3.15718122e+02
585             	3.15717491e+02
586             	3.15716801e+02
587             	3.15716163e+02
588             	3.15715722e+02
589             	3.15715520e+02
590             	3.15715488e+02
591             	3.15715667e+02
592             	3.15716109e+02
593             	3.15716597e+02
594             	3.15717010e+02
595             	3.15717300e+02
596             	3.15717492e+02
597             	3.15717585e+02
598             	3.15717642e+02
599             	3.15717638e+02
600             	3.15717645e+02
601             	3.15717675e+02
602             	3.15717713e+02
603             	3.15717733e+02
604             	3.15717629e+02
605             	3.15717486e+02
606             	3.15717365e+02
607             	3.15717294e+02
608             	3.15717276e+02
609             	3.15717214e+02
610             	3.15717129e+02
611             	3.15717091e+02
612             	3.15717056e+02
613             	3.15716988e+02
614             	3.15716867e+02
615             	3.15716933e+02
616             	3.15716986e+02
617             	3.15716987e+02
618             	3.15716968e+02
619             	3.15716918e+02
620             	3.15716784e+02
621             	3.15716487e+02
