# Region        : cellZone component_0
# Cells         : 345
# Volume        : 6.39423998e-01
# Time          	volAverage(T)
1               	3.00417361e+02
2               	3.00829779e+02
3               	3.01227523e+02
4               	3.01617088e+02
5               	3.02001942e+02
6               	3.02383464e+02
7               	3.02762517e+02
8               	3.03140259e+02
9               	3.03516509e+02
10              	3.03891741e+02
11              	3.04265508e+02
12              	3.04638155e+02
13              	3.05009825e+02
14              	3.05380833e+02
15              	3.05750374e+02
16              	3.06119226e+02
17              	3.06487510e+02
18              	3.06855384e+02
19              	3.07222679e+02
20              	3.07588773e+02
21              	3.07954765e+02
22              	3.08318465e+02
23              	3.08679657e+02
24              	3.09037863e+02
25              	3.09393289e+02
26              	3.09746445e+02
27              	3.10097647e+02
28              	3.10446443e+02
29              	3.10794929e+02
30              	3.11141883e+02
31              	3.11487444e+02
32              	3.11830204e+02
33              	3.12170336e+02
34              	3.12506536e+02
35              	3.12835043e+02
36              	3.13160105e+02
37              	3.13483618e+02
38              	3.13809689e+02
39              	3.14133834e+02
40              	3.14455077e+02
41              	3.14773574e+02
42              	3.15087612e+02
43              	3.15399490e+02
44              	3.15710227e+02
45              	3.16020993e+02
46              	3.16333710e+02
47              	3.16647800e+02
48              	3.16958109e+02
49              	3.17262925e+02
50              	3.17564901e+02
51              	3.17864218e+02
52              	3.18162676e+02
53              	3.18459342e+02
54              	3.18754269e+02
55              	3.19046398e+02
56              	3.19335824e+02
57              	3.19622099e+02
58              	3.19906273e+02
59              	3.20189402e+02
60              	3.20472705e+02
61              	3.20757186e+02
62              	3.21041118e+02
63              	3.21327296e+02
64              	3.21612733e+02
65              	3.21898640e+02
66              	3.22183305e+02
67              	3.22466267e+02
68              	3.22745541e+02
69              	3.23022731e+02
70              	3.23295570e+02
71              	3.23565642e+02
72              	3.23833461e+02
73              	3.24099327e+02
74              	3.24362213e+02
75              	3.24624296e+02
76              	3.24886421e+02
77              	3.25148065e+02
78              	3.25408707e+02
79              	3.25667092e+02
80              	3.25925863e+02
81              	3.26182436e+02
82              	3.26435812e+02
83              	3.26685771e+02
84              	3.26932287e+02
85              	3.27176236e+02
86              	3.27416106e+02
87              	3.27654736e+02
88              	3.27890832e+02
89              	3.28124579e+02
90              	3.28355952e+02
91              	3.28585010e+02
92              	3.28811460e+02
93              	3.29037686e+02
94              	3.29263220e+02
95              	3.29488950e+02
96              	3.29714125e+02
97              	3.29938916e+02
98              	3.30162853e+02
99              	3.30384945e+02
100             	3.30604825e+02
101             	3.30821926e+02
102             	3.31036158e+02
103             	3.31248109e+02
104             	3.31457785e+02
105             	3.31665400e+02
106             	3.31871261e+02
107             	3.32074968e+02
108             	3.32276633e+02
109             	3.32476621e+02
110             	3.32675563e+02
111             	3.32873211e+02
112             	3.33069563e+02
113             	3.33264627e+02
114             	3.33458328e+02
115             	3.33650632e+02
116             	3.33841445e+02
117             	3.34030893e+02
118             	3.34218943e+02
119             	3.34405226e+02
120             	3.34589862e+02
121             	3.34772768e+02
122             	3.34953724e+02
123             	3.35132564e+02
124             	3.35309493e+02
125             	3.35484538e+02
126             	3.35657937e+02
127             	3.35829832e+02
128             	3.36000359e+02
129             	3.36169497e+02
130             	3.36337149e+02
131             	3.36503300e+02
132             	3.36667986e+02
133             	3.36831227e+02
134             	3.36992988e+02
135             	3.37153260e+02
136             	3.37312337e+02
137             	3.37470313e+02
138             	3.37627123e+02
139             	3.37782723e+02
140             	3.37937052e+02
141             	3.38089939e+02
142             	3.38241540e+02
143             	3.38391965e+02
144             	3.38541430e+02
145             	3.38689901e+02
146             	3.38837399e+02
147             	3.38983270e+02
148             	3.39127993e+02
149             	3.39271161e+02
150             	3.39412888e+02
151             	3.39553064e+02
152             	3.39691747e+02
153             	3.39829015e+02
154             	3.39964880e+02
155             	3.40099657e+02
156             	3.40233330e+02
157             	3.40366029e+02
158             	3.40497762e+02
159             	3.40628589e+02
160             	3.40758497e+02
161             	3.40887467e+02
162             	3.41015508e+02
163             	3.41142508e+02
164             	3.41268325e+02
165             	3.41392981e+02
166             	3.41516436e+02
167             	3.41638596e+02
168             	3.41759644e+02
169             	3.41879542e+02
170             	3.41998361e+02
171             	3.42116093e+02
172             	3.42232858e+02
173             	3.42348550e+02
174             	3.42463316e+02
175             	3.42577217e+02
176             	3.42690385e+02
177             	3.42802764e+02
178             	3.42914355e+02
179             	3.43025102e+02
180             	3.43134972e+02
181             	3.43243862e+02
182             	3.43351778e+02
183             	3.43458626e+02
184             	3.43564347e+02
185             	3.43669134e+02
186             	3.43772970e+02
187             	3.43875905e+02
188             	3.43978059e+02
189             	3.44079356e+02
190             	3.44179759e+02
191             	3.44279311e+02
192             	3.44377966e+02
193             	3.44475732e+02
194             	3.44572614e+02
195             	3.44668754e+02
196             	3.44764240e+02
197             	3.44859067e+02
198             	3.44953273e+02
199             	3.45046842e+02
200             	3.45139675e+02
201             	3.45231700e+02
202             	3.45322817e+02
203             	3.45413143e+02
204             	3.45502581e+02
205             	3.45591118e+02
206             	3.45678925e+02
207             	3.45765933e+02
208             	3.45852217e+02
209             	3.45937798e+02
210             	3.46022858e+02
211             	3.46107289e+02
212             	3.46191118e+02
213             	3.46274343e+02
214             	3.46356944e+02
215             	3.46438914e+02
216             	3.46520225e+02
217             	3.46600888e+02
218             	3.46680843e+02
219             	3.46760076e+02
220             	3.46838621e+02
221             	3.46916481e+02
222             	3.46993565e+02
223             	3.47070101e+02
224             	3.47145980e+02
225             	3.47221227e+02
226             	3.47295931e+02
227             	3.47370033e+02
228             	3.47443584e+02
229             	3.47516564e+02
230             	3.47588979e+02
231             	3.47660856e+02
232             	3.47732165e+02
233             	3.47802951e+02
234             	3.47873202e+02
235             	3.47942927e+02
236             	3.48012126e+02
237             	3.48080798e+02
238             	3.48148942e+02
239             	3.48216556e+02
240             	3.48283626e+02
241             	3.48350139e+02
242             	3.48416128e+02
243             	3.48481595e+02
244             	3.48546426e+02
245             	3.48610862e+02
246             	3.48674776e+02
247             	3.48738211e+02
248             	3.48801075e+02
249             	3.48863530e+02
250             	3.48925472e+02
251             	3.48986923e+02
252             	3.49047884e+02
253             	3.49108365e+02
254             	3.49168372e+02
255             	3.49227908e+02
256             	3.49286987e+02
257             	3.49345632e+02
258             	3.49403883e+02
259             	3.49461732e+02
260             	3.49519189e+02
261             	3.49576244e+02
262             	3.49632903e+02
263             	3.49689161e+02
264             	3.49745010e+02
265             	3.49800452e+02
266             	3.49855483e+02
267             	3.49910109e+02
268             	3.49964318e+02
269             	3.50018125e+02
270             	3.50071514e+02
271             	3.50124511e+02
272             	3.50177102e+02
273             	3.50229304e+02
274             	3.50281112e+02
275             	3.50332533e+02
276             	3.50383563e+02
277             	3.50434210e+02
278             	3.50484475e+02
279             	3.50534357e+02
280             	3.50583874e+02
281             	3.50633027e+02
282             	3.50681820e+02
283             	3.50730269e+02
284             	3.50778388e+02
285             	3.50826179e+02
286             	3.50873657e+02
287             	3.50920814e+02
288             	3.50967664e+02
289             	3.51014201e+02
290             	3.51060420e+02
291             	3.51106337e+02
292             	3.51151936e+02
293             	3.51197237e+02
294             	3.51242230e+02
295             	3.51286918e+02
296             	3.51331300e+02
297             	3.51375381e+02
298             	3.51419157e+02
299             	3.51462630e+02
300             	3.51505785e+02
301             	3.51548613e+02
302             	3.51591120e+02
303             	3.51633307e+02
304             	3.51675179e+02
305             	3.51716751e+02
306             	3.51758044e+02
307             	3.51799068e+02
308             	3.51839828e+02
309             	3.51880329e+02
310             	3.51920577e+02
311             	3.51960559e+02
312             	3.52000275e+02
313             	3.52039718e+02
314             	3.52078898e+02
315             	3.52117817e+02
316             	3.52156485e+02
317             	3.52194905e+02
318             	3.52233078e+02
319             	3.52271007e+02
320             	3.52308692e+02
321             	3.52346138e+02
322             	3.52383347e+02
323             	3.52420320e+02
324             	3.52457055e+02
325             	3.52493558e+02
326             	3.52529833e+02
327             	3.52565874e+02
328             	3.52601688e+02
329             	3.52637275e+02
330             	3.52672639e+02
331             	3.52707775e+02
332             	3.52742689e+02
333             	3.52777380e+02
334             	3.52811857e+02
335             	3.52846115e+02
336             	3.52880155e+02
337             	3.52913983e+02
338             	3.52947600e+02
339             	3.52981002e+02
340             	3.53014190e+02
341             	3.53047169e+02
342             	3.53079936e+02
343             	3.53112489e+02
344             	3.53144828e+02
345             	3.53176956e+02
346             	3.53208888e+02
347             	3.53240622e+02
348             	3.53272158e+02
349             	3.53303503e+02
350             	3.53334660e+02
351             	3.53365635e+02
352             	3.53396427e+02
353             	3.53427042e+02
354             	3.53457490e+02
355             	3.53487765e+02
356             	3.53517870e+02
357             	3.53547801e+02
358             	3.53577563e+02
359             	3.53607160e+02
360             	3.53636590e+02
361             	3.53665854e+02
362             	3.53694950e+02
363             	3.53723884e+02
364             	3.53752650e+02
365             	3.53781252e+02
366             	3.53809678e+02
367             	3.53837939e+02
368             	3.53866041e+02
369             	3.53893982e+02
370             	3.53921764e+02
371             	3.53949389e+02
372             	3.53976859e+02
373             	3.54004170e+02
374             	3.54031330e+02
375             	3.54058337e+02
376             	3.54085196e+02
377             	3.54111907e+02
378             	3.54138471e+02
379             	3.54164887e+02
380             	3.54191154e+02
381             	3.54217268e+02
382             	3.54243231e+02
383             	3.54269039e+02
384             	3.54294697e+02
385             	3.54320212e+02
386             	3.54345580e+02
387             	3.54370804e+02
388             	3.54395887e+02
389             	3.54420830e+02
390             	3.54445637e+02
391             	3.54470313e+02
392             	3.54494859e+02
393             	3.54519274e+02
394             	3.54543565e+02
395             	3.54567730e+02
396             	3.54591781e+02
397             	3.54615716e+02
398             	3.54639537e+02
399             	3.54663242e+02
400             	3.54686831e+02
401             	3.54710299e+02
402             	3.54733645e+02
403             	3.54756864e+02
404             	3.54779954e+02
405             	3.54802914e+02
406             	3.54825744e+02
407             	3.54848448e+02
408             	3.54871033e+02
409             	3.54893503e+02
410             	3.54915867e+02
411             	3.54938122e+02
412             	3.54960274e+02
413             	3.54982317e+02
414             	3.55004256e+02
415             	3.55026088e+02
416             	3.55047810e+02
417             	3.55069427e+02
418             	3.55090926e+02
419             	3.55112308e+02
420             	3.55133576e+02
421             	3.55154734e+02
422             	3.55175783e+02
423             	3.55196728e+02
424             	3.55217580e+02
425             	3.55238336e+02
426             	3.55258999e+02
427             	3.55279561e+02
428             	3.55300027e+02
429             	3.55320389e+02
430             	3.55340650e+02
431             	3.55360806e+02
432             	3.55380857e+02
433             	3.55400804e+02
434             	3.55420650e+02
435             	3.55440396e+02
436             	3.55460043e+02
437             	3.55479591e+02
438             	3.55499045e+02
439             	3.55518407e+02
440             	3.55537681e+02
441             	3.55556866e+02
442             	3.55575965e+02
443             	3.55594972e+02
444             	3.55613899e+02
445             	3.55632741e+02
446             	3.55651502e+02
447             	3.55670184e+02
448             	3.55688788e+02
449             	3.55707312e+02
450             	3.55725760e+02
451             	3.55744128e+02
452             	3.55762417e+02
453             	3.55780627e+02
454             	3.55798758e+02
455             	3.55816809e+02
456             	3.55834781e+02
457             	3.55852669e+02
458             	3.55870476e+02
459             	3.55888199e+02
460             	3.55905840e+02
461             	3.55923395e+02
462             	3.55940869e+02
463             	3.55958263e+02
464             	3.55975580e+02
465             	3.55992820e+02
466             	3.56009984e+02
467             	3.56027071e+02
468             	3.56044086e+02
469             	3.56061028e+02
470             	3.56077895e+02
471             	3.56094687e+02
472             	3.56111405e+02
473             	3.56128050e+02
474             	3.56144626e+02
475             	3.56161134e+02
476             	3.56177578e+02
477             	3.56193955e+02
478             	3.56210265e+02
479             	3.56226507e+02
480             	3.56242683e+02
481             	3.56258792e+02
482             	3.56274838e+02
483             	3.56290816e+02
484             	3.56306730e+02
485             	3.56322578e+02
486             	3.56338362e+02
487             	3.56354082e+02
488             	3.56369743e+02
489             	3.56385343e+02
490             	3.56400884e+02
491             	3.56416362e+02
492             	3.56431782e+02
493             	3.56447136e+02
494             	3.56462427e+02
495             	3.56477651e+02
496             	3.56492807e+02
497             	3.56507895e+02
498             	3.56522920e+02
499             	3.56537879e+02
500             	3.56552776e+02
501             	3.56567614e+02
502             	3.56582398e+02
503             	3.56597124e+02
504             	3.56611802e+02
505             	3.56626427e+02
506             	3.56641005e+02
507             	3.56655533e+02
508             	3.56670017e+02
509             	3.56684452e+02
510             	3.56698839e+02
511             	3.56713179e+02
512             	3.56727469e+02
513             	3.56741707e+02
514             	3.56755893e+02
515             	3.56770029e+02
516             	3.56784115e+02
517             	3.56798148e+02
518             	3.56812133e+02
519             	3.56826064e+02
520             	3.56839947e+02
521             	3.56853780e+02
522             	3.56867564e+02
523             	3.56881298e+02
524             	3.56894982e+02
525             	3.56908616e+02
526             	3.56922203e+02
527             	3.56935741e+02
528             	3.56949232e+02
529             	3.56962674e+02
530             	3.56976068e+02
531             	3.56989414e+02
532             	3.57002715e+02
533             	3.57015969e+02
534             	3.57029179e+02
535             	3.57042343e+02
536             	3.57055463e+02
537             	3.57068536e+02
538             	3.57081566e+02
539             	3.57094550e+02
540             	3.57107494e+02
541             	3.57120396e+02
542             	3.57133257e+02
543             	3.57146076e+02
544             	3.57158857e+02
545             	3.57171597e+02
546             	3.57184300e+02
547             	3.57196961e+02
548             	3.57209589e+02
549             	3.57222178e+02
550             	3.57234731e+02
551             	3.57247245e+02
552             	3.57259722e+02
553             	3.57272161e+02
554             	3.57284563e+02
555             	3.57296928e+02
556             	3.57309259e+02
557             	3.57321553e+02
558             	3.57333815e+02
559             	3.57346043e+02
560             	3.57358239e+02
561             	3.57370398e+02
562             	3.57382526e+02
563             	3.57394619e+02
564             	3.57406679e+02
565             	3.57418704e+02
566             	3.57430694e+02
567             	3.57442649e+02
568             	3.57454570e+02
569             	3.57466456e+02
570             	3.57478310e+02
571             	3.57490131e+02
572             	3.57501920e+02
573             	3.57513678e+02
574             	3.57525405e+02
575             	3.57537101e+02
576             	3.57548766e+02
577             	3.57560401e+02
578             	3.57572007e+02
579             	3.57583582e+02
580             	3.57595130e+02
581             	3.57606640e+02
582             	3.57618128e+02
583             	3.57629587e+02
584             	3.57641019e+02
585             	3.57652421e+02
586             	3.57663798e+02
587             	3.57675146e+02
588             	3.57686466e+02
589             	3.57697759e+02
590             	3.57709025e+02
591             	3.57720266e+02
592             	3.57731482e+02
593             	3.57742672e+02
594             	3.57753838e+02
595             	3.57764977e+02
596             	3.57776092e+02
597             	3.57787179e+02
598             	3.57798241e+02
599             	3.57809277e+02
600             	3.57820288e+02
601             	3.57831272e+02
602             	3.57842230e+02
603             	3.57853162e+02
604             	3.57864070e+02
605             	3.57874953e+02
606             	3.57885812e+02
607             	3.57896646e+02
608             	3.57907456e+02
609             	3.57918239e+02
610             	3.57928999e+02
611             	3.57939734e+02
612             	3.57950446e+02
613             	3.57961132e+02
614             	3.57971797e+02
615             	3.57982439e+02
616             	3.57993059e+02
617             	3.58003655e+02
618             	3.58014228e+02
619             	3.58024781e+02
620             	3.58035322e+02
621             	3.58045850e+02
