# Region        : cellZone pcb
# Cells         : 492
# Volume        : 9.65419468e-01
# Time          	volAverage(T)
1               	3.00007599e+02
2               	3.00022337e+02
3               	3.00043172e+02
4               	3.00069571e+02
5               	3.00100026e+02
6               	3.00134878e+02
7               	3.00174113e+02
8               	3.00216520e+02
9               	3.00262608e+02
10              	3.00312947e+02
11              	3.00366044e+02
12              	3.00421985e+02
13              	3.00480446e+02
14              	3.00541512e+02
15              	3.00604756e+02
16              	3.00669918e+02
17              	3.00736779e+02
18              	3.00805079e+02
19              	3.00874595e+02
20              	3.00945861e+02
21              	3.01018375e+02
22              	3.01091891e+02
23              	3.01166703e+02
24              	3.01242489e+02
25              	3.01320263e+02
26              	3.01397283e+02
27              	3.01475227e+02
28              	3.01554755e+02
29              	3.01635711e+02
30              	3.01716464e+02
31              	3.01798193e+02
32              	3.01881098e+02
33              	3.01963275e+02
34              	3.02045639e+02
35              	3.02128398e+02
36              	3.02210413e+02
37              	3.02291575e+02
38              	3.02369902e+02
39              	3.02449862e+02
40              	3.02529882e+02
41              	3.02608927e+02
42              	3.02688026e+02
43              	3.02766951e+02
44              	3.02846951e+02
45              	3.02927159e+02
46              	3.03006294e+02
47              	3.03082957e+02
48              	3.03158326e+02
49              	3.03233683e+02
50              	3.03309183e+02
51              	3.03384364e+02
52              	3.03458558e+02
53              	3.03532674e+02
54              	3.03607025e+02
55              	3.03681779e+02
56              	3.03755095e+02
57              	3.03826567e+02
58              	3.03896863e+02
59              	3.03967463e+02
60              	3.04036015e+02
61              	3.04105139e+02
62              	3.04173427e+02
63              	3.04239905e+02
64              	3.04305282e+02
65              	3.04370252e+02
66              	3.04434675e+02
67              	3.04498721e+02
68              	3.04562815e+02
69              	3.04626548e+02
70              	3.04689384e+02
71              	3.04750993e+02
72              	3.04813206e+02
73              	3.04875665e+02
74              	3.04936051e+02
75              	3.04993985e+02
76              	3.05051138e+02
77              	3.05107867e+02
78              	3.05164215e+02
79              	3.05219775e+02
80              	3.05277270e+02
81              	3.05333503e+02
82              	3.05388223e+02
83              	3.05441955e+02
84              	3.05494869e+02
85              	3.05547613e+02
86              	3.05600618e+02
87              	3.05652578e+02
88              	3.05704549e+02
89              	3.05756151e+02
90              	3.05807541e+02
91              	3.05859062e+02
92              	3.05911571e+02
93              	3.05964647e+02
94              	3.06018410e+02
95              	3.06072405e+02
96              	3.06124178e+02
97              	3.06173084e+02
98              	3.06221379e+02
99              	3.06269287e+02
100             	3.06316765e+02
101             	3.06363945e+02
102             	3.06410604e+02
103             	3.06457168e+02
104             	3.06503900e+02
105             	3.06551054e+02
106             	3.06596556e+02
107             	3.06643390e+02
108             	3.06687539e+02
109             	3.06731449e+02
110             	3.06774561e+02
111             	3.06817168e+02
112             	3.06859437e+02
113             	3.06901729e+02
114             	3.06944050e+02
115             	3.06986252e+02
116             	3.07028984e+02
117             	3.07072374e+02
118             	3.07115199e+02
119             	3.07157663e+02
120             	3.07199630e+02
121             	3.07241629e+02
122             	3.07284896e+02
123             	3.07324665e+02
124             	3.07362422e+02
125             	3.07398841e+02
126             	3.07436896e+02
127             	3.07473156e+02
128             	3.07508245e+02
129             	3.07542584e+02
130             	3.07577123e+02
131             	3.07611631e+02
132             	3.07645745e+02
133             	3.07680855e+02
134             	3.07716843e+02
135             	3.07753195e+02
136             	3.07789897e+02
137             	3.07824999e+02
138             	3.07858917e+02
139             	3.07892414e+02
140             	3.07925214e+02
141             	3.07957076e+02
142             	3.07988230e+02
143             	3.08018705e+02
144             	3.08048949e+02
145             	3.08080522e+02
146             	3.08110841e+02
147             	3.08140275e+02
148             	3.08169584e+02
149             	3.08199101e+02
150             	3.08228439e+02
151             	3.08257058e+02
152             	3.08285468e+02
153             	3.08314253e+02
154             	3.08342820e+02
155             	3.08371492e+02
156             	3.08399700e+02
157             	3.08427517e+02
158             	3.08455983e+02
159             	3.08483614e+02
160             	3.08508680e+02
161             	3.08534109e+02
162             	3.08557912e+02
163             	3.08581232e+02
164             	3.08604117e+02
165             	3.08627274e+02
166             	3.08652217e+02
167             	3.08676804e+02
168             	3.08700623e+02
169             	3.08723367e+02
170             	3.08747046e+02
171             	3.08771959e+02
172             	3.08796453e+02
173             	3.08819394e+02
174             	3.08841045e+02
175             	3.08863199e+02
176             	3.08884992e+02
177             	3.08905044e+02
178             	3.08924533e+02
179             	3.08942443e+02
180             	3.08960865e+02
181             	3.08978515e+02
182             	3.08995453e+02
183             	3.09014651e+02
184             	3.09035230e+02
185             	3.09054327e+02
186             	3.09073995e+02
187             	3.09093994e+02
188             	3.09113227e+02
189             	3.09131501e+02
190             	3.09147563e+02
191             	3.09162707e+02
192             	3.09177365e+02
193             	3.09191918e+02
194             	3.09206667e+02
195             	3.09221555e+02
196             	3.09236810e+02
197             	3.09252295e+02
198             	3.09267856e+02
199             	3.09283104e+02
200             	3.09298347e+02
201             	3.09313901e+02
202             	3.09329600e+02
203             	3.09344806e+02
204             	3.09359905e+02
205             	3.09374792e+02
206             	3.09390191e+02
207             	3.09405344e+02
208             	3.09419633e+02
209             	3.09433624e+02
210             	3.09448759e+02
211             	3.09462330e+02
212             	3.09474420e+02
213             	3.09486381e+02
214             	3.09498639e+02
215             	3.09510561e+02
216             	3.09522674e+02
217             	3.09535356e+02
218             	3.09547927e+02
219             	3.09559749e+02
220             	3.09571592e+02
221             	3.09583639e+02
222             	3.09595558e+02
223             	3.09607803e+02
224             	3.09619868e+02
225             	3.09631557e+02
226             	3.09643151e+02
227             	3.09654843e+02
228             	3.09666121e+02
229             	3.09675355e+02
230             	3.09683369e+02
231             	3.09691080e+02
232             	3.09698863e+02
233             	3.09706417e+02
234             	3.09714253e+02
235             	3.09722216e+02
236             	3.09730394e+02
237             	3.09738781e+02
238             	3.09747286e+02
239             	3.09756532e+02
240             	3.09766946e+02
241             	3.09777034e+02
242             	3.09787125e+02
243             	3.09796908e+02
244             	3.09806591e+02
245             	3.09814880e+02
246             	3.09822093e+02
247             	3.09829097e+02
248             	3.09835972e+02
249             	3.09842886e+02
250             	3.09849816e+02
251             	3.09856700e+02
252             	3.09863887e+02
253             	3.09872075e+02
254             	3.09880735e+02
255             	3.09888061e+02
256             	3.09894725e+02
257             	3.09901397e+02
258             	3.09908132e+02
259             	3.09915064e+02
260             	3.09922011e+02
261             	3.09929425e+02
262             	3.09937110e+02
263             	3.09945264e+02
264             	3.09953677e+02
265             	3.09961553e+02
266             	3.09969410e+02
267             	3.09975697e+02
268             	3.09981026e+02
269             	3.09986055e+02
270             	3.09990949e+02
271             	3.09995991e+02
272             	3.10001230e+02
273             	3.10006809e+02
274             	3.10012631e+02
275             	3.10019049e+02
276             	3.10025482e+02
277             	3.10032017e+02
278             	3.10038098e+02
279             	3.10044123e+02
280             	3.10049809e+02
281             	3.10055669e+02
282             	3.10061440e+02
283             	3.10067090e+02
284             	3.10072654e+02
285             	3.10077945e+02
286             	3.10083384e+02
287             	3.10088619e+02
288             	3.10093516e+02
289             	3.10098171e+02
290             	3.10102609e+02
291             	3.10106898e+02
292             	3.10111256e+02
293             	3.10115741e+02
294             	3.10120386e+02
295             	3.10125250e+02
296             	3.10130437e+02
297             	3.10135635e+02
298             	3.10140672e+02
299             	3.10146555e+02
300             	3.10152730e+02
301             	3.10158497e+02
302             	3.10163686e+02
303             	3.10168430e+02
304             	3.10172707e+02
305             	3.10177455e+02
306             	3.10181145e+02
307             	3.10184682e+02
308             	3.10188236e+02
309             	3.10191907e+02
310             	3.10195791e+02
311             	3.10199978e+02
312             	3.10204476e+02
313             	3.10208694e+02
314             	3.10212968e+02
315             	3.10217306e+02
316             	3.10221523e+02
317             	3.10225588e+02
318             	3.10229465e+02
319             	3.10233077e+02
320             	3.10236335e+02
321             	3.10239215e+02
322             	3.10242131e+02
323             	3.10244653e+02
324             	3.10246951e+02
325             	3.10249287e+02
326             	3.10251788e+02
327             	3.10254388e+02
328             	3.10257141e+02
329             	3.10260066e+02
330             	3.10263260e+02
331             	3.10266531e+02
332             	3.10269900e+02
333             	3.10273219e+02
334             	3.10276156e+02
335             	3.10279484e+02
336             	3.10282928e+02
337             	3.10286325e+02
338             	3.10289629e+02
339             	3.10292763e+02
340             	3.10295779e+02
341             	3.10298769e+02
342             	3.10301699e+02
343             	3.10303790e+02
344             	3.10305640e+02
345             	3.10307544e+02
346             	3.10309585e+02
347             	3.10311862e+02
348             	3.10314700e+02
349             	3.10317952e+02
350             	3.10321210e+02
351             	3.10324319e+02
352             	3.10327215e+02
353             	3.10330223e+02
354             	3.10333530e+02
355             	3.10336071e+02
356             	3.10338411e+02
357             	3.10340494e+02
358             	3.10342312e+02
359             	3.10343758e+02
360             	3.10345239e+02
361             	3.10346833e+02
362             	3.10348513e+02
363             	3.10350083e+02
364             	3.10351970e+02
365             	3.10354339e+02
366             	3.10356763e+02
367             	3.10359154e+02
368             	3.10361596e+02
369             	3.10363826e+02
370             	3.10365503e+02
371             	3.10366794e+02
372             	3.10367725e+02
373             	3.10368518e+02
374             	3.10369278e+02
375             	3.10369932e+02
376             	3.10370636e+02
377             	3.10371454e+02
378             	3.10372509e+02
379             	3.10373727e+02
380             	3.10375038e+02
381             	3.10376371e+02
382             	3.10377826e+02
383             	3.10379371e+02
384             	3.10380981e+02
385             	3.10382958e+02
386             	3.10384876e+02
387             	3.10386740e+02
388             	3.10388770e+02
389             	3.10390705e+02
390             	3.10392665e+02
391             	3.10394277e+02
392             	3.10395477e+02
393             	3.10396644e+02
394             	3.10397821e+02
395             	3.10398940e+02
396             	3.10400053e+02
397             	3.10401400e+02
398             	3.10402645e+02
399             	3.10404091e+02
400             	3.10406446e+02
401             	3.10408458e+02
402             	3.10410251e+02
403             	3.10410848e+02
404             	3.10410970e+02
405             	3.10410816e+02
406             	3.10410549e+02
407             	3.10410690e+02
408             	3.10410679e+02
409             	3.10410779e+02
410             	3.10411056e+02
411             	3.10411616e+02
412             	3.10412781e+02
413             	3.10413999e+02
414             	3.10415382e+02
415             	3.10417839e+02
416             	3.10420140e+02
417             	3.10421096e+02
418             	3.10421517e+02
419             	3.10421859e+02
420             	3.10422198e+02
421             	3.10422593e+02
422             	3.10423206e+02
423             	3.10423955e+02
424             	3.10424790e+02
425             	3.10425650e+02
426             	3.10426504e+02
427             	3.10427166e+02
428             	3.10427826e+02
429             	3.10428053e+02
430             	3.10428470e+02
431             	3.10428656e+02
432             	3.10428837e+02
433             	3.10429151e+02
434             	3.10429585e+02
435             	3.10430140e+02
436             	3.10431253e+02
437             	3.10432719e+02
438             	3.10434350e+02
439             	3.10436062e+02
440             	3.10437837e+02
441             	3.10439082e+02
442             	3.10440107e+02
443             	3.10440996e+02
444             	3.10441835e+02
445             	3.10442635e+02
446             	3.10443556e+02
447             	3.10444561e+02
448             	3.10445764e+02
449             	3.10446968e+02
450             	3.10448219e+02
451             	3.10449211e+02
452             	3.10449900e+02
453             	3.10450492e+02
454             	3.10450802e+02
455             	3.10451060e+02
456             	3.10451341e+02
457             	3.10451684e+02
458             	3.10452193e+02
459             	3.10452673e+02
460             	3.10453231e+02
461             	3.10453853e+02
462             	3.10454603e+02
463             	3.10455303e+02
464             	3.10455989e+02
465             	3.10456200e+02
466             	3.10456339e+02
467             	3.10456567e+02
468             	3.10456887e+02
469             	3.10457312e+02
470             	3.10457861e+02
471             	3.10458653e+02
472             	3.10459518e+02
473             	3.10460499e+02
474             	3.10461507e+02
475             	3.10462386e+02
476             	3.10463280e+02
477             	3.10464202e+02
478             	3.10464995e+02
479             	3.10465726e+02
480             	3.10466398e+02
481             	3.10467094e+02
482             	3.10467789e+02
483             	3.10468411e+02
484             	3.10469228e+02
485             	3.10469903e+02
486             	3.10470767e+02
487             	3.10471715e+02
488             	3.10472680e+02
489             	3.10473612e+02
490             	3.10474586e+02
491             	3.10475209e+02
492             	3.10475777e+02
493             	3.10476287e+02
494             	3.10476785e+02
495             	3.10477335e+02
496             	3.10477965e+02
497             	3.10478684e+02
498             	3.10479504e+02
499             	3.10480462e+02
500             	3.10481439e+02
501             	3.10482193e+02
502             	3.10482710e+02
503             	3.10483461e+02
504             	3.10484291e+02
505             	3.10484899e+02
506             	3.10485281e+02
507             	3.10485698e+02
508             	3.10486453e+02
509             	3.10486710e+02
510             	3.10486645e+02
511             	3.10486529e+02
512             	3.10486450e+02
513             	3.10486427e+02
514             	3.10486477e+02
515             	3.10486662e+02
516             	3.10486861e+02
517             	3.10487345e+02
518             	3.10487977e+02
519             	3.10488610e+02
520             	3.10489191e+02
521             	3.10489774e+02
522             	3.10490267e+02
523             	3.10490661e+02
524             	3.10490917e+02
525             	3.10491117e+02
526             	3.10491153e+02
527             	3.10491118e+02
528             	3.10491089e+02
529             	3.10491314e+02
530             	3.10491598e+02
531             	3.10491768e+02
532             	3.10491961e+02
533             	3.10492296e+02
534             	3.10492755e+02
535             	3.10493214e+02
536             	3.10493907e+02
537             	3.10494663e+02
538             	3.10495452e+02
539             	3.10496240e+02
540             	3.10497016e+02
541             	3.10497657e+02
542             	3.10498188e+02
543             	3.10498639e+02
544             	3.10499005e+02
545             	3.10499265e+02
546             	3.10499387e+02
547             	3.10499434e+02
548             	3.10499427e+02
549             	3.10499425e+02
550             	3.10499353e+02
551             	3.10499365e+02
552             	3.10499246e+02
553             	3.10499155e+02
554             	3.10498976e+02
555             	3.10498905e+02
556             	3.10498899e+02
557             	3.10499078e+02
558             	3.10499271e+02
559             	3.10499565e+02
560             	3.10499900e+02
561             	3.10500310e+02
562             	3.10500891e+02
563             	3.10501679e+02
564             	3.10502510e+02
565             	3.10503302e+02
566             	3.10503986e+02
567             	3.10504467e+02
568             	3.10504744e+02
569             	3.10504864e+02
570             	3.10505114e+02
571             	3.10505136e+02
572             	3.10505110e+02
573             	3.10505082e+02
574             	3.10505107e+02
575             	3.10505244e+02
576             	3.10505528e+02
577             	3.10505928e+02
578             	3.10506307e+02
579             	3.10506829e+02
580             	3.10507291e+02
581             	3.10507635e+02
582             	3.10507916e+02
583             	3.10508163e+02
584             	3.10508338e+02
585             	3.10508454e+02
586             	3.10508564e+02
587             	3.10508665e+02
588             	3.10508864e+02
589             	3.10508989e+02
590             	3.10509137e+02
591             	3.10509375e+02
592             	3.10509629e+02
593             	3.10509868e+02
594             	3.10510025e+02
595             	3.10510248e+02
596             	3.10510491e+02
597             	3.10510691e+02
598             	3.10510865e+02
599             	3.10511018e+02
600             	3.10511100e+02
601             	3.10511152e+02
602             	3.10511213e+02
603             	3.10511226e+02
604             	3.10511135e+02
605             	3.10511026e+02
606             	3.10510937e+02
607             	3.10510864e+02
608             	3.10510810e+02
609             	3.10510790e+02
610             	3.10510841e+02
611             	3.10510972e+02
612             	3.10511127e+02
613             	3.10511320e+02
614             	3.10511510e+02
615             	3.10511683e+02
616             	3.10511871e+02
617             	3.10512222e+02
618             	3.10512557e+02
619             	3.10512959e+02
620             	3.10513390e+02
621             	3.10513865e+02
