# Region        : cellZone component_4
# Cells         : 815
# Volume        : 1.78355081e+00
# Time          	volAverage(T)
1               	3.00152542e+02
2               	3.00304432e+02
3               	3.00450231e+02
4               	3.00591514e+02
5               	3.00729568e+02
6               	3.00864917e+02
7               	3.00998143e+02
8               	3.01129389e+02
9               	3.01258533e+02
10              	3.01386918e+02
11              	3.01514211e+02
12              	3.01640879e+02
13              	3.01766796e+02
14              	3.01892211e+02
15              	3.02013463e+02
16              	3.02136720e+02
17              	3.02257876e+02
18              	3.02377663e+02
19              	3.02494949e+02
20              	3.02611147e+02
21              	3.02727929e+02
22              	3.02839936e+02
23              	3.02950253e+02
24              	3.03057079e+02
25              	3.03164510e+02
26              	3.03272017e+02
27              	3.03378070e+02
28              	3.03483799e+02
29              	3.03589129e+02
30              	3.03690727e+02
31              	3.03792547e+02
32              	3.03894371e+02
33              	3.03994209e+02
34              	3.04095215e+02
35              	3.04193242e+02
36              	3.04289189e+02
37              	3.04381160e+02
38              	3.04473904e+02
39              	3.04564965e+02
40              	3.04654513e+02
41              	3.04742677e+02
42              	3.04830346e+02
43              	3.04915239e+02
44              	3.04999648e+02
45              	3.05084224e+02
46              	3.05168514e+02
47              	3.05253019e+02
48              	3.05335331e+02
49              	3.05417002e+02
50              	3.05494866e+02
51              	3.05572869e+02
52              	3.05648165e+02
53              	3.05721036e+02
54              	3.05792349e+02
55              	3.05861036e+02
56              	3.05929588e+02
57              	3.05998201e+02
58              	3.06068514e+02
59              	3.06139475e+02
60              	3.06213099e+02
61              	3.06283154e+02
62              	3.06351563e+02
63              	3.06419798e+02
64              	3.06484561e+02
65              	3.06546927e+02
66              	3.06608602e+02
67              	3.06668976e+02
68              	3.06728083e+02
69              	3.06787858e+02
70              	3.06849537e+02
71              	3.06911137e+02
72              	3.06970467e+02
73              	3.07026492e+02
74              	3.07079391e+02
75              	3.07129784e+02
76              	3.07181299e+02
77              	3.07231482e+02
78              	3.07282355e+02
79              	3.07332532e+02
80              	3.07382389e+02
81              	3.07431038e+02
82              	3.07481069e+02
83              	3.07530931e+02
84              	3.07581096e+02
85              	3.07630467e+02
86              	3.07679906e+02
87              	3.07728435e+02
88              	3.07776000e+02
89              	3.07823196e+02
90              	3.07868996e+02
91              	3.07918121e+02
92              	3.07966038e+02
93              	3.08013775e+02
94              	3.08059967e+02
95              	3.08103937e+02
96              	3.08147358e+02
97              	3.08186663e+02
98              	3.08224816e+02
99              	3.08261643e+02
100             	3.08296417e+02
101             	3.08328996e+02
102             	3.08363598e+02
103             	3.08398266e+02
104             	3.08434677e+02
105             	3.08470593e+02
106             	3.08506433e+02
107             	3.08541461e+02
108             	3.08578561e+02
109             	3.08615939e+02
110             	3.08653032e+02
111             	3.08689490e+02
112             	3.08725634e+02
113             	3.08760358e+02
114             	3.08794971e+02
115             	3.08829126e+02
116             	3.08862853e+02
117             	3.08896639e+02
118             	3.08929916e+02
119             	3.08965897e+02
120             	3.09002029e+02
121             	3.09040429e+02
122             	3.09078243e+02
123             	3.09116282e+02
124             	3.09154206e+02
125             	3.09188618e+02
126             	3.09221672e+02
127             	3.09251577e+02
128             	3.09279831e+02
129             	3.09305203e+02
130             	3.09329796e+02
131             	3.09355302e+02
132             	3.09382479e+02
133             	3.09411703e+02
134             	3.09442746e+02
135             	3.09475469e+02
136             	3.09509609e+02
137             	3.09538423e+02
138             	3.09562502e+02
139             	3.09582944e+02
140             	3.09603990e+02
141             	3.09627502e+02
142             	3.09651397e+02
143             	3.09673940e+02
144             	3.09695633e+02
145             	3.09718583e+02
146             	3.09743236e+02
147             	3.09768524e+02
148             	3.09791332e+02
149             	3.09812530e+02
150             	3.09831786e+02
151             	3.09850031e+02
152             	3.09869606e+02
153             	3.09888813e+02
154             	3.09909498e+02
155             	3.09930709e+02
156             	3.09954884e+02
157             	3.09981212e+02
158             	3.10005730e+02
159             	3.10027229e+02
160             	3.10045535e+02
161             	3.10061846e+02
162             	3.10078493e+02
163             	3.10094982e+02
164             	3.10111512e+02
165             	3.10127481e+02
166             	3.10143399e+02
167             	3.10160770e+02
168             	3.10178714e+02
169             	3.10198343e+02
170             	3.10218708e+02
171             	3.10239018e+02
172             	3.10259087e+02
173             	3.10279186e+02
174             	3.10298216e+02
175             	3.10316502e+02
176             	3.10334732e+02
177             	3.10351949e+02
178             	3.10370024e+02
179             	3.10387622e+02
180             	3.10405821e+02
181             	3.10423461e+02
182             	3.10440993e+02
183             	3.10459743e+02
184             	3.10477624e+02
185             	3.10494963e+02
186             	3.10511597e+02
187             	3.10526908e+02
188             	3.10540710e+02
189             	3.10553802e+02
190             	3.10566747e+02
191             	3.10580239e+02
192             	3.10593676e+02
193             	3.10606858e+02
194             	3.10620281e+02
195             	3.10634806e+02
196             	3.10649501e+02
197             	3.10663978e+02
198             	3.10678137e+02
199             	3.10692658e+02
200             	3.10707703e+02
201             	3.10724899e+02
202             	3.10743279e+02
203             	3.10762738e+02
204             	3.10780327e+02
205             	3.10798770e+02
206             	3.10815571e+02
207             	3.10831117e+02
208             	3.10845415e+02
209             	3.10856967e+02
210             	3.10865729e+02
211             	3.10872433e+02
212             	3.10876581e+02
213             	3.10883437e+02
214             	3.10894889e+02
215             	3.10907245e+02
216             	3.10918699e+02
217             	3.10930722e+02
218             	3.10941489e+02
219             	3.10954314e+02
220             	3.10961837e+02
221             	3.10964374e+02
222             	3.10964930e+02
223             	3.10966843e+02
224             	3.10971517e+02
225             	3.10978854e+02
226             	3.10988365e+02
227             	3.10999374e+02
228             	3.11011401e+02
229             	3.11021739e+02
230             	3.11030111e+02
231             	3.11036040e+02
232             	3.11038822e+02
233             	3.11039932e+02
234             	3.11040673e+02
235             	3.11041072e+02
236             	3.11041293e+02
237             	3.11041229e+02
238             	3.11042334e+02
239             	3.11044887e+02
240             	3.11049416e+02
241             	3.11056386e+02
242             	3.11065631e+02
243             	3.11076788e+02
244             	3.11088673e+02
245             	3.11102479e+02
246             	3.11119236e+02
247             	3.11134930e+02
248             	3.11152652e+02
249             	3.11170201e+02
250             	3.11186576e+02
251             	3.11200996e+02
252             	3.11215813e+02
253             	3.11230848e+02
254             	3.11245077e+02
255             	3.11258983e+02
256             	3.11273820e+02
257             	3.11287675e+02
258             	3.11301667e+02
259             	3.11315207e+02
260             	3.11329666e+02
261             	3.11343539e+02
262             	3.11357057e+02
263             	3.11370084e+02
264             	3.11383782e+02
265             	3.11396300e+02
266             	3.11409191e+02
267             	3.11132215e+02
268             	3.11148809e+02
269             	3.08674753e+02
270             	3.08692135e+02
271             	3.05021286e+02
272             	4.55809522e+02
273             	2.50000000e+02
274             	2.65074843e+02
