# Region        : cellZone component_4
# Cells         : 104
# Volume        : 1.80025482e-01
# Time          	volAverage(T)
1               	3.00647781e+02
2               	3.01290608e+02
3               	3.01871723e+02
4               	3.02407519e+02
5               	3.02917532e+02
6               	3.03409766e+02
7               	3.03888609e+02
8               	3.04353568e+02
9               	3.04808094e+02
10              	3.05253788e+02
11              	3.05690822e+02
12              	3.06122060e+02
13              	3.06546919e+02
14              	3.06964667e+02
15              	3.07370273e+02
16              	3.07762638e+02
17              	3.08147333e+02
18              	3.08525161e+02
19              	3.08899194e+02
20              	3.09276732e+02
21              	3.09637503e+02
22              	3.09985816e+02
23              	3.10298799e+02
24              	3.10567365e+02
25              	3.10815842e+02
26              	3.11083182e+02
27              	3.11361040e+02
28              	3.11649872e+02
29              	3.11932644e+02
30              	3.12202817e+02
31              	3.12459798e+02
32              	3.12699628e+02
33              	3.12932183e+02
34              	3.13153094e+02
35              	3.13365786e+02
36              	3.13570235e+02
37              	3.13769481e+02
38              	3.13961491e+02
39              	3.14153734e+02
40              	3.14346389e+02
41              	3.14535196e+02
42              	3.14724680e+02
43              	3.14911922e+02
44              	3.15098209e+02
45              	3.15279002e+02
46              	3.15456548e+02
47              	3.15626321e+02
48              	3.15784176e+02
49              	3.15931055e+02
50              	3.16061579e+02
51              	3.16183360e+02
52              	3.16292970e+02
53              	3.16396984e+02
54              	3.16503747e+02
55              	3.16607055e+02
56              	3.16718551e+02
57              	3.16838188e+02
58              	3.16963636e+02
59              	3.17094051e+02
60              	3.17222962e+02
61              	3.17343538e+02
62              	3.17463064e+02
63              	3.17573084e+02
64              	3.17668740e+02
65              	3.17750407e+02
66              	3.17820887e+02
67              	3.17882823e+02
68              	3.17939101e+02
69              	3.17992025e+02
70              	3.18041900e+02
71              	3.18091008e+02
72              	3.18135207e+02
73              	3.18184062e+02
74              	3.18240368e+02
75              	3.18300786e+02
76              	3.18365960e+02
77              	3.18437105e+02
78              	3.18512805e+02
79              	3.18583962e+02
80              	3.18656358e+02
81              	3.18718551e+02
82              	3.18770841e+02
83              	3.18810447e+02
84              	3.18841396e+02
85              	3.18859186e+02
86              	3.18877365e+02
87              	3.18894812e+02
88              	3.18910893e+02
89              	3.18930028e+02
90              	3.18952909e+02
91              	3.18977205e+02
92              	3.19007872e+02
93              	3.19042094e+02
94              	3.19081769e+02
95              	3.19123079e+02
96              	3.19162892e+02
97              	3.19198215e+02
98              	3.19228834e+02
99              	3.19252704e+02
100             	3.19267850e+02
101             	3.19278085e+02
102             	3.19288811e+02
103             	3.19301694e+02
104             	3.19316067e+02
105             	3.19330461e+02
106             	3.19345345e+02
107             	3.19364210e+02
108             	3.19389572e+02
109             	3.19420172e+02
110             	3.19452674e+02
111             	3.19485999e+02
112             	3.19520657e+02
113             	3.19557619e+02
114             	3.19596717e+02
115             	3.19635634e+02
116             	3.19672680e+02
117             	3.19705929e+02
118             	3.19734522e+02
119             	3.19754842e+02
120             	3.19768042e+02
121             	3.19775226e+02
122             	3.19777552e+02
123             	3.19775425e+02
124             	3.19771753e+02
125             	3.19768511e+02
126             	3.19770078e+02
127             	3.19772320e+02
128             	3.19779695e+02
129             	3.19787842e+02
130             	3.19798744e+02
131             	3.19811538e+02
132             	3.19827429e+02
133             	3.19843380e+02
134             	3.19857458e+02
135             	3.19869108e+02
136             	3.19878832e+02
137             	3.19887310e+02
138             	3.19894632e+02
139             	3.19901368e+02
140             	3.19908687e+02
141             	3.19916905e+02
142             	3.19924698e+02
143             	3.19931993e+02
144             	3.19939024e+02
145             	3.19946005e+02
146             	3.19951755e+02
147             	3.19956765e+02
148             	3.19961776e+02
149             	3.19967375e+02
150             	3.19973418e+02
151             	3.19981135e+02
152             	3.19990651e+02
153             	3.20002200e+02
154             	3.20015655e+02
155             	3.20031165e+02
156             	3.20047660e+02
157             	3.20064330e+02
158             	3.20081270e+02
159             	3.20097476e+02
160             	3.20108990e+02
161             	3.20117918e+02
162             	3.20125007e+02
163             	3.20130710e+02
164             	3.20135748e+02
165             	3.20139883e+02
166             	3.20147385e+02
167             	3.20159174e+02
168             	3.20175619e+02
169             	3.20194625e+02
170             	3.20218134e+02
171             	3.20240750e+02
172             	3.20263777e+02
173             	3.20283900e+02
174             	3.20299648e+02
175             	3.20311491e+02
176             	3.20320806e+02
177             	3.20328949e+02
178             	3.20338494e+02
179             	3.20348506e+02
180             	3.20362688e+02
181             	3.20377779e+02
182             	3.20396353e+02
183             	3.20416970e+02
184             	3.20437022e+02
185             	3.20456804e+02
186             	3.20472885e+02
187             	3.20486176e+02
188             	3.20495424e+02
189             	3.20502221e+02
190             	3.20508942e+02
191             	3.20516630e+02
192             	3.20525732e+02
193             	3.20534355e+02
194             	3.20542817e+02
195             	3.20550977e+02
196             	3.20560023e+02
197             	3.20568122e+02
198             	3.20573684e+02
199             	3.20577411e+02
200             	3.20583293e+02
201             	3.20590688e+02
202             	3.20599408e+02
203             	3.20610058e+02
204             	3.20623768e+02
205             	3.20641963e+02
206             	3.20660581e+02
207             	3.20679673e+02
208             	3.20697059e+02
209             	3.20710846e+02
210             	3.20720954e+02
211             	3.20728300e+02
212             	3.20733213e+02
213             	3.20736987e+02
214             	3.20739445e+02
215             	3.20739572e+02
216             	3.20738377e+02
217             	3.20735437e+02
218             	3.20735279e+02
219             	3.20739054e+02
220             	3.20745822e+02
221             	3.20755545e+02
222             	3.20767750e+02
223             	3.20782353e+02
224             	3.20798798e+02
225             	3.20811838e+02
226             	3.20825703e+02
227             	3.20839377e+02
228             	3.20851687e+02
229             	3.20862738e+02
230             	3.20872784e+02
231             	3.20882611e+02
232             	3.20892078e+02
233             	3.20902666e+02
234             	3.20914898e+02
235             	3.20928592e+02
236             	3.20942268e+02
237             	3.20954931e+02
238             	3.20964764e+02
239             	3.20969772e+02
240             	3.20971632e+02
241             	3.20970952e+02
242             	3.20969903e+02
243             	3.20969686e+02
244             	3.20969751e+02
245             	3.20973731e+02
246             	3.20983062e+02
247             	3.20994056e+02
248             	3.21007776e+02
249             	3.21020794e+02
250             	3.21033367e+02
251             	3.21045086e+02
252             	3.21052698e+02
253             	3.21055633e+02
254             	3.21057507e+02
255             	3.21057997e+02
256             	3.21057330e+02
257             	3.21054043e+02
258             	3.21051120e+02
259             	3.21047636e+02
260             	3.21046138e+02
261             	3.21046507e+02
262             	3.21048495e+02
263             	3.21051960e+02
264             	3.21056660e+02
265             	3.21063567e+02
266             	3.21072587e+02
267             	3.21083103e+02
268             	3.21094357e+02
269             	3.21105614e+02
270             	3.21113818e+02
271             	3.21119079e+02
272             	3.21122368e+02
273             	3.21124502e+02
274             	3.21125780e+02
275             	3.21126414e+02
276             	3.21126820e+02
277             	3.21127002e+02
278             	3.21127295e+02
279             	3.21129128e+02
280             	3.21133522e+02
281             	3.21140236e+02
282             	3.21148869e+02
283             	3.21159112e+02
284             	3.21169845e+02
285             	3.21180154e+02
286             	3.21187966e+02
287             	3.21191466e+02
288             	3.21192007e+02
289             	3.21190675e+02
290             	3.21187931e+02
291             	3.21184467e+02
292             	3.21180040e+02
293             	3.21178063e+02
294             	3.21178931e+02
295             	3.21182895e+02
296             	3.21190041e+02
297             	3.21199766e+02
298             	3.21207201e+02
299             	3.21214750e+02
300             	3.21220403e+02
301             	3.21222425e+02
302             	3.21221072e+02
303             	3.21217657e+02
304             	3.21212289e+02
305             	3.21207723e+02
306             	3.21204473e+02
307             	3.21203051e+02
308             	3.21203685e+02
309             	3.21206406e+02
310             	3.21211081e+02
311             	3.21217613e+02
312             	3.21224311e+02
313             	3.21230622e+02
314             	3.21234956e+02
315             	3.21237362e+02
316             	3.21238198e+02
317             	3.21237608e+02
318             	3.21236726e+02
319             	3.21237372e+02
320             	3.21240059e+02
321             	3.21244909e+02
322             	3.21252083e+02
323             	3.21261199e+02
324             	3.21271470e+02
325             	3.21281355e+02
326             	3.21292115e+02
327             	3.21301393e+02
328             	3.21308615e+02
329             	3.21313791e+02
330             	3.21316894e+02
331             	3.21318021e+02
332             	3.21317717e+02
333             	3.21318120e+02
334             	3.21319297e+02
335             	3.21321819e+02
336             	3.21325852e+02
337             	3.21330822e+02
338             	3.21336747e+02
339             	3.21342373e+02
340             	3.21347891e+02
341             	3.21352866e+02
342             	3.21357003e+02
343             	3.21360699e+02
344             	3.21363555e+02
345             	3.21365305e+02
346             	3.21366034e+02
347             	3.21365989e+02
348             	3.21366377e+02
349             	3.21367619e+02
350             	3.21370000e+02
351             	3.21373472e+02
352             	3.21377729e+02
353             	3.21382681e+02
354             	3.21387746e+02
355             	3.21392862e+02
356             	3.21397817e+02
357             	3.21402059e+02
358             	3.21405254e+02
359             	3.21407095e+02
360             	3.21407857e+02
361             	3.21407744e+02
362             	3.21406865e+02
363             	3.21405514e+02
364             	3.21403950e+02
365             	3.21402343e+02
366             	3.21401319e+02
367             	3.21401305e+02
368             	3.21402289e+02
369             	3.21404158e+02
370             	3.21406693e+02
371             	3.21410396e+02
372             	3.21415142e+02
373             	3.21420243e+02
374             	3.21425117e+02
375             	3.21429522e+02
376             	3.21433300e+02
377             	3.21436226e+02
378             	3.21437968e+02
379             	3.21439409e+02
380             	3.21441160e+02
381             	3.21443358e+02
382             	3.21445866e+02
383             	3.21448590e+02
384             	3.21451318e+02
385             	3.21453596e+02
386             	3.21455357e+02
387             	3.21456615e+02
388             	3.21457551e+02
389             	3.21458313e+02
390             	3.21459096e+02
391             	3.21460174e+02
392             	3.21461777e+02
393             	3.21463905e+02
394             	3.21466646e+02
395             	3.21470002e+02
396             	3.21473870e+02
397             	3.21478163e+02
398             	3.21482419e+02
399             	3.21486620e+02
400             	3.21490570e+02
401             	3.21494113e+02
402             	3.21496720e+02
403             	3.21498309e+02
404             	3.21499196e+02
405             	3.21499782e+02
406             	3.21500387e+02
407             	3.21501146e+02
408             	3.21502110e+02
409             	3.21503168e+02
410             	3.21504273e+02
411             	3.21505448e+02
412             	3.21506665e+02
413             	3.21508116e+02
414             	3.21509832e+02
415             	3.21511848e+02
416             	3.21514077e+02
417             	3.21516442e+02
418             	3.21518790e+02
419             	3.21520949e+02
420             	3.21522849e+02
421             	3.21524495e+02
422             	3.21526025e+02
423             	3.21527568e+02
424             	3.21529135e+02
425             	3.21530677e+02
426             	3.21532148e+02
427             	3.21533430e+02
428             	3.21534321e+02
429             	3.21534818e+02
430             	3.21535002e+02
431             	3.21535038e+02
432             	3.21535156e+02
433             	3.21535477e+02
434             	3.21536339e+02
435             	3.21537650e+02
436             	3.21539348e+02
437             	3.21541188e+02
438             	3.21543195e+02
439             	3.21545286e+02
440             	3.21547461e+02
441             	3.21549579e+02
442             	3.21551575e+02
443             	3.21553471e+02
444             	3.21555399e+02
445             	3.21557399e+02
446             	3.21559477e+02
447             	3.21561547e+02
448             	3.21563627e+02
449             	3.21565699e+02
450             	3.21567662e+02
451             	3.21569401e+02
452             	3.21570852e+02
453             	3.21572027e+02
454             	3.21572965e+02
455             	3.21573704e+02
456             	3.21574208e+02
457             	3.21574448e+02
458             	3.21574400e+02
459             	3.21574084e+02
460             	3.21573521e+02
461             	3.21572763e+02
462             	3.21571906e+02
463             	3.21571057e+02
464             	3.21570308e+02
465             	3.21569771e+02
466             	3.21569483e+02
467             	3.21569456e+02
468             	3.21569678e+02
469             	3.21570127e+02
470             	3.21570768e+02
471             	3.21571538e+02
472             	3.21572367e+02
473             	3.21573313e+02
474             	3.21574333e+02
475             	3.21575384e+02
476             	3.21576403e+02
477             	3.21577365e+02
478             	3.21578279e+02
479             	3.21579150e+02
480             	3.21579972e+02
481             	3.21580733e+02
482             	3.21581441e+02
483             	3.21582089e+02
484             	3.21582641e+02
485             	3.21583076e+02
486             	3.21583444e+02
487             	3.21583793e+02
488             	3.21584218e+02
489             	3.21584757e+02
490             	3.21585313e+02
491             	3.21585883e+02
492             	3.21586466e+02
493             	3.21587070e+02
494             	3.21587686e+02
495             	3.21588312e+02
496             	3.21588941e+02
497             	3.21589526e+02
498             	3.21590233e+02
499             	3.21591015e+02
500             	3.21591765e+02
501             	3.21592365e+02
502             	3.21592792e+02
503             	3.21593090e+02
504             	3.21593258e+02
505             	3.21593281e+02
506             	3.21593201e+02
507             	3.21593062e+02
508             	3.21592967e+02
509             	3.21592930e+02
510             	3.21592952e+02
511             	3.21593058e+02
512             	3.21593247e+02
513             	3.21593491e+02
514             	3.21593792e+02
515             	3.21594130e+02
516             	3.21594517e+02
517             	3.21594963e+02
518             	3.21595483e+02
519             	3.21596085e+02
520             	3.21596759e+02
521             	3.21597465e+02
522             	3.21598169e+02
523             	3.21598817e+02
524             	3.21599384e+02
525             	3.21599848e+02
526             	3.21600206e+02
527             	3.21600439e+02
528             	3.21600523e+02
529             	3.21600452e+02
530             	3.21600236e+02
531             	3.21599897e+02
532             	3.21599481e+02
533             	3.21599031e+02
534             	3.21598585e+02
535             	3.21598194e+02
536             	3.21597908e+02
537             	3.21597744e+02
538             	3.21597723e+02
539             	3.21597826e+02
540             	3.21598053e+02
541             	3.21598399e+02
542             	3.21598864e+02
543             	3.21599444e+02
544             	3.21600110e+02
545             	3.21600795e+02
546             	3.21601463e+02
547             	3.21602092e+02
548             	3.21602669e+02
549             	3.21603102e+02
550             	3.21603391e+02
551             	3.21603574e+02
552             	3.21603680e+02
553             	3.21603725e+02
554             	3.21603727e+02
555             	3.21603690e+02
556             	3.21603614e+02
557             	3.21603560e+02
558             	3.21603592e+02
559             	3.21603722e+02
560             	3.21603953e+02
561             	3.21604249e+02
562             	3.21604564e+02
563             	3.21604839e+02
564             	3.21605073e+02
565             	3.21605280e+02
566             	3.21605484e+02
567             	3.21605680e+02
568             	3.21605848e+02
569             	3.21605970e+02
570             	3.21606037e+02
571             	3.21606079e+02
572             	3.21606036e+02
573             	3.21605884e+02
574             	3.21605661e+02
575             	3.21605378e+02
576             	3.21605017e+02
577             	3.21604576e+02
578             	3.21604056e+02
579             	3.21603485e+02
580             	3.21602912e+02
581             	3.21602392e+02
582             	3.21601947e+02
583             	3.21601651e+02
584             	3.21601540e+02
585             	3.21601658e+02
586             	3.21602002e+02
587             	3.21602533e+02
588             	3.21603174e+02
589             	3.21603856e+02
590             	3.21604510e+02
591             	3.21605090e+02
592             	3.21605597e+02
593             	3.21606028e+02
594             	3.21606385e+02
595             	3.21606688e+02
596             	3.21606921e+02
597             	3.21607093e+02
598             	3.21607208e+02
599             	3.21607280e+02
600             	3.21607311e+02
601             	3.21607306e+02
602             	3.21607278e+02
603             	3.21607243e+02
604             	3.21607214e+02
605             	3.21607237e+02
606             	3.21607317e+02
607             	3.21607455e+02
608             	3.21607633e+02
609             	3.21607847e+02
610             	3.21608090e+02
611             	3.21608352e+02
612             	3.21608624e+02
613             	3.21608894e+02
614             	3.21609150e+02
615             	3.21609312e+02
616             	3.21609367e+02
617             	3.21609294e+02
618             	3.21609088e+02
619             	3.21608777e+02
620             	3.21608389e+02
621             	3.21607959e+02
