# Region        : cellZone component_2
# Cells         : 47
# Volume        : 7.21795622e-02
# Time          	volAverage(T)
1               	3.00715991e+02
2               	3.01408699e+02
3               	3.02016832e+02
4               	3.02577997e+02
5               	3.03117091e+02
6               	3.03633787e+02
7               	3.04138139e+02
8               	3.04635704e+02
9               	3.05131075e+02
10              	3.05614087e+02
11              	3.06086847e+02
12              	3.06536623e+02
13              	3.06975726e+02
14              	3.07405070e+02
15              	3.07828228e+02
16              	3.08231539e+02
17              	3.08622910e+02
18              	3.09012766e+02
19              	3.09410922e+02
20              	3.09806343e+02
21              	3.10199081e+02
22              	3.10581289e+02
23              	3.10949226e+02
24              	3.11305738e+02
25              	3.11650427e+02
26              	3.11951848e+02
27              	3.12231048e+02
28              	3.12480053e+02
29              	3.12710013e+02
30              	3.12933170e+02
31              	3.13150876e+02
32              	3.13389451e+02
33              	3.13617533e+02
34              	3.13842396e+02
35              	3.14055902e+02
36              	3.14278333e+02
37              	3.14508202e+02
38              	3.14729906e+02
39              	3.14932249e+02
40              	3.15142142e+02
41              	3.15344822e+02
42              	3.15543371e+02
43              	3.15743971e+02
44              	3.15929691e+02
45              	3.16100874e+02
46              	3.16246738e+02
47              	3.16372770e+02
48              	3.16499490e+02
49              	3.16636068e+02
50              	3.16737914e+02
51              	3.16819018e+02
52              	3.16889284e+02
53              	3.16947467e+02
54              	3.17024225e+02
55              	3.17131524e+02
56              	3.17236990e+02
57              	3.17341825e+02
58              	3.17454824e+02
59              	3.17561721e+02
60              	3.17648777e+02
61              	3.17770429e+02
62              	3.17907050e+02
63              	3.18054845e+02
64              	3.18199710e+02
65              	3.18324144e+02
66              	3.18412446e+02
67              	3.18486031e+02
68              	3.18544547e+02
69              	3.18641977e+02
70              	3.18718141e+02
71              	3.18759106e+02
72              	3.18810506e+02
73              	3.18864239e+02
74              	3.18945113e+02
75              	3.19023534e+02
76              	3.19080371e+02
77              	3.19105788e+02
78              	3.19130768e+02
79              	3.19150636e+02
80              	3.19202446e+02
81              	3.19258394e+02
82              	3.19310070e+02
83              	3.19353475e+02
84              	3.19394091e+02
85              	3.19443796e+02
86              	3.19497777e+02
87              	3.19544713e+02
88              	3.19586435e+02
89              	3.19627664e+02
90              	3.19652874e+02
91              	3.19685424e+02
92              	3.19726830e+02
93              	3.19769393e+02
94              	3.19822032e+02
95              	3.19883650e+02
96              	3.19951047e+02
97              	3.20021535e+02
98              	3.20094140e+02
99              	3.20165287e+02
100             	3.20225840e+02
101             	3.20280199e+02
102             	3.20331149e+02
103             	3.20381589e+02
104             	3.20435521e+02
105             	3.20488985e+02
106             	3.20541576e+02
107             	3.20593815e+02
108             	3.20648377e+02
109             	3.20703740e+02
110             	3.20758035e+02
111             	3.20818513e+02
112             	3.20880981e+02
113             	3.20943008e+02
114             	3.20998296e+02
115             	3.21051092e+02
116             	3.21101970e+02
117             	3.21151753e+02
118             	3.21198899e+02
119             	3.21243513e+02
120             	3.21291638e+02
121             	3.21344965e+02
122             	3.21400446e+02
123             	3.21455733e+02
124             	3.21510137e+02
125             	3.21564174e+02
126             	3.21587525e+02
127             	3.21626979e+02
128             	3.21676068e+02
129             	3.21726626e+02
130             	3.21775905e+02
131             	3.21822923e+02
132             	3.21871389e+02
133             	3.21917208e+02
134             	3.21958695e+02
135             	3.21989843e+02
136             	3.22018556e+02
137             	3.22050170e+02
138             	3.22083282e+02
139             	3.22119601e+02
140             	3.22131141e+02
141             	3.22163038e+02
142             	3.22207169e+02
143             	3.22245782e+02
144             	3.22289141e+02
145             	3.22325914e+02
146             	3.22362855e+02
147             	3.22394775e+02
148             	3.22424844e+02
149             	3.22455853e+02
150             	3.22489830e+02
151             	3.22528139e+02
152             	3.22568998e+02
153             	3.22603354e+02
154             	3.22640118e+02
155             	3.22675402e+02
156             	3.22707132e+02
157             	3.22736084e+02
158             	3.22758491e+02
159             	3.22782408e+02
160             	3.22805304e+02
161             	3.22828830e+02
162             	3.22853294e+02
163             	3.22878469e+02
164             	3.22904996e+02
165             	3.22932687e+02
166             	3.22960161e+02
167             	3.22984393e+02
168             	3.23007683e+02
169             	3.23032800e+02
170             	3.23056271e+02
171             	3.23077125e+02
172             	3.23097222e+02
173             	3.23117292e+02
174             	3.23138606e+02
175             	3.23159566e+02
176             	3.23180151e+02
177             	3.23200679e+02
178             	3.23221811e+02
179             	3.23242979e+02
180             	3.23264067e+02
181             	3.23282863e+02
182             	3.23300108e+02
183             	3.23317704e+02
184             	3.23335471e+02
185             	3.23352552e+02
186             	3.23369607e+02
187             	3.23386392e+02
188             	3.23402084e+02
189             	3.23418190e+02
190             	3.23434779e+02
191             	3.23450756e+02
192             	3.23465616e+02
193             	3.23480743e+02
194             	3.23495401e+02
195             	3.23509637e+02
196             	3.23523207e+02
197             	3.23536567e+02
198             	3.23550396e+02
199             	3.23565193e+02
200             	3.23578893e+02
201             	3.23592950e+02
202             	3.23607634e+02
203             	3.23622417e+02
204             	3.23636354e+02
205             	3.23648336e+02
206             	3.23658785e+02
207             	3.23667324e+02
208             	3.23675955e+02
209             	3.23684149e+02
210             	3.23691809e+02
211             	3.23700764e+02
212             	3.23709146e+02
213             	3.23718233e+02
214             	3.23727499e+02
215             	3.23736306e+02
216             	3.23745978e+02
217             	3.23755075e+02
218             	3.23763377e+02
219             	3.23769932e+02
220             	3.23776588e+02
221             	3.23784431e+02
222             	3.23792165e+02
223             	3.23799594e+02
224             	3.23807239e+02
225             	3.23815816e+02
226             	3.23824603e+02
227             	3.23832124e+02
228             	3.23839382e+02
229             	3.23846942e+02
230             	3.23854830e+02
231             	3.23862630e+02
232             	3.23870237e+02
233             	3.23877671e+02
234             	3.23885009e+02
235             	3.23892274e+02
236             	3.23898168e+02
237             	3.23903538e+02
238             	3.23908728e+02
239             	3.23913964e+02
240             	3.23918856e+02
241             	3.23923521e+02
242             	3.23928254e+02
243             	3.23933178e+02
244             	3.23938124e+02
245             	3.23942901e+02
246             	3.23948272e+02
247             	3.23953802e+02
248             	3.23958832e+02
249             	3.23963154e+02
250             	3.23968423e+02
251             	3.23973013e+02
252             	3.23977492e+02
253             	3.23981864e+02
254             	3.23986112e+02
255             	3.23990243e+02
256             	3.23994511e+02
257             	3.23998460e+02
258             	3.24002102e+02
259             	3.24005992e+02
260             	3.24009635e+02
261             	3.24012964e+02
262             	3.24016323e+02
263             	3.24019558e+02
264             	3.24022545e+02
265             	3.24025378e+02
266             	3.24028124e+02
267             	3.24029838e+02
268             	3.24031253e+02
269             	3.24033034e+02
270             	3.24034408e+02
271             	3.24035626e+02
272             	3.24036947e+02
273             	3.24038557e+02
274             	3.24040157e+02
275             	3.24042329e+02
276             	3.24044766e+02
277             	3.24047361e+02
278             	3.24049892e+02
279             	3.24052279e+02
280             	3.24054822e+02
281             	3.24057396e+02
282             	3.24059651e+02
283             	3.24061646e+02
284             	3.24063660e+02
285             	3.24065768e+02
286             	3.24068004e+02
287             	3.24070101e+02
288             	3.24072043e+02
289             	3.24073795e+02
290             	3.24075748e+02
291             	3.24077641e+02
292             	3.24079549e+02
293             	3.24081359e+02
294             	3.24083012e+02
295             	3.24084588e+02
296             	3.24085619e+02
297             	3.24086510e+02
298             	3.24087799e+02
299             	3.24088905e+02
300             	3.24089597e+02
301             	3.24090163e+02
302             	3.24091058e+02
303             	3.24092087e+02
304             	3.24092828e+02
305             	3.24093781e+02
306             	3.24095085e+02
307             	3.24096431e+02
308             	3.24097686e+02
309             	3.24098743e+02
310             	3.24099707e+02
311             	3.24100897e+02
312             	3.24102006e+02
313             	3.24102944e+02
314             	3.24103886e+02
315             	3.24104925e+02
316             	3.24106006e+02
317             	3.24107361e+02
318             	3.24108665e+02
319             	3.24110235e+02
320             	3.24111600e+02
321             	3.24113034e+02
322             	3.24114412e+02
323             	3.24115972e+02
324             	3.24116838e+02
325             	3.24117412e+02
326             	3.24118314e+02
327             	3.24119044e+02
328             	3.24119421e+02
329             	3.24119657e+02
330             	3.24119915e+02
331             	3.24120257e+02
332             	3.24120585e+02
333             	3.24121161e+02
334             	3.24121989e+02
335             	3.24122829e+02
336             	3.24123731e+02
337             	3.24124833e+02
338             	3.24126010e+02
339             	3.24127699e+02
340             	3.24129816e+02
341             	3.24130828e+02
342             	3.24131795e+02
343             	3.24133224e+02
344             	3.24134256e+02
345             	3.24134964e+02
346             	3.24135549e+02
347             	3.24135969e+02
348             	3.24136428e+02
349             	3.24136660e+02
350             	3.24136794e+02
351             	3.24136523e+02
352             	3.24136312e+02
353             	3.24136520e+02
354             	3.24136454e+02
355             	3.24136317e+02
356             	3.24136244e+02
357             	3.24136252e+02
358             	3.24136600e+02
359             	3.24137441e+02
360             	3.24138077e+02
361             	3.24138754e+02
362             	3.24139812e+02
363             	3.24141010e+02
364             	3.24142067e+02
365             	3.24142770e+02
366             	3.24142952e+02
367             	3.24142954e+02
368             	3.24143197e+02
369             	3.24143081e+02
370             	3.24142778e+02
371             	3.24142658e+02
372             	3.24142969e+02
373             	3.24142833e+02
374             	3.24142530e+02
375             	3.24142511e+02
376             	3.24142548e+02
377             	3.24142124e+02
378             	3.24142285e+02
379             	3.24142581e+02
380             	3.24142818e+02
381             	3.24143164e+02
382             	3.24143544e+02
383             	3.24143986e+02
384             	3.24144514e+02
385             	3.24145052e+02
386             	3.24145597e+02
387             	3.24146040e+02
388             	3.24146484e+02
389             	3.24146954e+02
390             	3.24147465e+02
391             	3.24147836e+02
392             	3.24147993e+02
393             	3.24148133e+02
394             	3.24148330e+02
395             	3.24148495e+02
396             	3.24148571e+02
397             	3.24148505e+02
398             	3.24148384e+02
399             	3.24148301e+02
400             	3.24148180e+02
401             	3.24148212e+02
402             	3.24148406e+02
403             	3.24148652e+02
404             	3.24148983e+02
405             	3.24149553e+02
406             	3.24150107e+02
407             	3.24150852e+02
408             	3.24151729e+02
409             	3.24152626e+02
410             	3.24153607e+02
411             	3.24154855e+02
412             	3.24155552e+02
413             	3.24156239e+02
414             	3.24156807e+02
415             	3.24157219e+02
416             	3.24157436e+02
417             	3.24157630e+02
418             	3.24157578e+02
419             	3.24157474e+02
420             	3.24157521e+02
421             	3.24157341e+02
422             	3.24157276e+02
423             	3.24157265e+02
424             	3.24157283e+02
425             	3.24157333e+02
426             	3.24157428e+02
427             	3.24157892e+02
428             	3.24158073e+02
429             	3.24158444e+02
430             	3.24158836e+02
431             	3.24159330e+02
432             	3.24159900e+02
433             	3.24160250e+02
434             	3.24160681e+02
435             	3.24161102e+02
436             	3.24161471e+02
437             	3.24161769e+02
438             	3.24162045e+02
439             	3.24162293e+02
440             	3.24162508e+02
441             	3.24162818e+02
442             	3.24162993e+02
443             	3.24163185e+02
444             	3.24163411e+02
445             	3.24163690e+02
446             	3.24163940e+02
447             	3.24164131e+02
448             	3.24164340e+02
449             	3.24164570e+02
450             	3.24164781e+02
451             	3.24165004e+02
452             	3.24165220e+02
453             	3.24165357e+02
454             	3.24165620e+02
455             	3.24165866e+02
456             	3.24166114e+02
457             	3.24166380e+02
458             	3.24166676e+02
459             	3.24167007e+02
460             	3.24167346e+02
461             	3.24167694e+02
462             	3.24168049e+02
463             	3.24168403e+02
464             	3.24168744e+02
465             	3.24169083e+02
466             	3.24169442e+02
467             	3.24169796e+02
468             	3.24170067e+02
469             	3.24170304e+02
470             	3.24170514e+02
471             	3.24170678e+02
472             	3.24170795e+02
473             	3.24170884e+02
474             	3.24170927e+02
475             	3.24170999e+02
476             	3.24171085e+02
477             	3.24171143e+02
478             	3.24171249e+02
479             	3.24171386e+02
480             	3.24171515e+02
481             	3.24171644e+02
482             	3.24171794e+02
483             	3.24171995e+02
484             	3.24172200e+02
485             	3.24172348e+02
486             	3.24172578e+02
487             	3.24172817e+02
488             	3.24173087e+02
489             	3.24173313e+02
490             	3.24173480e+02
491             	3.24173625e+02
492             	3.24173791e+02
493             	3.24173936e+02
494             	3.24174046e+02
495             	3.24174137e+02
496             	3.24174230e+02
497             	3.24174338e+02
498             	3.24174445e+02
499             	3.24174574e+02
500             	3.24174707e+02
501             	3.24174832e+02
502             	3.24174964e+02
503             	3.24175090e+02
504             	3.24175209e+02
505             	3.24175303e+02
506             	3.24175398e+02
507             	3.24175481e+02
508             	3.24175559e+02
509             	3.24175625e+02
510             	3.24175676e+02
511             	3.24175724e+02
512             	3.24175776e+02
513             	3.24175834e+02
514             	3.24175903e+02
515             	3.24176000e+02
516             	3.24176128e+02
517             	3.24176261e+02
518             	3.24176359e+02
519             	3.24176451e+02
520             	3.24176562e+02
521             	3.24176619e+02
522             	3.24176672e+02
523             	3.24176704e+02
524             	3.24176727e+02
525             	3.24176735e+02
526             	3.24176726e+02
527             	3.24176703e+02
528             	3.24176687e+02
529             	3.24176708e+02
530             	3.24176767e+02
531             	3.24176865e+02
532             	3.24177006e+02
533             	3.24177168e+02
534             	3.24177314e+02
535             	3.24177449e+02
536             	3.24177578e+02
537             	3.24177663e+02
538             	3.24177756e+02
539             	3.24177843e+02
540             	3.24177930e+02
541             	3.24178011e+02
542             	3.24178091e+02
543             	3.24178179e+02
544             	3.24178264e+02
545             	3.24178359e+02
546             	3.24178443e+02
547             	3.24178507e+02
548             	3.24178566e+02
549             	3.24178633e+02
550             	3.24178701e+02
551             	3.24178758e+02
552             	3.24178821e+02
553             	3.24178894e+02
554             	3.24178960e+02
555             	3.24179025e+02
556             	3.24179114e+02
557             	3.24179204e+02
558             	3.24179296e+02
559             	3.24179389e+02
560             	3.24179497e+02
561             	3.24179596e+02
562             	3.24179700e+02
563             	3.24179807e+02
564             	3.24179911e+02
565             	3.24180008e+02
566             	3.24180085e+02
567             	3.24180185e+02
568             	3.24180282e+02
569             	3.24180372e+02
570             	3.24180462e+02
571             	3.24180556e+02
572             	3.24180653e+02
573             	3.24180750e+02
574             	3.24180843e+02
575             	3.24180921e+02
576             	3.24180991e+02
577             	3.24181049e+02
578             	3.24181095e+02
579             	3.24181130e+02
580             	3.24181174e+02
581             	3.24181198e+02
582             	3.24181223e+02
583             	3.24181252e+02
584             	3.24181285e+02
585             	3.24181330e+02
586             	3.24181377e+02
587             	3.24181433e+02
588             	3.24181491e+02
589             	3.24181543e+02
590             	3.24181609e+02
591             	3.24181665e+02
592             	3.24181714e+02
593             	3.24181773e+02
594             	3.24181825e+02
595             	3.24181869e+02
596             	3.24181923e+02
597             	3.24181971e+02
598             	3.24182024e+02
599             	3.24182080e+02
600             	3.24182130e+02
601             	3.24182182e+02
602             	3.24182238e+02
603             	3.24182288e+02
604             	3.24182336e+02
605             	3.24182373e+02
606             	3.24182404e+02
607             	3.24182432e+02
608             	3.24182462e+02
609             	3.24182489e+02
610             	3.24182518e+02
611             	3.24182548e+02
612             	3.24182579e+02
613             	3.24182606e+02
614             	3.24182643e+02
615             	3.24182679e+02
616             	3.24182708e+02
617             	3.24182737e+02
618             	3.24182764e+02
619             	3.24182785e+02
620             	3.24182790e+02
621             	3.24182804e+02
