# Region        : cellZone fluid
# Cells         : 8847
# Volume        : 1.74249894e+01
# Time          	volAverage(T)
1               	3.00000000e+02
2               	3.00000066e+02
3               	3.00000634e+02
4               	3.00001571e+02
5               	3.00002341e+02
6               	3.00003222e+02
7               	3.00004170e+02
8               	3.00005385e+02
9               	3.00007016e+02
10              	3.00008744e+02
11              	3.00010837e+02
12              	3.00013263e+02
13              	3.00016070e+02
14              	3.00018487e+02
15              	3.00021517e+02
16              	3.00024072e+02
17              	3.00027768e+02
18              	3.00030697e+02
19              	3.00033532e+02
20              	3.00036365e+02
21              	3.00039210e+02
22              	3.00042680e+02
23              	3.00046254e+02
24              	3.00049499e+02
25              	3.00052048e+02
26              	3.00055273e+02
27              	3.00058698e+02
28              	3.00061967e+02
29              	3.00065230e+02
30              	3.00068931e+02
31              	3.00073102e+02
32              	3.00077642e+02
33              	3.00082250e+02
34              	3.00087020e+02
35              	3.00091701e+02
36              	3.00096700e+02
37              	3.00101861e+02
38              	3.00106630e+02
39              	3.00110937e+02
40              	3.00114403e+02
41              	3.00118897e+02
42              	3.00121783e+02
43              	3.00125885e+02
44              	3.00132190e+02
45              	3.00135753e+02
46              	3.00139212e+02
47              	3.00142620e+02
48              	3.00146636e+02
49              	3.00150135e+02
50              	3.00153852e+02
51              	3.00157547e+02
52              	3.00161333e+02
53              	3.00165132e+02
54              	3.00168934e+02
55              	3.00173123e+02
56              	3.00177612e+02
57              	3.00182189e+02
58              	3.00186527e+02
59              	3.00191458e+02
60              	3.00195575e+02
61              	3.00200195e+02
62              	3.00204574e+02
63              	3.00208348e+02
64              	3.00212059e+02
65              	3.00216630e+02
66              	3.00220362e+02
67              	3.00223761e+02
68              	3.00229306e+02
69              	3.00233006e+02
70              	3.00236469e+02
71              	3.00240229e+02
72              	3.00243696e+02
73              	3.00247740e+02
74              	3.00252161e+02
75              	3.00256400e+02
76              	3.00259796e+02
77              	3.00265552e+02
78              	3.00270036e+02
79              	3.00273878e+02
80              	3.00277326e+02
81              	3.00280560e+02
82              	3.00285193e+02
83              	3.00288430e+02
84              	3.00290899e+02
85              	3.00293433e+02
86              	3.00296396e+02
87              	3.00300546e+02
88              	3.00303264e+02
89              	3.00306213e+02
90              	3.00309163e+02
91              	3.00312265e+02
92              	3.00315475e+02
93              	3.00319105e+02
94              	3.00323000e+02
95              	3.00327410e+02
96              	3.00331683e+02
97              	3.00336041e+02
98              	3.00339970e+02
99              	3.00343611e+02
100             	3.00347174e+02
101             	3.00349957e+02
102             	3.00352918e+02
103             	3.00356383e+02
104             	3.00359296e+02
105             	3.00361959e+02
106             	3.00364498e+02
107             	3.00367344e+02
108             	3.00369986e+02
109             	3.00372054e+02
110             	3.00374585e+02
111             	3.00376624e+02
112             	3.00379689e+02
113             	3.00381425e+02
114             	3.00383401e+02
115             	3.00386076e+02
116             	3.00388865e+02
117             	3.00391730e+02
118             	3.00394658e+02
119             	3.00397739e+02
120             	3.00400835e+02
121             	3.00403301e+02
122             	3.00405140e+02
123             	3.00408323e+02
124             	3.00410810e+02
125             	3.00413556e+02
126             	3.00415683e+02
127             	3.00418080e+02
128             	3.00420734e+02
129             	3.00423511e+02
130             	3.00425823e+02
131             	3.00427273e+02
132             	3.00428440e+02
133             	3.00430002e+02
134             	3.00431317e+02
135             	3.00432801e+02
136             	3.00434586e+02
137             	3.00436513e+02
138             	3.00438290e+02
139             	3.00439851e+02
140             	3.00441358e+02
141             	3.00442890e+02
142             	3.00444715e+02
143             	3.00446570e+02
144             	3.00448620e+02
145             	3.00450792e+02
146             	3.00453226e+02
147             	3.00455169e+02
148             	3.00456198e+02
149             	3.00457395e+02
150             	3.00458478e+02
151             	3.00459692e+02
152             	3.00461024e+02
153             	3.00462096e+02
154             	3.00463399e+02
155             	3.00464866e+02
156             	3.00466368e+02
157             	3.00467449e+02
158             	3.00468805e+02
159             	3.00470440e+02
160             	3.00472290e+02
161             	3.00473518e+02
162             	3.00474703e+02
163             	3.00476411e+02
164             	3.00477760e+02
165             	3.00479186e+02
166             	3.00480647e+02
167             	3.00481965e+02
168             	3.00483028e+02
169             	3.00484102e+02
170             	3.00485214e+02
171             	3.00486153e+02
172             	3.00486828e+02
173             	3.00487675e+02
174             	3.00488653e+02
175             	3.00489507e+02
176             	3.00490355e+02
177             	3.00491122e+02
178             	3.00491885e+02
179             	3.00492408e+02
180             	3.00493036e+02
181             	3.00493283e+02
182             	3.00493749e+02
183             	3.00494670e+02
184             	3.00495566e+02
185             	3.00496530e+02
186             	3.00497564e+02
187             	3.00498586e+02
188             	3.00499716e+02
189             	3.00501052e+02
190             	3.00502432e+02
191             	3.00503669e+02
192             	3.00504557e+02
193             	3.00505537e+02
194             	3.00506436e+02
195             	3.00507447e+02
196             	3.00508411e+02
197             	3.00509520e+02
198             	3.00510551e+02
199             	3.00511564e+02
200             	3.00512597e+02
201             	3.00513607e+02
202             	3.00514319e+02
203             	3.00514768e+02
204             	3.00515286e+02
205             	3.00515836e+02
206             	3.00516443e+02
207             	3.00516939e+02
208             	3.00517705e+02
209             	3.00517852e+02
210             	3.00518193e+02
211             	3.00518618e+02
212             	3.00519093e+02
213             	3.00519785e+02
214             	3.00520550e+02
215             	3.00521710e+02
216             	3.00522944e+02
217             	3.00523978e+02
218             	3.00524799e+02
219             	3.00525666e+02
220             	3.00526445e+02
221             	3.00526953e+02
222             	3.00527461e+02
223             	3.00527971e+02
224             	3.00528493e+02
225             	3.00528956e+02
226             	3.00529381e+02
227             	3.00529781e+02
228             	3.00530270e+02
229             	3.00530663e+02
230             	3.00530919e+02
231             	3.00531340e+02
232             	3.00531789e+02
233             	3.00532170e+02
234             	3.00532470e+02
235             	3.00532849e+02
236             	3.00533177e+02
237             	3.00533451e+02
238             	3.00533721e+02
239             	3.00534031e+02
240             	3.00534397e+02
241             	3.00534847e+02
242             	3.00535337e+02
243             	3.00535859e+02
244             	3.00536396e+02
245             	3.00536968e+02
246             	3.00537571e+02
247             	3.00538161e+02
248             	3.00538687e+02
249             	3.00539173e+02
250             	3.00539451e+02
251             	3.00539754e+02
252             	3.00540091e+02
253             	3.00540367e+02
254             	3.00540637e+02
255             	3.00540899e+02
256             	3.00541125e+02
257             	3.00541343e+02
258             	3.00541664e+02
259             	3.00542011e+02
260             	3.00542187e+02
261             	3.00542466e+02
262             	3.00542785e+02
263             	3.00543047e+02
264             	3.00543251e+02
265             	3.00543472e+02
266             	3.00543757e+02
267             	3.00544049e+02
268             	3.00544290e+02
269             	3.00544531e+02
270             	3.00544792e+02
271             	3.00545099e+02
272             	3.00545416e+02
273             	3.00545739e+02
274             	3.00546078e+02
275             	3.00546399e+02
276             	3.00546716e+02
277             	3.00547117e+02
278             	3.00547452e+02
279             	3.00547792e+02
280             	3.00548129e+02
281             	3.00548474e+02
282             	3.00548710e+02
283             	3.00549106e+02
284             	3.00549451e+02
285             	3.00549758e+02
286             	3.00550044e+02
287             	3.00550309e+02
288             	3.00550556e+02
289             	3.00550764e+02
290             	3.00550964e+02
291             	3.00551185e+02
292             	3.00551422e+02
293             	3.00551662e+02
294             	3.00551930e+02
295             	3.00552096e+02
296             	3.00552274e+02
297             	3.00552449e+02
298             	3.00552606e+02
299             	3.00552733e+02
300             	3.00552874e+02
301             	3.00553041e+02
302             	3.00553246e+02
303             	3.00553456e+02
304             	3.00553706e+02
305             	3.00553939e+02
306             	3.00554104e+02
307             	3.00554245e+02
308             	3.00554391e+02
309             	3.00554513e+02
310             	3.00554589e+02
311             	3.00554675e+02
312             	3.00554791e+02
313             	3.00554944e+02
314             	3.00555037e+02
315             	3.00555141e+02
316             	3.00555294e+02
317             	3.00555424e+02
318             	3.00555543e+02
319             	3.00555675e+02
320             	3.00555795e+02
321             	3.00555879e+02
322             	3.00556018e+02
323             	3.00556140e+02
324             	3.00556257e+02
325             	3.00556378e+02
326             	3.00556530e+02
327             	3.00556704e+02
328             	3.00556872e+02
329             	3.00557045e+02
330             	3.00557227e+02
331             	3.00557398e+02
332             	3.00557573e+02
333             	3.00557739e+02
334             	3.00557925e+02
335             	3.00558123e+02
336             	3.00558324e+02
337             	3.00558502e+02
338             	3.00558654e+02
339             	3.00558828e+02
340             	3.00558967e+02
341             	3.00559084e+02
342             	3.00559210e+02
343             	3.00559334e+02
344             	3.00559466e+02
345             	3.00559596e+02
346             	3.00559722e+02
347             	3.00559844e+02
348             	3.00559947e+02
349             	3.00560047e+02
350             	3.00560144e+02
351             	3.00560230e+02
352             	3.00560304e+02
353             	3.00560367e+02
354             	3.00560442e+02
355             	3.00560503e+02
356             	3.00560570e+02
357             	3.00560631e+02
358             	3.00560694e+02
359             	3.00560763e+02
360             	3.00560826e+02
361             	3.00560889e+02
362             	3.00560950e+02
363             	3.00561007e+02
364             	3.00561066e+02
365             	3.00561129e+02
366             	3.00561201e+02
367             	3.00561276e+02
368             	3.00561351e+02
369             	3.00561426e+02
370             	3.00561500e+02
371             	3.00561572e+02
372             	3.00561648e+02
373             	3.00561720e+02
374             	3.00561808e+02
375             	3.00561893e+02
376             	3.00561956e+02
377             	3.00562062e+02
378             	3.00562158e+02
379             	3.00562245e+02
380             	3.00562331e+02
381             	3.00562410e+02
382             	3.00562495e+02
383             	3.00562573e+02
384             	3.00562660e+02
385             	3.00562744e+02
386             	3.00562826e+02
387             	3.00562898e+02
388             	3.00562969e+02
389             	3.00563038e+02
390             	3.00563116e+02
391             	3.00563185e+02
392             	3.00563255e+02
393             	3.00563324e+02
394             	3.00563396e+02
395             	3.00563465e+02
396             	3.00563539e+02
397             	3.00563603e+02
398             	3.00563667e+02
399             	3.00563726e+02
400             	3.00563783e+02
401             	3.00563836e+02
402             	3.00563884e+02
403             	3.00563932e+02
404             	3.00563990e+02
405             	3.00564038e+02
406             	3.00564089e+02
407             	3.00564129e+02
408             	3.00564172e+02
409             	3.00564212e+02
410             	3.00564253e+02
411             	3.00564291e+02
412             	3.00564329e+02
413             	3.00564366e+02
414             	3.00564403e+02
415             	3.00564440e+02
416             	3.00564481e+02
417             	3.00564521e+02
418             	3.00564565e+02
419             	3.00564606e+02
420             	3.00564651e+02
421             	3.00564694e+02
422             	3.00564734e+02
423             	3.00564775e+02
424             	3.00564822e+02
425             	3.00564867e+02
426             	3.00564917e+02
427             	3.00564967e+02
428             	3.00565020e+02
429             	3.00565072e+02
430             	3.00565124e+02
431             	3.00565168e+02
432             	3.00565225e+02
433             	3.00565272e+02
434             	3.00565316e+02
435             	3.00565354e+02
436             	3.00565395e+02
437             	3.00565435e+02
438             	3.00565471e+02
439             	3.00565504e+02
440             	3.00565539e+02
441             	3.00565565e+02
442             	3.00565596e+02
443             	3.00565623e+02
444             	3.00565655e+02
445             	3.00565683e+02
446             	3.00565712e+02
447             	3.00565733e+02
448             	3.00565759e+02
449             	3.00565782e+02
450             	3.00565811e+02
451             	3.00565838e+02
452             	3.00565865e+02
453             	3.00565890e+02
454             	3.00565921e+02
455             	3.00565951e+02
456             	3.00565988e+02
457             	3.00566019e+02
458             	3.00566051e+02
459             	3.00566081e+02
460             	3.00566113e+02
461             	3.00566144e+02
462             	3.00566175e+02
463             	3.00566200e+02
464             	3.00566229e+02
465             	3.00566253e+02
466             	3.00566278e+02
467             	3.00566299e+02
468             	3.00566323e+02
469             	3.00566341e+02
470             	3.00566363e+02
471             	3.00566381e+02
472             	3.00566404e+02
473             	3.00566422e+02
474             	3.00566445e+02
475             	3.00566464e+02
476             	3.00566486e+02
477             	3.00566501e+02
478             	3.00566521e+02
479             	3.00566537e+02
480             	3.00566557e+02
481             	3.00566574e+02
482             	3.00566599e+02
483             	3.00566617e+02
484             	3.00566641e+02
485             	3.00566662e+02
486             	3.00566687e+02
487             	3.00566709e+02
488             	3.00566734e+02
489             	3.00566752e+02
490             	3.00566776e+02
491             	3.00566795e+02
492             	3.00566818e+02
493             	3.00566835e+02
494             	3.00566857e+02
495             	3.00566872e+02
496             	3.00566893e+02
497             	3.00566910e+02
498             	3.00566929e+02
499             	3.00566943e+02
500             	3.00566962e+02
501             	3.00566976e+02
502             	3.00566995e+02
503             	3.00567010e+02
504             	3.00567027e+02
505             	3.00567039e+02
506             	3.00567054e+02
507             	3.00567065e+02
508             	3.00567080e+02
509             	3.00567092e+02
510             	3.00567111e+02
511             	3.00567124e+02
512             	3.00567142e+02
513             	3.00567156e+02
514             	3.00567173e+02
515             	3.00567187e+02
516             	3.00567205e+02
517             	3.00567220e+02
518             	3.00567239e+02
519             	3.00567252e+02
520             	3.00567269e+02
521             	3.00567280e+02
522             	3.00567298e+02
523             	3.00567310e+02
524             	3.00567324e+02
525             	3.00567336e+02
526             	3.00567351e+02
527             	3.00567361e+02
528             	3.00567376e+02
529             	3.00567386e+02
530             	3.00567400e+02
531             	3.00567410e+02
532             	3.00567422e+02
533             	3.00567430e+02
534             	3.00567442e+02
535             	3.00567450e+02
536             	3.00567461e+02
537             	3.00567468e+02
538             	3.00567479e+02
539             	3.00567485e+02
540             	3.00567497e+02
541             	3.00567505e+02
542             	3.00567517e+02
543             	3.00567525e+02
544             	3.00567537e+02
545             	3.00567546e+02
546             	3.00567558e+02
547             	3.00567568e+02
548             	3.00567581e+02
549             	3.00567589e+02
550             	3.00567601e+02
551             	3.00567609e+02
552             	3.00567621e+02
553             	3.00567628e+02
554             	3.00567638e+02
555             	3.00567646e+02
556             	3.00567657e+02
557             	3.00567663e+02
558             	3.00567673e+02
559             	3.00567679e+02
560             	3.00567690e+02
561             	3.00567696e+02
562             	3.00567706e+02
563             	3.00567711e+02
564             	3.00567721e+02
565             	3.00567727e+02
566             	3.00567736e+02
567             	3.00567741e+02
568             	3.00567751e+02
569             	3.00567756e+02
570             	3.00567765e+02
571             	3.00567770e+02
572             	3.00567779e+02
573             	3.00567784e+02
574             	3.00567793e+02
575             	3.00567798e+02
576             	3.00567806e+02
577             	3.00567811e+02
578             	3.00567820e+02
579             	3.00567824e+02
580             	3.00567832e+02
581             	3.00567837e+02
582             	3.00567845e+02
583             	3.00567849e+02
584             	3.00567857e+02
585             	3.00567861e+02
586             	3.00567868e+02
587             	3.00567872e+02
588             	3.00567880e+02
589             	3.00567884e+02
590             	3.00567892e+02
591             	3.00567895e+02
592             	3.00567903e+02
593             	3.00567907e+02
594             	3.00567914e+02
595             	3.00567918e+02
596             	3.00567925e+02
597             	3.00567929e+02
598             	3.00567936e+02
599             	3.00567939e+02
600             	3.00567945e+02
601             	3.00567948e+02
602             	3.00567955e+02
603             	3.00567958e+02
604             	3.00567965e+02
605             	3.00567967e+02
606             	3.00567974e+02
607             	3.00567976e+02
608             	3.00567981e+02
609             	3.00567984e+02
610             	3.00567989e+02
611             	3.00567992e+02
612             	3.00567997e+02
613             	3.00567999e+02
614             	3.00568004e+02
615             	3.00568006e+02
616             	3.00568011e+02
617             	3.00568012e+02
618             	3.00568017e+02
619             	3.00568018e+02
620             	3.00568023e+02
621             	3.00568025e+02
