# Region        : cellZone component_2
# Cells         : 154
# Volume        : 3.19458323e-01
# Time          	volAverage(T)
1               	3.00643491e+02
2               	3.01276885e+02
3               	3.01853316e+02
4               	3.02388814e+02
5               	3.02899774e+02
6               	3.03390812e+02
7               	3.03865942e+02
8               	3.04330313e+02
9               	3.04787877e+02
10              	3.05236165e+02
11              	3.05669759e+02
12              	3.06094936e+02
13              	3.06517610e+02
14              	3.06936976e+02
15              	3.07329612e+02
16              	3.07698032e+02
17              	3.08064419e+02
18              	3.08419868e+02
19              	3.08765677e+02
20              	3.09095867e+02
21              	3.09404694e+02
22              	3.09696081e+02
23              	3.09968168e+02
24              	3.10227229e+02
25              	3.10480480e+02
26              	3.10729392e+02
27              	3.10973205e+02
28              	3.11211533e+02
29              	3.11441501e+02
30              	3.11669938e+02
31              	3.11897086e+02
32              	3.12123003e+02
33              	3.12347143e+02
34              	3.12572411e+02
35              	3.12801133e+02
36              	3.13034938e+02
37              	3.13272599e+02
38              	3.13509856e+02
39              	3.13741599e+02
40              	3.13968166e+02
41              	3.14181791e+02
42              	3.14387155e+02
43              	3.14584087e+02
44              	3.14769609e+02
45              	3.14942869e+02
46              	3.15112045e+02
47              	3.15274998e+02
48              	3.15444489e+02
49              	3.15613536e+02
50              	3.15785589e+02
51              	3.15960156e+02
52              	3.16132077e+02
53              	3.16301377e+02
54              	3.16467838e+02
55              	3.16621813e+02
56              	3.16766893e+02
57              	3.16906246e+02
58              	3.17038924e+02
59              	3.17164971e+02
60              	3.17284604e+02
61              	3.17400108e+02
62              	3.17510135e+02
63              	3.17619701e+02
64              	3.17722750e+02
65              	3.17828623e+02
66              	3.17935940e+02
67              	3.18045510e+02
68              	3.18154454e+02
69              	3.18263723e+02
70              	3.18373870e+02
71              	3.18480493e+02
72              	3.18586770e+02
73              	3.18689765e+02
74              	3.18790510e+02
75              	3.18886244e+02
76              	3.18974357e+02
77              	3.19060024e+02
78              	3.19141576e+02
79              	3.19219810e+02
80              	3.19291883e+02
81              	3.19366190e+02
82              	3.19443509e+02
83              	3.19517831e+02
84              	3.19590223e+02
85              	3.19661157e+02
86              	3.19729166e+02
87              	3.19794386e+02
88              	3.19855136e+02
89              	3.19912236e+02
90              	3.19965510e+02
91              	3.20016152e+02
92              	3.20066381e+02
93              	3.20117626e+02
94              	3.20170012e+02
95              	3.20222879e+02
96              	3.20276496e+02
97              	3.20327651e+02
98              	3.20383133e+02
99              	3.20440736e+02
100             	3.20496711e+02
101             	3.20549971e+02
102             	3.20602189e+02
103             	3.20655260e+02
104             	3.20709011e+02
105             	3.20763548e+02
106             	3.20816533e+02
107             	3.20870440e+02
108             	3.20924074e+02
109             	3.20976545e+02
110             	3.21026261e+02
111             	3.21072487e+02
112             	3.21115954e+02
113             	3.21152077e+02
114             	3.21189207e+02
115             	3.21226757e+02
116             	3.21265248e+02
117             	3.21303292e+02
118             	3.21341846e+02
119             	3.21380971e+02
120             	3.21419991e+02
121             	3.21459025e+02
122             	3.21499118e+02
123             	3.21535600e+02
124             	3.21569563e+02
125             	3.21599798e+02
126             	3.21628243e+02
127             	3.21656685e+02
128             	3.21680516e+02
129             	3.21706792e+02
130             	3.21735393e+02
131             	3.21767394e+02
132             	3.21797720e+02
133             	3.21828367e+02
134             	3.21858797e+02
135             	3.21890504e+02
136             	3.21917255e+02
137             	3.21939945e+02
138             	3.21960737e+02
139             	3.21980701e+02
140             	3.22001771e+02
141             	3.22020808e+02
142             	3.22040689e+02
143             	3.22062580e+02
144             	3.22086352e+02
145             	3.22107021e+02
146             	3.22129733e+02
147             	3.22151451e+02
148             	3.22171052e+02
149             	3.22189352e+02
150             	3.22206307e+02
151             	3.22221505e+02
152             	3.22235667e+02
153             	3.22249612e+02
154             	3.22263445e+02
155             	3.22277186e+02
156             	3.22290763e+02
157             	3.22304543e+02
158             	3.22318096e+02
159             	3.22331139e+02
160             	3.22345093e+02
161             	3.22355694e+02
162             	3.22365959e+02
163             	3.22377043e+02
164             	3.22389061e+02
165             	3.22401503e+02
166             	3.22413690e+02
167             	3.22426308e+02
168             	3.22439675e+02
169             	3.22452003e+02
170             	3.22465311e+02
171             	3.22479112e+02
172             	3.22492884e+02
173             	3.22507101e+02
174             	3.22521734e+02
175             	3.22536739e+02
176             	3.22551829e+02
177             	3.22566830e+02
178             	3.22581724e+02
179             	3.22596383e+02
180             	3.22610619e+02
181             	3.22624436e+02
182             	3.22637759e+02
183             	3.22650598e+02
184             	3.22662908e+02
185             	3.22674649e+02
186             	3.22685843e+02
187             	3.22696432e+02
188             	3.22706565e+02
189             	3.22716346e+02
190             	3.22725703e+02
191             	3.22734626e+02
192             	3.22743223e+02
193             	3.22751001e+02
194             	3.22758786e+02
195             	3.22767998e+02
196             	3.22776544e+02
197             	3.22785039e+02
198             	3.22793829e+02
199             	3.22802795e+02
200             	3.22812758e+02
201             	3.22823055e+02
202             	3.22833593e+02
203             	3.22843698e+02
204             	3.22855390e+02
205             	3.22867959e+02
206             	3.22880937e+02
207             	3.22893350e+02
208             	3.22906373e+02
209             	3.22919542e+02
210             	3.22932172e+02
211             	3.22943388e+02
212             	3.22953760e+02
213             	3.22962806e+02
214             	3.22970641e+02
215             	3.22977385e+02
216             	3.22983081e+02
217             	3.22988249e+02
218             	3.22992883e+02
219             	3.22997358e+02
220             	3.23001494e+02
221             	3.23005664e+02
222             	3.23009528e+02
223             	3.23013181e+02
224             	3.23016652e+02
225             	3.23019627e+02
226             	3.23022849e+02
227             	3.23024809e+02
228             	3.23027218e+02
229             	3.23029792e+02
230             	3.23032324e+02
231             	3.23036468e+02
232             	3.23042052e+02
233             	3.23047330e+02
234             	3.23052746e+02
235             	3.23059039e+02
236             	3.23066396e+02
237             	3.23074391e+02
238             	3.23082488e+02
239             	3.23090276e+02
240             	3.23098482e+02
241             	3.23106918e+02
242             	3.23115289e+02
243             	3.23123806e+02
244             	3.23131932e+02
245             	3.23138776e+02
246             	3.23144504e+02
247             	3.23148147e+02
248             	3.23151663e+02
249             	3.23155368e+02
250             	3.23159648e+02
251             	3.23164345e+02
252             	3.23169788e+02
253             	3.23174439e+02
254             	3.23178605e+02
255             	3.23181623e+02
256             	3.23184304e+02
257             	3.23186414e+02
258             	3.23188039e+02
259             	3.23189372e+02
260             	3.23190706e+02
261             	3.23192309e+02
262             	3.23194374e+02
263             	3.23197884e+02
264             	3.23201737e+02
265             	3.23205669e+02
266             	3.23209575e+02
267             	3.23213164e+02
268             	3.23214950e+02
269             	3.23215428e+02
270             	3.23216210e+02
271             	3.23217560e+02
272             	3.23218079e+02
273             	3.23217838e+02
274             	3.23217239e+02
275             	3.23217463e+02
276             	3.23217098e+02
277             	3.23216509e+02
278             	3.23216029e+02
279             	3.23215960e+02
280             	3.23216637e+02
281             	3.23217836e+02
282             	3.23219497e+02
283             	3.23220731e+02
284             	3.23222628e+02
285             	3.23225120e+02
286             	3.23227987e+02
287             	3.23231219e+02
288             	3.23234441e+02
289             	3.23237755e+02
290             	3.23241047e+02
291             	3.23244410e+02
292             	3.23247848e+02
293             	3.23251280e+02
294             	3.23254668e+02
295             	3.23257871e+02
296             	3.23260946e+02
297             	3.23263722e+02
298             	3.23266488e+02
299             	3.23269095e+02
300             	3.23271842e+02
301             	3.23274590e+02
302             	3.23277221e+02
303             	3.23279752e+02
304             	3.23281967e+02
305             	3.23283684e+02
306             	3.23285086e+02
307             	3.23286203e+02
308             	3.23287299e+02
309             	3.23288687e+02
310             	3.23290445e+02
311             	3.23292668e+02
312             	3.23295018e+02
313             	3.23297309e+02
314             	3.23299319e+02
315             	3.23300860e+02
316             	3.23301772e+02
317             	3.23302096e+02
318             	3.23302116e+02
319             	3.23301705e+02
320             	3.23300995e+02
321             	3.23300180e+02
322             	3.23299449e+02
323             	3.23298968e+02
324             	3.23298861e+02
325             	3.23298996e+02
326             	3.23299298e+02
327             	3.23299664e+02
328             	3.23299795e+02
329             	3.23299693e+02
330             	3.23299264e+02
331             	3.23298488e+02
332             	3.23297404e+02
333             	3.23296087e+02
334             	3.23294671e+02
335             	3.23293310e+02
336             	3.23292341e+02
337             	3.23291636e+02
338             	3.23291045e+02
339             	3.23290537e+02
340             	3.23290097e+02
341             	3.23289613e+02
342             	3.23289905e+02
343             	3.23289881e+02
344             	3.23289680e+02
345             	3.23289423e+02
346             	3.23288983e+02
347             	3.23288289e+02
348             	3.23287182e+02
349             	3.23285870e+02
350             	3.23284359e+02
351             	3.23282721e+02
352             	3.23280954e+02
353             	3.23279345e+02
354             	3.23278028e+02
355             	3.23277073e+02
356             	3.23276931e+02
357             	3.23276961e+02
358             	3.23277347e+02
359             	3.23277867e+02
360             	3.23278540e+02
361             	3.23279370e+02
362             	3.23280370e+02
363             	3.23281751e+02
364             	3.23283563e+02
365             	3.23285946e+02
366             	3.23288903e+02
367             	3.23292406e+02
368             	3.23296030e+02
369             	3.23299537e+02
370             	3.23302712e+02
371             	3.23305829e+02
372             	3.23308667e+02
373             	3.23311411e+02
374             	3.23314319e+02
375             	3.23316557e+02
376             	3.23319160e+02
377             	3.23321285e+02
378             	3.23323022e+02
379             	3.23324450e+02
380             	3.23325404e+02
381             	3.23325951e+02
382             	3.23325184e+02
383             	3.23324248e+02
384             	3.23323123e+02
385             	3.23321789e+02
386             	3.23320104e+02
387             	3.23317725e+02
388             	3.23314862e+02
389             	3.23311752e+02
390             	3.23308646e+02
391             	3.23305676e+02
392             	3.23302991e+02
393             	3.23300651e+02
394             	3.23298674e+02
395             	3.23296974e+02
396             	3.23295457e+02
397             	3.23294021e+02
398             	3.23292689e+02
399             	3.23291377e+02
400             	3.23290073e+02
401             	3.23288779e+02
402             	3.23287684e+02
403             	3.23286740e+02
404             	3.23286011e+02
405             	3.23285562e+02
406             	3.23285073e+02
407             	3.23284994e+02
408             	3.23284884e+02
409             	3.23284541e+02
410             	3.23284252e+02
411             	3.23284897e+02
412             	3.23286303e+02
413             	3.23286833e+02
414             	3.23287155e+02
415             	3.23287823e+02
416             	3.23287623e+02
417             	3.23286980e+02
418             	3.23285997e+02
419             	3.23285381e+02
420             	3.23285072e+02
421             	3.23285292e+02
422             	3.23286330e+02
423             	3.23287587e+02
424             	3.23288627e+02
425             	3.23289984e+02
426             	3.23291791e+02
427             	3.23292508e+02
428             	3.23293410e+02
429             	3.23295218e+02
430             	3.23298358e+02
431             	3.23300433e+02
432             	3.23303093e+02
433             	3.23306055e+02
434             	3.23309459e+02
435             	3.23312953e+02
436             	3.23315323e+02
437             	3.23316698e+02
438             	3.23317314e+02
439             	3.23317435e+02
440             	3.23317013e+02
441             	3.23316228e+02
442             	3.23315551e+02
443             	3.23314858e+02
444             	3.23314035e+02
445             	3.23313088e+02
446             	3.23311857e+02
447             	3.23309788e+02
448             	3.23307121e+02
449             	3.23304483e+02
450             	3.23302968e+02
451             	3.23301634e+02
452             	3.23301184e+02
453             	3.23301855e+02
454             	3.23300003e+02
455             	3.23300066e+02
456             	3.23301180e+02
457             	3.23302374e+02
458             	3.23303357e+02
459             	3.23304069e+02
460             	3.23304575e+02
461             	3.23304494e+02
462             	3.23303727e+02
463             	3.23302090e+02
464             	3.23299646e+02
465             	3.23296573e+02
466             	3.23293325e+02
467             	3.23289993e+02
468             	3.23286345e+02
469             	3.23282186e+02
470             	3.23278320e+02
471             	3.23274680e+02
472             	3.23271321e+02
473             	3.23268522e+02
474             	3.23266443e+02
475             	3.23264623e+02
476             	3.23262588e+02
477             	3.23261155e+02
478             	3.23260655e+02
479             	3.23260999e+02
480             	3.23261562e+02
481             	3.23263017e+02
482             	3.23265105e+02
483             	3.23266383e+02
484             	3.23268157e+02
485             	3.23270740e+02
486             	3.23273093e+02
487             	3.23275118e+02
488             	3.23277065e+02
489             	3.23278996e+02
490             	3.23281130e+02
491             	3.23283385e+02
492             	3.23284915e+02
493             	3.23286687e+02
494             	3.23288625e+02
495             	3.23290582e+02
496             	3.23292431e+02
497             	3.23294221e+02
498             	3.23296566e+02
499             	3.23298779e+02
500             	3.23300697e+02
501             	3.23302236e+02
502             	3.23303835e+02
503             	3.23304776e+02
504             	3.23304919e+02
505             	3.23304011e+02
506             	3.23302893e+02
507             	3.23301647e+02
508             	3.23300270e+02
509             	3.23298861e+02
510             	3.23296551e+02
511             	3.23294464e+02
512             	3.23292470e+02
513             	3.23290944e+02
514             	3.23289829e+02
515             	3.23288989e+02
516             	3.23287588e+02
517             	3.23286078e+02
518             	3.23284816e+02
519             	3.23283544e+02
520             	3.23282464e+02
521             	3.23281274e+02
522             	3.23280309e+02
523             	3.23279535e+02
524             	3.23278899e+02
525             	3.23278405e+02
526             	3.23278102e+02
527             	3.23277998e+02
528             	3.23278013e+02
529             	3.23278175e+02
530             	3.23278341e+02
531             	3.23278417e+02
532             	3.23278281e+02
533             	3.23278071e+02
534             	3.23277855e+02
535             	3.23277908e+02
536             	3.23277803e+02
537             	3.23277380e+02
538             	3.23277238e+02
539             	3.23277121e+02
540             	3.23277265e+02
541             	3.23277519e+02
542             	3.23277919e+02
543             	3.23278309e+02
544             	3.23278810e+02
545             	3.23279441e+02
546             	3.23280312e+02
547             	3.23281432e+02
548             	3.23282747e+02
549             	3.23284425e+02
550             	3.23286690e+02
551             	3.23288747e+02
552             	3.23290620e+02
553             	3.23292368e+02
554             	3.23294288e+02
555             	3.23296050e+02
556             	3.23297651e+02
557             	3.23299147e+02
558             	3.23300548e+02
559             	3.23301793e+02
560             	3.23302718e+02
561             	3.23302855e+02
562             	3.23302382e+02
563             	3.23301122e+02
564             	3.23299647e+02
565             	3.23297895e+02
566             	3.23295821e+02
567             	3.23293548e+02
568             	3.23291254e+02
569             	3.23289048e+02
570             	3.23287012e+02
571             	3.23285150e+02
572             	3.23283618e+02
573             	3.23282562e+02
574             	3.23282099e+02
575             	3.23282325e+02
576             	3.23283302e+02
577             	3.23285046e+02
578             	3.23287512e+02
579             	3.23290215e+02
580             	3.23293530e+02
581             	3.23296893e+02
582             	3.23300428e+02
583             	3.23303976e+02
584             	3.23307366e+02
585             	3.23310547e+02
586             	3.23313417e+02
587             	3.23315691e+02
588             	3.23317469e+02
589             	3.23318821e+02
590             	3.23319740e+02
591             	3.23320172e+02
592             	3.23320092e+02
593             	3.23319546e+02
594             	3.23318553e+02
595             	3.23317231e+02
596             	3.23315489e+02
597             	3.23313540e+02
598             	3.23311288e+02
599             	3.23309051e+02
600             	3.23306722e+02
601             	3.23304333e+02
602             	3.23302035e+02
603             	3.23299319e+02
604             	3.23297077e+02
605             	3.23295326e+02
606             	3.23294029e+02
607             	3.23293208e+02
608             	3.23292874e+02
609             	3.23293267e+02
610             	3.23294196e+02
611             	3.23295123e+02
612             	3.23296138e+02
613             	3.23297293e+02
614             	3.23298617e+02
615             	3.23300122e+02
616             	3.23301506e+02
617             	3.23303165e+02
618             	3.23304966e+02
619             	3.23306428e+02
620             	3.23307872e+02
621             	3.23309136e+02
