# Region        : cellZone component_0
# Cells         : 136
# Volume        : 2.61104250e-01
# Time          	volAverage(T)
1               	3.00212026e+02
2               	3.00422380e+02
3               	3.00618066e+02
4               	3.00802290e+02
5               	3.00980123e+02
6               	3.01152568e+02
7               	3.01316467e+02
8               	3.01479706e+02
9               	3.01638098e+02
10              	3.01794049e+02
11              	3.01946417e+02
12              	3.02096121e+02
13              	3.02243140e+02
14              	3.02387817e+02
15              	3.02531893e+02
16              	3.02672173e+02
17              	3.02806376e+02
18              	3.02938059e+02
19              	3.03069073e+02
20              	3.03201316e+02
21              	3.03330474e+02
22              	3.03457540e+02
23              	3.03579821e+02
24              	3.03697059e+02
25              	3.03807245e+02
26              	3.03910018e+02
27              	3.04012126e+02
28              	3.04114423e+02
29              	3.04216946e+02
30              	3.04316078e+02
31              	3.04417831e+02
32              	3.04517393e+02
33              	3.04612557e+02
34              	3.04704736e+02
35              	3.04797220e+02
36              	3.04887167e+02
37              	3.04974009e+02
38              	3.05061668e+02
39              	3.05148098e+02
40              	3.05233347e+02
41              	3.05318968e+02
42              	3.05403954e+02
43              	3.05485826e+02
44              	3.05561523e+02
45              	3.05628015e+02
46              	3.05698753e+02
47              	3.05765420e+02
48              	3.05826899e+02
49              	3.05886627e+02
50              	3.05942990e+02
51              	3.05996890e+02
52              	3.06049144e+02
53              	3.06099246e+02
54              	3.06146224e+02
55              	3.06189865e+02
56              	3.06231897e+02
57              	3.06271503e+02
58              	3.06309156e+02
59              	3.06344878e+02
60              	3.06381046e+02
61              	3.06416166e+02
62              	3.06451137e+02
63              	3.06485142e+02
64              	3.06519357e+02
65              	3.06549611e+02
66              	3.06580822e+02
67              	3.06611625e+02
68              	3.06641161e+02
69              	3.06669946e+02
70              	3.06694872e+02
71              	3.06716048e+02
72              	3.06732708e+02
73              	3.06745508e+02
74              	3.06755949e+02
75              	3.06764004e+02
76              	3.06771396e+02
77              	3.06779398e+02
78              	3.06790621e+02
79              	3.06804452e+02
80              	3.06820883e+02
81              	3.06840523e+02
82              	3.06862267e+02
83              	3.06884001e+02
84              	3.06903620e+02
85              	3.06918393e+02
86              	3.06932546e+02
87              	3.06944134e+02
88              	3.06953270e+02
89              	3.06957727e+02
90              	3.06958535e+02
91              	3.06956405e+02
92              	3.06954805e+02
93              	3.06952464e+02
94              	3.06953248e+02
95              	3.06957490e+02
96              	3.06963719e+02
97              	3.06976571e+02
98              	3.06988654e+02
99              	3.07000573e+02
100             	3.07009480e+02
101             	3.07016524e+02
102             	3.07021716e+02
103             	3.07023903e+02
104             	3.07023071e+02
105             	3.07020249e+02
106             	3.07015504e+02
107             	3.07010977e+02
108             	3.07005830e+02
109             	3.07003875e+02
110             	3.07004175e+02
111             	3.07007938e+02
112             	3.07014510e+02
113             	3.07023649e+02
114             	3.07034752e+02
115             	3.07047254e+02
116             	3.07060011e+02
117             	3.07072590e+02
118             	3.07083196e+02
119             	3.07091052e+02
120             	3.07095971e+02
121             	3.07098411e+02
122             	3.07098521e+02
123             	3.07097971e+02
124             	3.07097174e+02
125             	3.07097876e+02
126             	3.07100221e+02
127             	3.07103892e+02
128             	3.07110416e+02
129             	3.07119389e+02
130             	3.07129914e+02
131             	3.07141658e+02
132             	3.07153815e+02
133             	3.07165739e+02
134             	3.07177908e+02
135             	3.07189678e+02
136             	3.07199876e+02
137             	3.07208069e+02
138             	3.07215284e+02
139             	3.07222082e+02
140             	3.07228814e+02
141             	3.07235842e+02
142             	3.07242855e+02
143             	3.07249285e+02
144             	3.07254591e+02
145             	3.07259822e+02
146             	3.07264760e+02
147             	3.07269863e+02
148             	3.07275136e+02
149             	3.07281430e+02
150             	3.07288648e+02
151             	3.07296466e+02
152             	3.07304685e+02
153             	3.07312934e+02
154             	3.07320608e+02
155             	3.07326980e+02
156             	3.07332275e+02
157             	3.07336086e+02
158             	3.07339413e+02
159             	3.07342627e+02
160             	3.07345847e+02
161             	3.07349103e+02
162             	3.07352872e+02
163             	3.07357068e+02
164             	3.07361576e+02
165             	3.07366251e+02
166             	3.07371232e+02
167             	3.07376333e+02
168             	3.07381270e+02
169             	3.07385543e+02
170             	3.07388697e+02
171             	3.07391350e+02
172             	3.07393374e+02
173             	3.07395282e+02
174             	3.07397232e+02
175             	3.07399327e+02
176             	3.07401678e+02
177             	3.07404317e+02
178             	3.07406675e+02
179             	3.07408539e+02
180             	3.07408889e+02
181             	3.07407494e+02
182             	3.07404641e+02
183             	3.07400416e+02
184             	3.07396557e+02
185             	3.07393690e+02
186             	3.07392290e+02
187             	3.07391973e+02
188             	3.07393220e+02
189             	3.07395837e+02
190             	3.07399436e+02
191             	3.07403785e+02
192             	3.07408856e+02
193             	3.07413935e+02
194             	3.07418565e+02
195             	3.07422598e+02
196             	3.07426000e+02
197             	3.07428761e+02
198             	3.07431095e+02
199             	3.07432883e+02
200             	3.07434791e+02
201             	3.07437014e+02
202             	3.07439655e+02
203             	3.07442233e+02
204             	3.07444187e+02
205             	3.07445022e+02
206             	3.07444709e+02
207             	3.07443225e+02
208             	3.07441597e+02
209             	3.07439887e+02
210             	3.07438927e+02
211             	3.07439216e+02
212             	3.07441201e+02
213             	3.07444522e+02
214             	3.07448362e+02
215             	3.07452460e+02
216             	3.07456103e+02
217             	3.07458592e+02
218             	3.07460295e+02
219             	3.07461376e+02
220             	3.07462269e+02
221             	3.07463334e+02
222             	3.07464788e+02
223             	3.07466864e+02
224             	3.07469654e+02
225             	3.07472705e+02
226             	3.07475795e+02
227             	3.07478386e+02
228             	3.07480263e+02
229             	3.07481235e+02
230             	3.07481285e+02
231             	3.07480805e+02
232             	3.07480200e+02
233             	3.07479896e+02
234             	3.07480142e+02
235             	3.07481132e+02
236             	3.07482402e+02
237             	3.07484018e+02
238             	3.07485541e+02
239             	3.07486632e+02
240             	3.07487221e+02
241             	3.07487336e+02
242             	3.07486341e+02
243             	3.07484905e+02
244             	3.07483036e+02
245             	3.07481177e+02
246             	3.07479665e+02
247             	3.07479027e+02
248             	3.07479497e+02
249             	3.07480461e+02
250             	3.07481578e+02
251             	3.07482662e+02
252             	3.07483136e+02
253             	3.07482933e+02
254             	3.07482463e+02
255             	3.07482051e+02
256             	3.07482062e+02
257             	3.07482563e+02
258             	3.07483697e+02
259             	3.07485182e+02
260             	3.07486797e+02
261             	3.07488299e+02
262             	3.07489287e+02
263             	3.07489635e+02
264             	3.07489491e+02
265             	3.07489016e+02
266             	3.07489176e+02
267             	3.07489936e+02
268             	3.07491294e+02
269             	3.07493401e+02
270             	3.07495668e+02
271             	3.07498278e+02
272             	3.07500835e+02
273             	3.07503031e+02
274             	3.07504758e+02
275             	3.07506202e+02
276             	3.07507424e+02
277             	3.07508459e+02
278             	3.07509130e+02
279             	3.07509482e+02
280             	3.07509859e+02
281             	3.07509834e+02
282             	3.07509753e+02
283             	3.07509742e+02
284             	3.07510376e+02
285             	3.07511576e+02
286             	3.07512872e+02
287             	3.07514017e+02
288             	3.07515094e+02
289             	3.07516031e+02
290             	3.07516397e+02
291             	3.07516545e+02
292             	3.07516440e+02
293             	3.07515926e+02
294             	3.07515167e+02
295             	3.07514259e+02
296             	3.07513419e+02
297             	3.07512867e+02
298             	3.07512630e+02
299             	3.07512551e+02
300             	3.07512912e+02
301             	3.07513433e+02
302             	3.07513679e+02
303             	3.07513423e+02
304             	3.07512878e+02
305             	3.07511906e+02
306             	3.07510826e+02
307             	3.07509804e+02
308             	3.07509183e+02
309             	3.07508849e+02
310             	3.07508746e+02
311             	3.07509049e+02
312             	3.07509642e+02
313             	3.07510347e+02
314             	3.07510947e+02
315             	3.07511326e+02
316             	3.07511327e+02
317             	3.07511018e+02
318             	3.07510753e+02
319             	3.07510581e+02
320             	3.07510531e+02
321             	3.07510658e+02
322             	3.07510926e+02
323             	3.07511302e+02
324             	3.07511760e+02
325             	3.07512276e+02
326             	3.07512884e+02
327             	3.07513519e+02
328             	3.07514235e+02
329             	3.07515018e+02
330             	3.07515924e+02
331             	3.07516946e+02
332             	3.07518020e+02
333             	3.07519053e+02
334             	3.07520121e+02
335             	3.07521229e+02
336             	3.07522480e+02
337             	3.07523813e+02
338             	3.07525126e+02
339             	3.07526306e+02
340             	3.07527361e+02
341             	3.07528101e+02
342             	3.07528519e+02
343             	3.07528676e+02
344             	3.07528665e+02
345             	3.07528687e+02
346             	3.07528731e+02
347             	3.07528801e+02
348             	3.07529068e+02
349             	3.07529451e+02
350             	3.07529955e+02
351             	3.07530452e+02
352             	3.07530819e+02
353             	3.07530998e+02
354             	3.07531192e+02
355             	3.07531392e+02
356             	3.07531671e+02
357             	3.07531833e+02
358             	3.07531979e+02
359             	3.07532182e+02
360             	3.07532559e+02
361             	3.07533056e+02
362             	3.07533769e+02
363             	3.07534635e+02
364             	3.07535472e+02
365             	3.07536051e+02
366             	3.07536294e+02
367             	3.07536283e+02
368             	3.07536039e+02
369             	3.07535567e+02
370             	3.07535028e+02
371             	3.07534602e+02
372             	3.07534346e+02
373             	3.07534172e+02
374             	3.07534128e+02
375             	3.07534091e+02
376             	3.07534082e+02
377             	3.07533985e+02
378             	3.07533827e+02
379             	3.07533779e+02
380             	3.07533774e+02
381             	3.07533769e+02
382             	3.07533771e+02
383             	3.07533759e+02
384             	3.07533746e+02
385             	3.07533734e+02
386             	3.07533756e+02
387             	3.07533822e+02
388             	3.07533931e+02
389             	3.07534079e+02
390             	3.07534210e+02
391             	3.07534323e+02
392             	3.07534441e+02
393             	3.07534533e+02
394             	3.07534623e+02
395             	3.07534758e+02
396             	3.07534997e+02
397             	3.07535285e+02
398             	3.07535670e+02
399             	3.07536088e+02
400             	3.07536499e+02
401             	3.07536834e+02
402             	3.07537067e+02
403             	3.07537190e+02
404             	3.07537266e+02
405             	3.07537230e+02
406             	3.07537128e+02
407             	3.07536948e+02
408             	3.07536724e+02
409             	3.07536459e+02
410             	3.07536172e+02
411             	3.07535867e+02
412             	3.07535596e+02
413             	3.07535347e+02
414             	3.07535122e+02
415             	3.07534955e+02
416             	3.07534786e+02
417             	3.07534585e+02
418             	3.07534358e+02
419             	3.07534098e+02
420             	3.07533826e+02
421             	3.07533595e+02
422             	3.07533357e+02
423             	3.07533156e+02
424             	3.07532984e+02
425             	3.07532857e+02
426             	3.07532760e+02
427             	3.07532698e+02
428             	3.07532665e+02
429             	3.07532678e+02
430             	3.07532754e+02
431             	3.07532825e+02
432             	3.07532826e+02
433             	3.07532863e+02
434             	3.07532903e+02
435             	3.07532952e+02
436             	3.07532969e+02
437             	3.07532943e+02
438             	3.07532890e+02
439             	3.07532850e+02
440             	3.07532946e+02
441             	3.07533022e+02
442             	3.07533138e+02
443             	3.07533256e+02
444             	3.07533385e+02
445             	3.07533510e+02
446             	3.07533659e+02
447             	3.07533829e+02
448             	3.07534018e+02
449             	3.07534224e+02
450             	3.07534422e+02
451             	3.07534579e+02
452             	3.07534631e+02
453             	3.07534658e+02
454             	3.07534643e+02
455             	3.07534633e+02
456             	3.07534643e+02
457             	3.07534682e+02
458             	3.07534718e+02
459             	3.07534742e+02
460             	3.07534766e+02
461             	3.07534822e+02
462             	3.07534885e+02
463             	3.07534924e+02
464             	3.07534926e+02
465             	3.07534872e+02
466             	3.07534714e+02
467             	3.07534458e+02
468             	3.07534138e+02
469             	3.07533816e+02
470             	3.07533550e+02
471             	3.07533345e+02
472             	3.07533186e+02
473             	3.07533073e+02
474             	3.07532965e+02
475             	3.07532868e+02
476             	3.07532784e+02
477             	3.07532698e+02
478             	3.07532545e+02
479             	3.07532357e+02
480             	3.07532136e+02
481             	3.07531951e+02
482             	3.07531814e+02
483             	3.07531670e+02
484             	3.07531530e+02
485             	3.07531397e+02
486             	3.07531296e+02
487             	3.07531214e+02
488             	3.07531156e+02
489             	3.07531109e+02
490             	3.07531072e+02
491             	3.07531048e+02
492             	3.07531033e+02
493             	3.07531032e+02
494             	3.07531028e+02
495             	3.07531025e+02
496             	3.07531012e+02
497             	3.07530979e+02
498             	3.07530928e+02
499             	3.07530859e+02
500             	3.07530761e+02
501             	3.07530614e+02
502             	3.07530428e+02
503             	3.07530210e+02
504             	3.07530030e+02
505             	3.07529884e+02
506             	3.07529783e+02
507             	3.07529711e+02
508             	3.07529667e+02
509             	3.07529656e+02
510             	3.07529686e+02
511             	3.07529726e+02
512             	3.07529793e+02
513             	3.07529879e+02
514             	3.07529991e+02
515             	3.07530122e+02
516             	3.07530269e+02
517             	3.07530396e+02
518             	3.07530520e+02
519             	3.07530624e+02
520             	3.07530726e+02
521             	3.07530835e+02
522             	3.07530973e+02
523             	3.07531118e+02
524             	3.07531242e+02
525             	3.07531333e+02
526             	3.07531370e+02
527             	3.07531355e+02
528             	3.07531299e+02
529             	3.07531222e+02
530             	3.07531122e+02
531             	3.07531005e+02
532             	3.07530868e+02
533             	3.07530728e+02
534             	3.07530579e+02
535             	3.07530412e+02
536             	3.07530244e+02
537             	3.07530071e+02
538             	3.07529893e+02
539             	3.07529705e+02
540             	3.07529511e+02
541             	3.07529305e+02
542             	3.07529092e+02
543             	3.07528880e+02
544             	3.07528689e+02
545             	3.07528527e+02
546             	3.07528392e+02
547             	3.07528272e+02
548             	3.07528161e+02
549             	3.07528052e+02
550             	3.07527935e+02
551             	3.07527816e+02
552             	3.07527690e+02
553             	3.07527571e+02
554             	3.07527452e+02
555             	3.07527335e+02
556             	3.07527220e+02
557             	3.07527118e+02
558             	3.07527011e+02
559             	3.07526907e+02
560             	3.07526804e+02
561             	3.07526700e+02
562             	3.07526603e+02
563             	3.07526512e+02
564             	3.07526449e+02
565             	3.07526390e+02
566             	3.07526353e+02
567             	3.07526351e+02
568             	3.07526356e+02
569             	3.07526373e+02
570             	3.07526396e+02
571             	3.07526419e+02
572             	3.07526455e+02
573             	3.07526488e+02
574             	3.07526529e+02
575             	3.07526561e+02
576             	3.07526587e+02
577             	3.07526605e+02
578             	3.07526617e+02
579             	3.07526627e+02
580             	3.07526639e+02
581             	3.07526654e+02
582             	3.07526672e+02
583             	3.07526690e+02
584             	3.07526709e+02
585             	3.07526722e+02
586             	3.07526728e+02
587             	3.07526727e+02
588             	3.07526716e+02
589             	3.07526696e+02
590             	3.07526668e+02
591             	3.07526636e+02
592             	3.07526602e+02
593             	3.07526561e+02
594             	3.07526513e+02
595             	3.07526459e+02
596             	3.07526403e+02
597             	3.07526344e+02
598             	3.07526283e+02
599             	3.07526247e+02
600             	3.07526210e+02
601             	3.07526190e+02
602             	3.07526177e+02
603             	3.07526171e+02
604             	3.07526162e+02
605             	3.07526143e+02
606             	3.07526145e+02
607             	3.07526146e+02
608             	3.07526171e+02
609             	3.07526200e+02
610             	3.07526239e+02
611             	3.07526279e+02
612             	3.07526316e+02
613             	3.07526343e+02
614             	3.07526360e+02
615             	3.07526356e+02
616             	3.07526331e+02
617             	3.07526282e+02
618             	3.07526217e+02
619             	3.07526140e+02
620             	3.07526047e+02
621             	3.07525950e+02
