# Region        : cellZone component_1
# Cells         : 37
# Volume        : 5.54679276e-02
# Time          	volAverage(T)
1               	3.07080671e+02
2               	3.13831169e+02
3               	3.17522353e+02
4               	3.19430302e+02
5               	3.22023085e+02
6               	3.25658058e+02
7               	3.29075961e+02
8               	3.31571070e+02
9               	3.33699060e+02
10              	3.36020403e+02
11              	3.38205901e+02
12              	3.39825224e+02
13              	3.41130837e+02
14              	3.42423073e+02
15              	3.43961595e+02
16              	3.45845745e+02
17              	3.47770520e+02
18              	3.49442525e+02
19              	3.50945861e+02
20              	3.52183719e+02
21              	3.53434037e+02
22              	3.54566212e+02
23              	3.55713650e+02
24              	3.56826191e+02
25              	3.57820852e+02
26              	3.58415151e+02
27              	3.58727507e+02
28              	3.58819746e+02
29              	3.58919198e+02
30              	3.59080526e+02
31              	3.59427140e+02
32              	3.59883823e+02
33              	3.60138081e+02
34              	3.60357243e+02
35              	3.60366690e+02
36              	3.60278220e+02
37              	3.60167376e+02
38              	3.60282383e+02
39              	3.60730845e+02
40              	3.61104621e+02
41              	3.61419007e+02
42              	3.61707406e+02
43              	3.61994064e+02
44              	3.62295271e+02
45              	3.62426420e+02
46              	3.62359097e+02
47              	3.62173358e+02
48              	3.61934123e+02
49              	3.61691876e+02
50              	3.61459914e+02
51              	3.61190878e+02
52              	3.60973066e+02
53              	3.60891275e+02
54              	3.60960227e+02
55              	3.61024777e+02
56              	3.60973449e+02
57              	3.60842536e+02
58              	3.60658344e+02
59              	3.60427517e+02
60              	3.60212230e+02
61              	3.60127512e+02
62              	3.60096496e+02
63              	3.60309321e+02
64              	3.60628948e+02
65              	3.60797057e+02
66              	3.60521748e+02
67              	3.60445988e+02
68              	3.60442119e+02
69              	3.60464823e+02
70              	3.60278943e+02
71              	3.59950482e+02
72              	3.59698409e+02
73              	3.59500697e+02
74              	3.59267195e+02
75              	3.59180253e+02
76              	3.59242666e+02
77              	3.59344087e+02
78              	3.59436041e+02
79              	3.59477239e+02
80              	3.59319257e+02
81              	3.59068549e+02
82              	3.58867581e+02
83              	3.58621302e+02
84              	3.58466584e+02
85              	3.58312444e+02
86              	3.58168282e+02
87              	3.58137733e+02
88              	3.58207812e+02
89              	3.58104514e+02
90              	3.58027785e+02
91              	3.57995831e+02
92              	3.57948632e+02
93              	3.57862314e+02
94              	3.57836103e+02
95              	3.57866619e+02
96              	3.57948156e+02
97              	3.58006611e+02
98              	3.58057553e+02
99              	3.58145423e+02
100             	3.58150413e+02
101             	3.58228142e+02
102             	3.58365883e+02
103             	3.58470407e+02
104             	3.58485312e+02
105             	3.58451465e+02
106             	3.58423975e+02
107             	3.58403017e+02
108             	3.58373302e+02
109             	3.58342761e+02
110             	3.58275529e+02
111             	3.58187752e+02
112             	3.58088927e+02
113             	3.58007820e+02
114             	3.57952588e+02
115             	3.57929589e+02
116             	3.57926742e+02
117             	3.57939518e+02
118             	3.57925972e+02
119             	3.57956819e+02
120             	3.58038377e+02
121             	3.58108245e+02
122             	3.58122056e+02
123             	3.58126329e+02
124             	3.58126638e+02
125             	3.58113549e+02
126             	3.58079334e+02
127             	3.58031942e+02
128             	3.58002071e+02
129             	3.57994310e+02
130             	3.58017665e+02
131             	3.58074923e+02
132             	3.58154361e+02
133             	3.58223002e+02
134             	3.58264751e+02
135             	3.58281118e+02
136             	3.58250907e+02
137             	3.58204961e+02
138             	3.58109668e+02
139             	3.58033735e+02
140             	3.58010810e+02
141             	3.58008436e+02
142             	3.58008487e+02
143             	3.58010983e+02
144             	3.57998555e+02
145             	3.57956202e+02
146             	3.57896512e+02
147             	3.57858749e+02
148             	3.57862514e+02
149             	3.57764851e+02
150             	3.57745845e+02
151             	3.57776191e+02
152             	3.57851019e+02
153             	3.57918563e+02
154             	3.57964661e+02
155             	3.57999434e+02
156             	3.58047047e+02
157             	3.58062420e+02
158             	3.58021808e+02
159             	3.57942715e+02
160             	3.57889730e+02
161             	3.57886580e+02
162             	3.57909879e+02
163             	3.57801691e+02
164             	3.57776836e+02
165             	3.57819840e+02
166             	3.57898770e+02
167             	3.57969853e+02
168             	3.58029256e+02
169             	3.58073381e+02
170             	3.58066873e+02
171             	3.58007775e+02
172             	3.57932643e+02
173             	3.57889145e+02
174             	3.57890348e+02
175             	3.57917747e+02
176             	3.57959295e+02
177             	3.58003420e+02
178             	3.58033612e+02
179             	3.58022048e+02
180             	3.57993965e+02
181             	3.57990197e+02
182             	3.57967658e+02
183             	3.57942044e+02
184             	3.57955394e+02
185             	3.57983694e+02
186             	3.57975656e+02
187             	3.57931710e+02
188             	3.57895207e+02
189             	3.57890485e+02
190             	3.57922653e+02
191             	3.57960760e+02
192             	3.57999156e+02
193             	3.58032473e+02
194             	3.58027553e+02
195             	3.58030719e+02
196             	3.58055230e+02
197             	3.58084945e+02
198             	3.58098835e+02
199             	3.58108279e+02
200             	3.58110710e+02
201             	3.58099190e+02
202             	3.58103010e+02
203             	3.58091500e+02
204             	3.58074713e+02
205             	3.58068284e+02
206             	3.58082044e+02
207             	3.58109892e+02
208             	3.58139839e+02
209             	3.58169705e+02
210             	3.58190091e+02
211             	3.58208046e+02
212             	3.58233221e+02
213             	3.58256490e+02
214             	3.58270177e+02
215             	3.58280295e+02
216             	3.58277609e+02
217             	3.58272022e+02
218             	3.58271229e+02
219             	3.58269973e+02
220             	3.58263052e+02
221             	3.58252728e+02
222             	3.58251474e+02
223             	3.58263181e+02
224             	3.58279178e+02
225             	3.58282694e+02
226             	3.58286996e+02
227             	3.58304336e+02
228             	3.58324784e+02
229             	3.58323934e+02
230             	3.58308145e+02
231             	3.58302942e+02
232             	3.58301685e+02
233             	3.58295668e+02
234             	3.58282646e+02
235             	3.58276692e+02
236             	3.58288639e+02
237             	3.58310952e+02
238             	3.58314187e+02
239             	3.58312956e+02
240             	3.58330604e+02
241             	3.58352717e+02
242             	3.58365934e+02
243             	3.58356655e+02
244             	3.58344589e+02
245             	3.58335821e+02
246             	3.58329856e+02
247             	3.58315869e+02
248             	3.58305231e+02
249             	3.58307807e+02
250             	3.58319107e+02
251             	3.58319959e+02
252             	3.58318521e+02
253             	3.58332792e+02
254             	3.58355307e+02
255             	3.58366804e+02
256             	3.58359577e+02
257             	3.58354189e+02
258             	3.58349797e+02
259             	3.58340486e+02
260             	3.58319469e+02
261             	3.58306668e+02
262             	3.58312288e+02
263             	3.58326625e+02
264             	3.58336476e+02
265             	3.58334441e+02
266             	3.58343074e+02
267             	3.58361055e+02
268             	3.58368564e+02
269             	3.58369933e+02
270             	3.58371367e+02
271             	3.58364382e+02
272             	3.58348503e+02
273             	3.58335501e+02
274             	3.58333467e+02
275             	3.58342833e+02
276             	3.58358757e+02
277             	3.58374216e+02
278             	3.58376184e+02
279             	3.58376239e+02
280             	3.58386910e+02
281             	3.58401571e+02
282             	3.58408738e+02
283             	3.58392323e+02
284             	3.58378457e+02
285             	3.58372705e+02
286             	3.58368271e+02
287             	3.58355910e+02
288             	3.58344997e+02
289             	3.58349461e+02
290             	3.58364316e+02
291             	3.58377087e+02
292             	3.58373823e+02
293             	3.58367519e+02
294             	3.58371619e+02
295             	3.58375647e+02
296             	3.58356496e+02
297             	3.58347334e+02
298             	3.58355406e+02
299             	3.58366489e+02
300             	3.58362089e+02
301             	3.58351615e+02
302             	3.58350874e+02
303             	3.58356021e+02
304             	3.58362865e+02
305             	3.58360143e+02
306             	3.58360794e+02
307             	3.58375944e+02
308             	3.58382224e+02
309             	3.58360816e+02
310             	3.58354748e+02
311             	3.58367463e+02
312             	3.58376846e+02
313             	3.58363807e+02
314             	3.58340621e+02
315             	3.58330573e+02
316             	3.58339536e+02
317             	3.58351876e+02
318             	3.58355979e+02
319             	3.58353569e+02
320             	3.58367777e+02
321             	3.58390280e+02
322             	3.58400719e+02
323             	3.58385354e+02
324             	3.58382736e+02
325             	3.58401090e+02
326             	3.58415002e+02
327             	3.58414234e+02
328             	3.58411194e+02
329             	3.58415687e+02
330             	3.58425220e+02
331             	3.58431779e+02
332             	3.58421475e+02
333             	3.58417383e+02
334             	3.58426786e+02
335             	3.58440161e+02
336             	3.58442428e+02
337             	3.58445794e+02
338             	3.58441226e+02
339             	3.58431455e+02
340             	3.58419570e+02
341             	3.58409353e+02
342             	3.58395815e+02
343             	3.58391196e+02
344             	3.58399059e+02
345             	3.58410074e+02
346             	3.58406135e+02
347             	3.58411292e+02
348             	3.58433472e+02
349             	3.58454417e+02
350             	3.58465028e+02
351             	3.58466652e+02
352             	3.58464931e+02
353             	3.58462566e+02
354             	3.58457059e+02
355             	3.58454020e+02
356             	3.58452717e+02
357             	3.58448367e+02
358             	3.58447418e+02
359             	3.58452663e+02
360             	3.58462066e+02
361             	3.58469055e+02
362             	3.58471429e+02
363             	3.58466792e+02
364             	3.58464245e+02
365             	3.58468023e+02
366             	3.58472118e+02
367             	3.58466057e+02
368             	3.58454285e+02
369             	3.58439393e+02
370             	3.58425162e+02
371             	3.58413121e+02
372             	3.58400464e+02
373             	3.58394526e+02
374             	3.58399660e+02
375             	3.58407679e+02
376             	3.58413473e+02
377             	3.58424052e+02
378             	3.58443844e+02
379             	3.58462262e+02
380             	3.58475131e+02
381             	3.58481834e+02
382             	3.58482165e+02
383             	3.58478187e+02
384             	3.58472468e+02
385             	3.58468697e+02
386             	3.58464476e+02
387             	3.58463447e+02
388             	3.58468799e+02
389             	3.58478798e+02
390             	3.58490854e+02
391             	3.58500106e+02
392             	3.58510039e+02
393             	3.58518613e+02
394             	3.58518212e+02
395             	3.58511029e+02
396             	3.58506780e+02
397             	3.58505429e+02
398             	3.58499635e+02
399             	3.58488915e+02
400             	3.58478760e+02
401             	3.58474600e+02
402             	3.58473775e+02
403             	3.58471982e+02
404             	3.58471414e+02
405             	3.58475845e+02
406             	3.58484232e+02
407             	3.58493133e+02
408             	3.58496001e+02
409             	3.58493600e+02
410             	3.58494521e+02
411             	3.58499783e+02
412             	3.58504108e+02
413             	3.58500500e+02
414             	3.58493346e+02
415             	3.58486949e+02
416             	3.58480123e+02
417             	3.58475380e+02
418             	3.58472985e+02
419             	3.58473191e+02
420             	3.58478683e+02
421             	3.58486673e+02
422             	3.58493734e+02
423             	3.58499016e+02
424             	3.58500719e+02
425             	3.58501235e+02
426             	3.58501185e+02
427             	3.58501029e+02
428             	3.58500942e+02
429             	3.58500049e+02
430             	3.58497732e+02
431             	3.58493019e+02
432             	3.58489602e+02
433             	3.58489567e+02
434             	3.58491980e+02
435             	3.58495692e+02
436             	3.58498550e+02
437             	3.58500627e+02
438             	3.58499433e+02
439             	3.58495898e+02
440             	3.58494199e+02
441             	3.58494365e+02
442             	3.58494398e+02
443             	3.58493940e+02
444             	3.58495868e+02
445             	3.58500157e+02
446             	3.58503908e+02
447             	3.58506878e+02
448             	3.58508511e+02
449             	3.58508605e+02
450             	3.58505703e+02
451             	3.58502507e+02
452             	3.58499701e+02
453             	3.58497387e+02
454             	3.58496409e+02
455             	3.58496144e+02
456             	3.58495232e+02
457             	3.58493006e+02
458             	3.58491574e+02
459             	3.58491542e+02
460             	3.58491953e+02
461             	3.58492396e+02
462             	3.58492986e+02
463             	3.58493726e+02
464             	3.58495156e+02
465             	3.58496949e+02
466             	3.58497836e+02
467             	3.58497750e+02
468             	3.58500196e+02
469             	3.58501986e+02
470             	3.58501987e+02
471             	3.58501971e+02
472             	3.58502211e+02
473             	3.58502141e+02
474             	3.58501980e+02
475             	3.58502324e+02
476             	3.58502437e+02
477             	3.58500576e+02
478             	3.58496799e+02
479             	3.58493701e+02
480             	3.58492107e+02
481             	3.58490832e+02
482             	3.58488986e+02
483             	3.58487547e+02
484             	3.58487568e+02
485             	3.58490033e+02
486             	3.58494603e+02
487             	3.58497570e+02
488             	3.58498840e+02
489             	3.58499468e+02
490             	3.58500117e+02
491             	3.58499499e+02
492             	3.58498073e+02
493             	3.58494540e+02
494             	3.58491590e+02
495             	3.58490690e+02
496             	3.58490537e+02
497             	3.58490586e+02
498             	3.58491298e+02
499             	3.58494900e+02
500             	3.58500982e+02
501             	3.58505157e+02
502             	3.58506566e+02
503             	3.58507169e+02
504             	3.58507280e+02
505             	3.58505001e+02
506             	3.58500424e+02
507             	3.58495360e+02
508             	3.58492239e+02
509             	3.58490019e+02
510             	3.58489180e+02
511             	3.58490459e+02
512             	3.58494741e+02
513             	3.58500711e+02
514             	3.58504058e+02
515             	3.58505360e+02
516             	3.58506457e+02
517             	3.58506645e+02
518             	3.58505148e+02
519             	3.58500954e+02
520             	3.58495058e+02
521             	3.58491023e+02
522             	3.58489167e+02
523             	3.58488531e+02
524             	3.58491116e+02
525             	3.58495916e+02
526             	3.58500601e+02
527             	3.58503537e+02
528             	3.58504548e+02
529             	3.58504411e+02
530             	3.58504460e+02
531             	3.58503552e+02
532             	3.58501712e+02
533             	3.58497515e+02
534             	3.58494162e+02
535             	3.58492985e+02
536             	3.58491984e+02
537             	3.58491061e+02
538             	3.58490660e+02
539             	3.58493463e+02
540             	3.58499320e+02
541             	3.58501780e+02
542             	3.58502201e+02
543             	3.58504603e+02
544             	3.58508220e+02
545             	3.58508695e+02
546             	3.58506403e+02
547             	3.58503914e+02
548             	3.58501829e+02
549             	3.58499635e+02
550             	3.58497587e+02
551             	3.58496176e+02
552             	3.58496018e+02
553             	3.58496865e+02
554             	3.58497963e+02
555             	3.58499613e+02
556             	3.58503535e+02
557             	3.58507085e+02
558             	3.58508305e+02
559             	3.58508204e+02
560             	3.58508032e+02
561             	3.58506847e+02
562             	3.58505377e+02
563             	3.58503826e+02
564             	3.58502370e+02
565             	3.58500101e+02
566             	3.58498194e+02
567             	3.58496830e+02
568             	3.58496607e+02
569             	3.58497463e+02
570             	3.58498908e+02
571             	3.58500433e+02
572             	3.58501834e+02
573             	3.58503903e+02
574             	3.58505287e+02
575             	3.58505365e+02
576             	3.58504798e+02
577             	3.58504064e+02
578             	3.58502983e+02
579             	3.58501628e+02
580             	3.58501280e+02
581             	3.58501365e+02
582             	3.58501218e+02
583             	3.58501207e+02
584             	3.58500965e+02
585             	3.58501075e+02
586             	3.58501515e+02
587             	3.58502149e+02
588             	3.58503407e+02
589             	3.58504422e+02
590             	3.58504896e+02
591             	3.58504941e+02
592             	3.58503597e+02
593             	3.58502246e+02
594             	3.58501473e+02
595             	3.58500836e+02
596             	3.58499950e+02
597             	3.58499226e+02
598             	3.58500154e+02
599             	3.58501463e+02
600             	3.58502202e+02
601             	3.58502997e+02
602             	3.58503737e+02
603             	3.58504466e+02
604             	3.58505026e+02
605             	3.58505207e+02
606             	3.58504507e+02
607             	3.58503280e+02
608             	3.58501936e+02
609             	3.58500738e+02
610             	3.58499951e+02
611             	3.58499529e+02
612             	3.58499557e+02
613             	3.58499972e+02
614             	3.58500467e+02
615             	3.58500934e+02
616             	3.58501356e+02
617             	3.58501621e+02
618             	3.58501045e+02
619             	3.58500272e+02
620             	3.58499950e+02
621             	3.58499834e+02
