# Region        : cellZone component_4
# Cells         : 35
# Volume        : 5.37974721e-02
# Time          	volAverage(T)
1               	3.05009738e+02
2               	3.09830796e+02
3               	3.13045932e+02
4               	3.15250927e+02
5               	3.17397539e+02
6               	3.19704430e+02
7               	3.21927141e+02
8               	3.23820581e+02
9               	3.25428248e+02
10              	3.26936563e+02
11              	3.28369456e+02
12              	3.29697308e+02
13              	3.30885333e+02
14              	3.31855898e+02
15              	3.32506112e+02
16              	3.32847231e+02
17              	3.33101249e+02
18              	3.33498737e+02
19              	3.33719270e+02
20              	3.34028934e+02
21              	3.34545979e+02
22              	3.35129796e+02
23              	3.35463968e+02
24              	3.35959211e+02
25              	3.36641935e+02
26              	3.37636703e+02
27              	3.38692219e+02
28              	3.39502559e+02
29              	3.40213342e+02
30              	3.40826657e+02
31              	3.41424543e+02
32              	3.41722182e+02
33              	3.42101097e+02
34              	3.42360381e+02
35              	3.42592496e+02
36              	3.42700816e+02
37              	3.42600996e+02
38              	3.42234153e+02
39              	3.41782905e+02
40              	3.41087002e+02
41              	3.40600505e+02
42              	3.40762266e+02
43              	3.41346096e+02
44              	3.41862907e+02
45              	3.42163646e+02
46              	3.42396490e+02
47              	3.42597362e+02
48              	3.42678393e+02
49              	3.42699755e+02
50              	3.42699164e+02
51              	3.42777706e+02
52              	3.42587452e+02
53              	3.42449092e+02
54              	3.42392831e+02
55              	3.42304651e+02
56              	3.42221753e+02
57              	3.42246385e+02
58              	3.42217628e+02
59              	3.42048716e+02
60              	3.41978072e+02
61              	3.41715985e+02
62              	3.41624502e+02
63              	3.41595564e+02
64              	3.41637947e+02
65              	3.41657859e+02
66              	3.41581866e+02
67              	3.41545555e+02
68              	3.41458163e+02
69              	3.41312666e+02
70              	3.41129953e+02
71              	3.41029746e+02
72              	3.40767756e+02
73              	3.40289154e+02
74              	3.39514967e+02
75              	3.39078916e+02
76              	3.39159928e+02
77              	3.39511357e+02
78              	3.39491992e+02
79              	3.39193768e+02
80              	3.38941872e+02
81              	3.38783816e+02
82              	3.38613061e+02
83              	3.38558552e+02
84              	3.38449560e+02
85              	3.38116056e+02
86              	3.37851843e+02
87              	3.37456199e+02
88              	3.37285943e+02
89              	3.37134661e+02
90              	3.37139306e+02
91              	3.37341627e+02
92              	3.37422701e+02
93              	3.37410066e+02
94              	3.37357755e+02
95              	3.37335359e+02
96              	3.37479370e+02
97              	3.37688441e+02
98              	3.37911121e+02
99              	3.38059457e+02
100             	3.38244851e+02
101             	3.38526526e+02
102             	3.38884441e+02
103             	3.39056034e+02
104             	3.39222402e+02
105             	3.39409806e+02
106             	3.39685035e+02
107             	3.39966918e+02
108             	3.40136994e+02
109             	3.40127430e+02
110             	3.40103063e+02
111             	3.40269778e+02
112             	3.40527905e+02
113             	3.40671922e+02
114             	3.40667356e+02
115             	3.40653084e+02
116             	3.40703669e+02
117             	3.40826992e+02
118             	3.40873056e+02
119             	3.40781141e+02
120             	3.40698571e+02
121             	3.40651810e+02
122             	3.40551310e+02
123             	3.40537979e+02
124             	3.40370283e+02
125             	3.39990472e+02
126             	3.39538899e+02
127             	3.39156592e+02
128             	3.39274868e+02
129             	3.39578280e+02
130             	3.39749403e+02
131             	3.39642157e+02
132             	3.39511884e+02
133             	3.39377249e+02
134             	3.39320985e+02
135             	3.39309922e+02
136             	3.39181142e+02
137             	3.39246435e+02
138             	3.39290727e+02
139             	3.39513089e+02
140             	3.39803640e+02
141             	3.40032251e+02
142             	3.40159967e+02
143             	3.40219688e+02
144             	3.40292771e+02
145             	3.40391549e+02
146             	3.40531892e+02
147             	3.40694485e+02
148             	3.40743160e+02
149             	3.40777320e+02
150             	3.40815593e+02
151             	3.40819843e+02
152             	3.40885768e+02
153             	3.41079150e+02
154             	3.41223213e+02
155             	3.41257945e+02
156             	3.41274955e+02
157             	3.41230979e+02
158             	3.41248559e+02
159             	3.41245195e+02
160             	3.41113234e+02
161             	3.41069276e+02
162             	3.40956130e+02
163             	3.40958247e+02
164             	3.41032926e+02
165             	3.41138654e+02
166             	3.41172976e+02
167             	3.41159528e+02
168             	3.41114838e+02
169             	3.41045248e+02
170             	3.40989294e+02
171             	3.40972704e+02
172             	3.41015129e+02
173             	3.41058639e+02
174             	3.41148492e+02
175             	3.41238739e+02
176             	3.41318384e+02
177             	3.41412225e+02
178             	3.41586825e+02
179             	3.41731340e+02
180             	3.41838743e+02
181             	3.41954507e+02
182             	3.42049210e+02
183             	3.42147050e+02
184             	3.42231849e+02
185             	3.42225184e+02
186             	3.42248079e+02
187             	3.42209719e+02
188             	3.42326692e+02
189             	3.42393771e+02
190             	3.42399494e+02
191             	3.42461586e+02
192             	3.42566650e+02
193             	3.42658970e+02
194             	3.42757259e+02
195             	3.42864657e+02
196             	3.42973234e+02
197             	3.43131253e+02
198             	3.43237794e+02
199             	3.43430945e+02
200             	3.43569959e+02
201             	3.43732043e+02
202             	3.43895108e+02
203             	3.44011164e+02
204             	3.44089621e+02
205             	3.44136885e+02
206             	3.44176733e+02
207             	3.44222867e+02
208             	3.44291417e+02
209             	3.44365550e+02
210             	3.44446104e+02
211             	3.44543080e+02
212             	3.44639937e+02
213             	3.44737188e+02
214             	3.44833179e+02
215             	3.44922318e+02
216             	3.45016195e+02
217             	3.45124314e+02
218             	3.45255186e+02
219             	3.45392182e+02
220             	3.45521364e+02
221             	3.45648603e+02
222             	3.45797335e+02
223             	3.45962419e+02
224             	3.46126771e+02
225             	3.46276409e+02
226             	3.46408079e+02
227             	3.46482309e+02
228             	3.46551740e+02
229             	3.46636655e+02
230             	3.46685714e+02
231             	3.46724802e+02
232             	3.46776104e+02
233             	3.46837190e+02
234             	3.46890016e+02
235             	3.46918412e+02
236             	3.46903985e+02
237             	3.46903403e+02
238             	3.46929030e+02
239             	3.46932779e+02
240             	3.46906699e+02
241             	3.46868580e+02
242             	3.46845323e+02
243             	3.46849949e+02
244             	3.46881273e+02
245             	3.46926013e+02
246             	3.46962985e+02
247             	3.47000974e+02
248             	3.46989305e+02
249             	3.46949348e+02
250             	3.46922942e+02
251             	3.46871403e+02
252             	3.46804768e+02
253             	3.46751459e+02
254             	3.46710471e+02
255             	3.46658133e+02
256             	3.46622420e+02
257             	3.46641743e+02
258             	3.46687835e+02
259             	3.46713696e+02
260             	3.46721390e+02
261             	3.46739121e+02
262             	3.46789689e+02
263             	3.46864432e+02
264             	3.46948097e+02
265             	3.47049453e+02
266             	3.47102372e+02
267             	3.47156110e+02
268             	3.47187480e+02
269             	3.47215310e+02
270             	3.47259224e+02
271             	3.47308246e+02
272             	3.47361727e+02
273             	3.47410643e+02
274             	3.47441256e+02
275             	3.47455892e+02
276             	3.47464349e+02
277             	3.47473950e+02
278             	3.47483690e+02
279             	3.47487059e+02
280             	3.47480616e+02
281             	3.47472064e+02
282             	3.47466986e+02
283             	3.47465787e+02
284             	3.47452215e+02
285             	3.47463369e+02
286             	3.47506120e+02
287             	3.47542424e+02
288             	3.47556516e+02
289             	3.47562060e+02
290             	3.47582309e+02
291             	3.47618744e+02
292             	3.47649242e+02
293             	3.47670424e+02
294             	3.47677131e+02
295             	3.47674661e+02
296             	3.47668086e+02
297             	3.47666110e+02
298             	3.47669488e+02
299             	3.47671751e+02
300             	3.47667614e+02
301             	3.47657513e+02
302             	3.47644872e+02
303             	3.47622094e+02
304             	3.47618691e+02
305             	3.47631701e+02
306             	3.47641488e+02
307             	3.47643600e+02
308             	3.47645735e+02
309             	3.47650108e+02
310             	3.47656996e+02
311             	3.47668587e+02
312             	3.47688409e+02
313             	3.47715563e+02
314             	3.47746938e+02
315             	3.47775492e+02
316             	3.47783328e+02
317             	3.47778617e+02
318             	3.47774718e+02
319             	3.47778660e+02
320             	3.47787214e+02
321             	3.47793082e+02
322             	3.47794063e+02
323             	3.47793970e+02
324             	3.47794304e+02
325             	3.47794042e+02
326             	3.47792874e+02
327             	3.47788153e+02
328             	3.47796043e+02
329             	3.47811374e+02
330             	3.47820281e+02
331             	3.47821556e+02
332             	3.47819630e+02
333             	3.47821142e+02
334             	3.47828734e+02
335             	3.47840320e+02
336             	3.47852330e+02
337             	3.47863580e+02
338             	3.47876469e+02
339             	3.47881745e+02
340             	3.47879784e+02
341             	3.47878719e+02
342             	3.47880774e+02
343             	3.47884211e+02
344             	3.47883037e+02
345             	3.47872445e+02
346             	3.47857803e+02
347             	3.47846169e+02
348             	3.47831533e+02
349             	3.47834648e+02
350             	3.47850154e+02
351             	3.47858787e+02
352             	3.47859058e+02
353             	3.47861555e+02
354             	3.47870242e+02
355             	3.47881294e+02
356             	3.47889309e+02
357             	3.47889527e+02
358             	3.47874397e+02
359             	3.47858047e+02
360             	3.47855968e+02
361             	3.47864133e+02
362             	3.47870835e+02
363             	3.47871116e+02
364             	3.47864545e+02
365             	3.47862603e+02
366             	3.47864456e+02
367             	3.47862705e+02
368             	3.47855735e+02
369             	3.47847226e+02
370             	3.47841822e+02
371             	3.47841493e+02
372             	3.47844539e+02
373             	3.47848368e+02
374             	3.47852234e+02
375             	3.47857688e+02
376             	3.47865103e+02
377             	3.47873032e+02
378             	3.47880214e+02
379             	3.47886945e+02
380             	3.47893448e+02
381             	3.47900571e+02
382             	3.47903397e+02
383             	3.47898992e+02
384             	3.47894424e+02
385             	3.47896296e+02
386             	3.47903597e+02
387             	3.47909466e+02
388             	3.47912417e+02
389             	3.47912323e+02
390             	3.47908979e+02
391             	3.47903215e+02
392             	3.47896667e+02
393             	3.47891107e+02
394             	3.47886885e+02
395             	3.47883982e+02
396             	3.47881537e+02
397             	3.47878955e+02
398             	3.47876410e+02
399             	3.47875128e+02
400             	3.47874991e+02
401             	3.47874221e+02
402             	3.47871504e+02
403             	3.47869480e+02
404             	3.47869838e+02
405             	3.47871360e+02
406             	3.47873119e+02
407             	3.47874678e+02
408             	3.47876456e+02
409             	3.47879073e+02
410             	3.47882692e+02
411             	3.47887288e+02
412             	3.47891663e+02
413             	3.47894467e+02
414             	3.47893064e+02
415             	3.47890502e+02
416             	3.47890122e+02
417             	3.47891567e+02
418             	3.47893523e+02
419             	3.47896874e+02
420             	3.47900310e+02
421             	3.47902224e+02
422             	3.47903168e+02
423             	3.47904356e+02
424             	3.47906044e+02
425             	3.47907763e+02
426             	3.47908302e+02
427             	3.47906274e+02
428             	3.47903727e+02
429             	3.47902683e+02
430             	3.47902828e+02
431             	3.47903751e+02
432             	3.47906738e+02
433             	3.47910327e+02
434             	3.47912254e+02
435             	3.47912266e+02
436             	3.47912004e+02
437             	3.47912513e+02
438             	3.47913553e+02
439             	3.47914326e+02
440             	3.47915111e+02
441             	3.47916130e+02
442             	3.47917385e+02
443             	3.47918816e+02
444             	3.47920315e+02
445             	3.47922003e+02
446             	3.47920510e+02
447             	3.47917041e+02
448             	3.47915044e+02
449             	3.47914765e+02
450             	3.47914349e+02
451             	3.47912661e+02
452             	3.47911769e+02
453             	3.47913151e+02
454             	3.47915103e+02
455             	3.47916570e+02
456             	3.47917418e+02
457             	3.47918050e+02
458             	3.47918998e+02
459             	3.47921360e+02
460             	3.47923227e+02
461             	3.47923743e+02
462             	3.47921753e+02
463             	3.47919118e+02
464             	3.47918057e+02
465             	3.47918667e+02
466             	3.47919164e+02
467             	3.47918705e+02
468             	3.47917990e+02
469             	3.47917626e+02
470             	3.47917378e+02
471             	3.47916865e+02
472             	3.47915512e+02
473             	3.47913672e+02
474             	3.47911986e+02
475             	3.47911095e+02
476             	3.47910750e+02
477             	3.47911865e+02
478             	3.47913857e+02
479             	3.47915340e+02
480             	3.47916334e+02
481             	3.47917556e+02
482             	3.47919399e+02
483             	3.47921647e+02
484             	3.47923390e+02
485             	3.47923931e+02
486             	3.47923738e+02
487             	3.47922462e+02
488             	3.47921035e+02
489             	3.47920588e+02
490             	3.47920641e+02
491             	3.47920542e+02
492             	3.47919677e+02
493             	3.47918281e+02
494             	3.47916778e+02
495             	3.47915500e+02
496             	3.47915894e+02
497             	3.47918310e+02
498             	3.47920140e+02
499             	3.47920027e+02
500             	3.47919126e+02
501             	3.47919111e+02
502             	3.47919472e+02
503             	3.47918753e+02
504             	3.47918029e+02
505             	3.47917253e+02
506             	3.47916672e+02
507             	3.47916541e+02
508             	3.47916292e+02
509             	3.47915972e+02
510             	3.47916209e+02
511             	3.47917390e+02
512             	3.47918337e+02
513             	3.47917744e+02
514             	3.47916405e+02
515             	3.47915545e+02
516             	3.47915487e+02
517             	3.47915239e+02
518             	3.47914752e+02
519             	3.47914722e+02
520             	3.47915160e+02
521             	3.47915618e+02
522             	3.47916424e+02
523             	3.47917458e+02
524             	3.47918263e+02
525             	3.47918155e+02
526             	3.47917592e+02
527             	3.47917437e+02
528             	3.47917786e+02
529             	3.47917378e+02
530             	3.47915777e+02
531             	3.47914002e+02
532             	3.47913364e+02
533             	3.47913392e+02
534             	3.47913439e+02
535             	3.47913651e+02
536             	3.47914883e+02
537             	3.47916321e+02
538             	3.47916976e+02
539             	3.47917097e+02
540             	3.47917257e+02
541             	3.47917599e+02
542             	3.47917674e+02
543             	3.47916970e+02
544             	3.47916334e+02
545             	3.47916396e+02
546             	3.47916929e+02
547             	3.47917598e+02
548             	3.47918705e+02
549             	3.47919721e+02
550             	3.47920022e+02
551             	3.47919716e+02
552             	3.47919327e+02
553             	3.47919195e+02
554             	3.47919284e+02
555             	3.47919244e+02
556             	3.47918927e+02
557             	3.47918654e+02
558             	3.47918459e+02
559             	3.47918262e+02
560             	3.47918154e+02
561             	3.47918104e+02
562             	3.47917891e+02
563             	3.47917372e+02
564             	3.47916866e+02
565             	3.47916771e+02
566             	3.47917688e+02
567             	3.47918896e+02
568             	3.47919551e+02
569             	3.47919759e+02
570             	3.47919805e+02
571             	3.47919694e+02
572             	3.47919903e+02
573             	3.47920359e+02
574             	3.47920687e+02
575             	3.47920877e+02
576             	3.47921147e+02
577             	3.47921724e+02
578             	3.47922294e+02
579             	3.47922700e+02
580             	3.47923050e+02
581             	3.47923240e+02
582             	3.47923305e+02
583             	3.47923206e+02
584             	3.47922927e+02
585             	3.47922565e+02
586             	3.47922343e+02
587             	3.47922162e+02
588             	3.47921974e+02
589             	3.47921687e+02
590             	3.47921347e+02
591             	3.47920977e+02
592             	3.47920645e+02
593             	3.47920358e+02
594             	3.47920059e+02
595             	3.47919810e+02
596             	3.47919574e+02
597             	3.47919314e+02
598             	3.47919197e+02
599             	3.47919350e+02
600             	3.47919566e+02
601             	3.47919627e+02
602             	3.47919630e+02
603             	3.47919740e+02
604             	3.47920022e+02
605             	3.47920318e+02
606             	3.47920543e+02
607             	3.47920843e+02
608             	3.47921189e+02
609             	3.47921440e+02
610             	3.47921659e+02
611             	3.47921963e+02
612             	3.47922373e+02
613             	3.47922660e+02
614             	3.47922507e+02
615             	3.47922137e+02
616             	3.47921921e+02
617             	3.47921923e+02
618             	3.47921895e+02
619             	3.47921747e+02
620             	3.47921609e+02
621             	3.47921504e+02
