# Region        : cellZone component_4
# Cells         : 50
# Volume        : 7.91392987e-02
# Time          	volAverage(T)
1               	3.01680798e+02
2               	3.03319657e+02
3               	3.04705385e+02
4               	3.05951104e+02
5               	3.07145768e+02
6               	3.08317354e+02
7               	3.09463292e+02
8               	3.10578684e+02
9               	3.11656200e+02
10              	3.12716675e+02
11              	3.13743527e+02
12              	3.14732714e+02
13              	3.15705006e+02
14              	3.16651638e+02
15              	3.17547195e+02
16              	3.18415440e+02
17              	3.19251917e+02
18              	3.20053829e+02
19              	3.20826093e+02
20              	3.21577282e+02
21              	3.22281854e+02
22              	3.22934821e+02
23              	3.23535643e+02
24              	3.24112901e+02
25              	3.24685644e+02
26              	3.25274545e+02
27              	3.25863961e+02
28              	3.26399600e+02
29              	3.26919751e+02
30              	3.27385572e+02
31              	3.27823122e+02
32              	3.28238659e+02
33              	3.28637924e+02
34              	3.29016644e+02
35              	3.29369511e+02
36              	3.29719714e+02
37              	3.30078698e+02
38              	3.30460007e+02
39              	3.30835532e+02
40              	3.31203220e+02
41              	3.31551004e+02
42              	3.31871649e+02
43              	3.32187876e+02
44              	3.32514626e+02
45              	3.32819964e+02
46              	3.33098043e+02
47              	3.33326967e+02
48              	3.33533617e+02
49              	3.33723625e+02
50              	3.33962315e+02
51              	3.34193765e+02
52              	3.34483571e+02
53              	3.34795141e+02
54              	3.35120390e+02
55              	3.35436558e+02
56              	3.35764105e+02
57              	3.36111416e+02
58              	3.36445359e+02
59              	3.36790600e+02
60              	3.37123564e+02
61              	3.37422379e+02
62              	3.37723360e+02
63              	3.38010466e+02
64              	3.38320677e+02
65              	3.38624141e+02
66              	3.38939047e+02
67              	3.39224903e+02
68              	3.39489031e+02
69              	3.39767173e+02
70              	3.40006286e+02
71              	3.40221950e+02
72              	3.40402445e+02
73              	3.40596411e+02
74              	3.40806417e+02
75              	3.41037298e+02
76              	3.41292765e+02
77              	3.41560315e+02
78              	3.41843605e+02
79              	3.42116821e+02
80              	3.42387033e+02
81              	3.42616689e+02
82              	3.42826077e+02
83              	3.43032117e+02
84              	3.43227831e+02
85              	3.43426075e+02
86              	3.43644448e+02
87              	3.43883527e+02
88              	3.44138126e+02
89              	3.44403100e+02
90              	3.44672702e+02
91              	3.44942384e+02
92              	3.45209307e+02
93              	3.45487732e+02
94              	3.45738794e+02
95              	3.45953524e+02
96              	3.46074446e+02
97              	3.46205234e+02
98              	3.46299790e+02
99              	3.46389683e+02
100             	3.46478514e+02
101             	3.46548073e+02
102             	3.46604061e+02
103             	3.46642846e+02
104             	3.46671109e+02
105             	3.46712321e+02
106             	3.46745749e+02
107             	3.46784312e+02
108             	3.46840611e+02
109             	3.46923068e+02
110             	3.47031677e+02
111             	3.47173777e+02
112             	3.47347834e+02
113             	3.47546976e+02
114             	3.47743546e+02
115             	3.47902549e+02
116             	3.48037696e+02
117             	3.48137702e+02
118             	3.48205041e+02
119             	3.48240059e+02
120             	3.48241200e+02
121             	3.48238853e+02
122             	3.48225108e+02
123             	3.48204083e+02
124             	3.48174665e+02
125             	3.48145541e+02
126             	3.48129957e+02
127             	3.48124272e+02
128             	3.48126307e+02
129             	3.48129858e+02
130             	3.48145276e+02
131             	3.48172730e+02
132             	3.48229463e+02
133             	3.48289906e+02
134             	3.48375775e+02
135             	3.48505899e+02
136             	3.48663698e+02
137             	3.48838958e+02
138             	3.49006959e+02
139             	3.49182976e+02
140             	3.49357875e+02
141             	3.49510927e+02
142             	3.49632520e+02
143             	3.49728120e+02
144             	3.49811637e+02
145             	3.49864394e+02
146             	3.49892405e+02
147             	3.49903326e+02
148             	3.49897538e+02
149             	3.49899609e+02
150             	3.49910577e+02
151             	3.49923056e+02
152             	3.49937551e+02
153             	3.49953761e+02
154             	3.49985786e+02
155             	3.50001414e+02
156             	3.50048038e+02
157             	3.50114284e+02
158             	3.50196179e+02
159             	3.50294486e+02
160             	3.50386781e+02
161             	3.50465461e+02
162             	3.50571239e+02
163             	3.50702737e+02
164             	3.50828788e+02
165             	3.50960473e+02
166             	3.51088604e+02
167             	3.51213282e+02
168             	3.51330853e+02
169             	3.51371388e+02
170             	3.51422617e+02
171             	3.51458053e+02
172             	3.51473685e+02
173             	3.51466414e+02
174             	3.51448352e+02
175             	3.51427709e+02
176             	3.51402374e+02
177             	3.51369548e+02
178             	3.51365174e+02
179             	3.51395604e+02
180             	3.51449494e+02
181             	3.51512581e+02
182             	3.51572013e+02
183             	3.51615103e+02
184             	3.51635540e+02
185             	3.51612689e+02
186             	3.51575316e+02
187             	3.51503609e+02
188             	3.51439063e+02
189             	3.51384448e+02
190             	3.51358379e+02
191             	3.51365354e+02
192             	3.51386895e+02
193             	3.51430222e+02
194             	3.51481203e+02
195             	3.51543946e+02
196             	3.51614046e+02
197             	3.51691471e+02
198             	3.51758033e+02
199             	3.51823117e+02
200             	3.51902367e+02
201             	3.51985703e+02
202             	3.52074282e+02
203             	3.52165021e+02
204             	3.52250860e+02
205             	3.52331904e+02
206             	3.52405869e+02
207             	3.52460565e+02
208             	3.52503595e+02
209             	3.52539531e+02
210             	3.52574955e+02
211             	3.52620206e+02
212             	3.52683662e+02
213             	3.52743415e+02
214             	3.52806479e+02
215             	3.52891301e+02
216             	3.52988982e+02
217             	3.53103034e+02
218             	3.53191085e+02
219             	3.53303314e+02
220             	3.53414223e+02
221             	3.53489267e+02
222             	3.53545565e+02
223             	3.53581864e+02
224             	3.53630412e+02
225             	3.53672664e+02
226             	3.53734150e+02
227             	3.53809840e+02
228             	3.53903146e+02
229             	3.54016849e+02
230             	3.54131365e+02
231             	3.54236768e+02
232             	3.54330117e+02
233             	3.54385209e+02
234             	3.54413583e+02
235             	3.54430341e+02
236             	3.54447211e+02
237             	3.54450834e+02
238             	3.54467614e+02
239             	3.54524007e+02
240             	3.54619766e+02
241             	3.54745805e+02
242             	3.54884486e+02
243             	3.55034517e+02
244             	3.55163868e+02
245             	3.55268876e+02
246             	3.55369552e+02
247             	3.55461271e+02
248             	3.55542828e+02
249             	3.55625280e+02
250             	3.55713587e+02
251             	3.55796049e+02
252             	3.55866331e+02
253             	3.55916696e+02
254             	3.55925404e+02
255             	3.55892638e+02
256             	3.55822654e+02
257             	3.55746007e+02
258             	3.55664256e+02
259             	3.55597974e+02
260             	3.55549812e+02
261             	3.55531446e+02
262             	3.55536524e+02
263             	3.55559181e+02
264             	3.55577182e+02
265             	3.55604633e+02
266             	3.55627486e+02
267             	3.55643074e+02
268             	3.55667429e+02
269             	3.55703076e+02
270             	3.55771249e+02
271             	3.55874789e+02
272             	3.56010588e+02
273             	3.56115348e+02
274             	3.56236939e+02
275             	3.56350952e+02
276             	3.56407073e+02
277             	3.56398298e+02
278             	3.56360778e+02
279             	3.56283402e+02
280             	3.56197866e+02
281             	3.56137902e+02
282             	3.56107888e+02
283             	3.56117148e+02
284             	3.56163243e+02
285             	3.56193657e+02
286             	3.56219686e+02
287             	3.56210178e+02
288             	3.56167600e+02
289             	3.56140594e+02
290             	3.56102162e+02
291             	3.56097368e+02
292             	3.56125296e+02
293             	3.56195957e+02
294             	3.56286073e+02
295             	3.56345552e+02
296             	3.56360769e+02
297             	3.56324814e+02
298             	3.56262757e+02
299             	3.56206301e+02
300             	3.56193247e+02
301             	3.56230231e+02
302             	3.56379987e+02
303             	3.56591564e+02
304             	3.56713054e+02
305             	3.56738879e+02
306             	3.56562921e+02
307             	3.56294351e+02
308             	3.55964277e+02
309             	3.55652136e+02
310             	3.55408578e+02
311             	3.55308530e+02
312             	3.55385618e+02
313             	3.55590756e+02
314             	3.55858182e+02
315             	3.55986222e+02
316             	3.56067005e+02
317             	3.55970498e+02
318             	3.55731614e+02
319             	3.55417229e+02
320             	3.55010529e+02
321             	3.54657191e+02
322             	3.54444119e+02
323             	3.54308056e+02
324             	3.54226290e+02
325             	3.54202631e+02
326             	3.54201129e+02
327             	3.54197129e+02
328             	3.54164284e+02
329             	3.54086831e+02
330             	3.53970038e+02
331             	3.53867923e+02
332             	3.53783545e+02
333             	3.53681308e+02
334             	3.53629240e+02
335             	3.53576355e+02
336             	3.53531901e+02
337             	3.53524263e+02
338             	3.53468809e+02
339             	3.53278594e+02
340             	3.53033193e+02
341             	3.52804309e+02
342             	3.52598159e+02
343             	3.52487765e+02
344             	3.52374384e+02
345             	3.52298203e+02
346             	3.52315863e+02
347             	3.52355583e+02
348             	3.52255997e+02
349             	3.52007111e+02
350             	3.51662736e+02
351             	3.51200990e+02
352             	3.50775752e+02
353             	3.50344570e+02
354             	3.49986657e+02
355             	3.49774772e+02
356             	3.49721069e+02
357             	3.49792540e+02
358             	3.49915831e+02
359             	3.50018982e+02
360             	3.49946402e+02
361             	3.49801856e+02
362             	3.49540504e+02
363             	3.49222134e+02
364             	3.48930182e+02
365             	3.48679129e+02
366             	3.48501597e+02
367             	3.48436001e+02
368             	3.48446484e+02
369             	3.48498272e+02
370             	3.48501546e+02
371             	3.48367419e+02
372             	3.48107282e+02
373             	3.47835203e+02
374             	3.47608119e+02
375             	3.47483631e+02
376             	3.47539861e+02
377             	3.47783784e+02
378             	3.48212597e+02
379             	3.48662359e+02
380             	3.48942053e+02
381             	3.49098682e+02
382             	3.48982529e+02
383             	3.48739453e+02
384             	3.48395414e+02
385             	3.48042049e+02
386             	3.47670839e+02
387             	3.47463191e+02
388             	3.47368155e+02
389             	3.47445565e+02
390             	3.47567353e+02
391             	3.47673472e+02
392             	3.47708854e+02
393             	3.47663319e+02
394             	3.47455824e+02
395             	3.47211908e+02
396             	3.46937872e+02
397             	3.46621263e+02
398             	3.46350228e+02
399             	3.46168339e+02
400             	3.46088831e+02
401             	3.46082692e+02
402             	3.46090680e+02
403             	3.46062138e+02
404             	3.45936308e+02
405             	3.45736623e+02
406             	3.45551689e+02
407             	3.45388965e+02
408             	3.45348860e+02
409             	3.45324637e+02
410             	3.45379415e+02
411             	3.45509667e+02
412             	3.45640709e+02
413             	3.45695364e+02
414             	3.45724660e+02
415             	3.45713383e+02
416             	3.45550376e+02
417             	3.45385506e+02
418             	3.45207639e+02
419             	3.45013276e+02
420             	3.44867498e+02
421             	3.44770895e+02
422             	3.44720163e+02
423             	3.44676429e+02
424             	3.44611899e+02
425             	3.44494770e+02
426             	3.44355254e+02
427             	3.44114912e+02
428             	3.43871862e+02
429             	3.43544769e+02
430             	3.43279251e+02
431             	3.43026563e+02
432             	3.42880195e+02
433             	3.42817121e+02
434             	3.42788687e+02
435             	3.42754327e+02
436             	3.42682206e+02
437             	3.42587956e+02
438             	3.42428918e+02
439             	3.42250987e+02
440             	3.42057712e+02
441             	3.41944932e+02
442             	3.41894182e+02
443             	3.41896245e+02
444             	3.42012375e+02
445             	3.42185936e+02
446             	3.42329485e+02
447             	3.42397961e+02
448             	3.42440025e+02
449             	3.42393868e+02
450             	3.42328556e+02
451             	3.42264216e+02
452             	3.42227012e+02
453             	3.42261548e+02
454             	3.42396864e+02
455             	3.42563798e+02
456             	3.42685297e+02
457             	3.42739113e+02
458             	3.42734664e+02
459             	3.42639697e+02
460             	3.42523125e+02
461             	3.42394098e+02
462             	3.42336071e+02
463             	3.42398087e+02
464             	3.42598012e+02
465             	3.42912335e+02
466             	3.43322879e+02
467             	3.43688025e+02
468             	3.43922085e+02
469             	3.44072850e+02
470             	3.43996736e+02
471             	3.43908444e+02
472             	3.43739232e+02
473             	3.43582835e+02
474             	3.43480168e+02
475             	3.43507521e+02
476             	3.43648000e+02
477             	3.43860669e+02
478             	3.44080812e+02
479             	3.44155976e+02
480             	3.44095326e+02
481             	3.43992841e+02
482             	3.43873257e+02
483             	3.43745019e+02
484             	3.43631405e+02
485             	3.43586624e+02
486             	3.43622475e+02
487             	3.43856685e+02
488             	3.44179143e+02
489             	3.44520182e+02
490             	3.44781857e+02
491             	3.44907556e+02
492             	3.44943325e+02
493             	3.44885465e+02
494             	3.44764174e+02
495             	3.44640369e+02
496             	3.44549437e+02
497             	3.44546221e+02
498             	3.44638356e+02
499             	3.44790159e+02
500             	3.44947885e+02
501             	3.44992727e+02
502             	3.44971107e+02
503             	3.44828752e+02
504             	3.44649301e+02
505             	3.44391596e+02
506             	3.44200157e+02
507             	3.44079746e+02
508             	3.43988422e+02
509             	3.43939821e+02
510             	3.43933861e+02
511             	3.43934681e+02
512             	3.43904539e+02
513             	3.43797431e+02
514             	3.43617802e+02
515             	3.43458091e+02
516             	3.43302472e+02
517             	3.43252848e+02
518             	3.43284681e+02
519             	3.43333636e+02
520             	3.43445608e+02
521             	3.43605127e+02
522             	3.43707390e+02
523             	3.43715082e+02
524             	3.43570896e+02
525             	3.43344388e+02
526             	3.43157616e+02
527             	3.42924768e+02
528             	3.42795602e+02
529             	3.42776036e+02
530             	3.42838936e+02
531             	3.42967593e+02
532             	3.43048182e+02
533             	3.42971194e+02
534             	3.42672248e+02
535             	3.42287953e+02
536             	3.41854057e+02
537             	3.41446175e+02
538             	3.41275057e+02
539             	3.41348264e+02
540             	3.41639393e+02
541             	3.42041570e+02
542             	3.42155471e+02
543             	3.42318975e+02
544             	3.42362523e+02
545             	3.42353011e+02
546             	3.42150273e+02
547             	3.41558091e+02
548             	3.40863017e+02
549             	3.39964605e+02
550             	3.39212892e+02
551             	3.38636167e+02
552             	3.38063373e+02
553             	3.37283962e+02
554             	3.36566083e+02
555             	3.36042573e+02
556             	3.35568114e+02
557             	3.34989995e+02
558             	3.34259093e+02
559             	3.33502210e+02
560             	3.32688935e+02
561             	3.32054236e+02
562             	3.31601526e+02
563             	3.31295839e+02
564             	3.31104978e+02
565             	3.30929518e+02
566             	3.30883386e+02
567             	3.30845931e+02
568             	3.30867107e+02
569             	3.30711579e+02
570             	3.30692059e+02
571             	3.30635514e+02
572             	3.30554427e+02
573             	3.30341819e+02
574             	3.30147704e+02
575             	3.30034529e+02
576             	3.30021310e+02
577             	3.30050489e+02
578             	3.30107580e+02
579             	3.30059498e+02
580             	3.29965113e+02
581             	3.29845565e+02
582             	3.29709359e+02
583             	3.29572825e+02
584             	3.29447067e+02
585             	3.29374072e+02
586             	3.29293229e+02
587             	3.29215340e+02
588             	3.29206008e+02
589             	3.29148761e+02
590             	3.29062324e+02
591             	3.28975146e+02
592             	3.28870498e+02
593             	3.28814843e+02
594             	3.28719229e+02
595             	3.28640932e+02
596             	3.28569917e+02
597             	3.28557678e+02
598             	3.28552301e+02
599             	3.28554845e+02
600             	3.28584656e+02
601             	3.28559347e+02
602             	3.28539790e+02
603             	3.28663165e+02
604             	3.28826103e+02
605             	3.28915031e+02
606             	3.29041041e+02
607             	3.29204481e+02
608             	3.29368728e+02
609             	3.29597516e+02
610             	3.29803144e+02
611             	3.29850653e+02
612             	3.29734736e+02
613             	3.29539994e+02
614             	3.29396304e+02
615             	3.29233209e+02
616             	3.29077716e+02
617             	3.28902190e+02
618             	3.28804749e+02
619             	3.28844433e+02
620             	3.28974929e+02
621             	3.29142663e+02
