# Region        : cellZone component_3
# Cells         : 104
# Volume        : 1.92978947e-01
# Time          	volAverage(T)
1               	3.00995624e+02
2               	3.01962369e+02
3               	3.02680715e+02
4               	3.03227910e+02
5               	3.03745647e+02
6               	3.04273817e+02
7               	3.04790317e+02
8               	3.05265100e+02
9               	3.05708846e+02
10              	3.06150268e+02
11              	3.06585815e+02
12              	3.07011862e+02
13              	3.07411110e+02
14              	3.07764020e+02
15              	3.08106458e+02
16              	3.08430616e+02
17              	3.08744644e+02
18              	3.09052492e+02
19              	3.09342002e+02
20              	3.09609386e+02
21              	3.09848603e+02
22              	3.10060397e+02
23              	3.10249105e+02
24              	3.10416420e+02
25              	3.10538823e+02
26              	3.10647128e+02
27              	3.10763861e+02
28              	3.10903884e+02
29              	3.11072066e+02
30              	3.11287507e+02
31              	3.11490651e+02
32              	3.11627599e+02
33              	3.11742002e+02
34              	3.11827415e+02
35              	3.11895411e+02
36              	3.11954631e+02
37              	3.12008065e+02
38              	3.12033736e+02
39              	3.12042119e+02
40              	3.12070538e+02
41              	3.12139464e+02
42              	3.12220887e+02
43              	3.12279118e+02
44              	3.12262769e+02
45              	3.12208091e+02
46              	3.12182948e+02
47              	3.12186987e+02
48              	3.12206960e+02
49              	3.12215647e+02
50              	3.12207949e+02
51              	3.12187928e+02
52              	3.12165213e+02
53              	3.12159416e+02
54              	3.12181420e+02
55              	3.12233704e+02
56              	3.12346367e+02
57              	3.12318696e+02
58              	3.12140392e+02
59              	3.11963403e+02
60              	3.11842679e+02
61              	3.11846317e+02
62              	3.11877810e+02
63              	3.11880673e+02
64              	3.11856405e+02
65              	3.11816513e+02
66              	3.11817584e+02
67              	3.11859875e+02
68              	3.11922321e+02
69              	3.12011517e+02
70              	3.12010841e+02
71              	3.11856567e+02
72              	3.11719711e+02
73              	3.11638848e+02
74              	3.11653781e+02
75              	3.11668349e+02
76              	3.11642174e+02
77              	3.11596957e+02
78              	3.11561756e+02
79              	3.11565350e+02
80              	3.11610998e+02
81              	3.11684746e+02
82              	3.11792636e+02
83              	3.11909496e+02
84              	3.11925714e+02
85              	3.11898382e+02
86              	3.11871705e+02
87              	3.11879695e+02
88              	3.11902160e+02
89              	3.11922045e+02
90              	3.11950247e+02
91              	3.11987459e+02
92              	3.12031912e+02
93              	3.12082481e+02
94              	3.12133732e+02
95              	3.12180637e+02
96              	3.12236353e+02
97              	3.12303059e+02
98              	3.12365366e+02
99              	3.12419471e+02
100             	3.12469973e+02
101             	3.12534850e+02
102             	3.12604353e+02
103             	3.12675087e+02
104             	3.12753004e+02
105             	3.12821362e+02
106             	3.12867776e+02
107             	3.12904911e+02
108             	3.12935878e+02
109             	3.12951253e+02
110             	3.12954806e+02
111             	3.12952400e+02
112             	3.12939454e+02
113             	3.12933040e+02
114             	3.12947273e+02
115             	3.12972435e+02
116             	3.13016918e+02
117             	3.13094812e+02
118             	3.13151676e+02
119             	3.13164665e+02
120             	3.13167979e+02
121             	3.13173291e+02
122             	3.13157251e+02
123             	3.13125170e+02
124             	3.13086322e+02
125             	3.13041717e+02
126             	3.13028300e+02
127             	3.13049881e+02
128             	3.13087832e+02
129             	3.13136416e+02
130             	3.13206749e+02
131             	3.13261214e+02
132             	3.13323465e+02
133             	3.13372444e+02
134             	3.13395179e+02
135             	3.13392764e+02
136             	3.13379466e+02
137             	3.13356542e+02
138             	3.13348923e+02
139             	3.13347327e+02
140             	3.13345238e+02
141             	3.13343306e+02
142             	3.13348712e+02
143             	3.13368381e+02
144             	3.13405092e+02
145             	3.13457795e+02
146             	3.13513054e+02
147             	3.13561273e+02
148             	3.13596006e+02
149             	3.13620944e+02
150             	3.13630608e+02
151             	3.13629562e+02
152             	3.13623445e+02
153             	3.13614135e+02
154             	3.13606945e+02
155             	3.13602653e+02
156             	3.13597468e+02
157             	3.13598712e+02
158             	3.13609101e+02
159             	3.13624732e+02
160             	3.13644962e+02
161             	3.13667629e+02
162             	3.13690835e+02
163             	3.13714990e+02
164             	3.13728551e+02
165             	3.13739265e+02
166             	3.13750235e+02
167             	3.13759461e+02
168             	3.13764826e+02
169             	3.13768681e+02
170             	3.13772703e+02
171             	3.13775599e+02
172             	3.13777614e+02
173             	3.13780406e+02
174             	3.13783972e+02
175             	3.13788234e+02
176             	3.13779137e+02
177             	3.13778996e+02
178             	3.13791209e+02
179             	3.13807384e+02
180             	3.13825096e+02
181             	3.13842611e+02
182             	3.13858970e+02
183             	3.13872652e+02
184             	3.13881905e+02
185             	3.13888033e+02
186             	3.13890107e+02
187             	3.13893664e+02
188             	3.13898486e+02
189             	3.13904081e+02
190             	3.13905355e+02
191             	3.13906590e+02
192             	3.13909845e+02
193             	3.13907732e+02
194             	3.13898099e+02
195             	3.13897890e+02
196             	3.13905517e+02
197             	3.13914860e+02
198             	3.13923363e+02
199             	3.13931470e+02
200             	3.13939002e+02
201             	3.13943013e+02
202             	3.13946000e+02
203             	3.13949955e+02
204             	3.13955073e+02
205             	3.13962959e+02
206             	3.13972657e+02
207             	3.13983498e+02
208             	3.13993257e+02
209             	3.14000126e+02
210             	3.14001339e+02
211             	3.14001061e+02
212             	3.13999713e+02
213             	3.13997191e+02
214             	3.13986050e+02
215             	3.13982140e+02
216             	3.13984536e+02
217             	3.13990373e+02
218             	3.13998796e+02
219             	3.14007438e+02
220             	3.14016863e+02
221             	3.14028264e+02
222             	3.14039837e+02
223             	3.14050105e+02
224             	3.14055976e+02
225             	3.14057805e+02
226             	3.14059167e+02
227             	3.14062982e+02
228             	3.14067843e+02
229             	3.14056526e+02
230             	3.14049580e+02
231             	3.14050323e+02
232             	3.14047830e+02
233             	3.14046655e+02
234             	3.14051123e+02
235             	3.14058569e+02
236             	3.14067949e+02
237             	3.14078026e+02
238             	3.14086555e+02
239             	3.14091886e+02
240             	3.14092972e+02
241             	3.14092291e+02
242             	3.14089528e+02
243             	3.14084678e+02
244             	3.14079193e+02
245             	3.14074799e+02
246             	3.14070781e+02
247             	3.14067067e+02
248             	3.14065955e+02
249             	3.14067132e+02
250             	3.14067154e+02
251             	3.14066855e+02
252             	3.14066780e+02
253             	3.14066213e+02
254             	3.14065211e+02
255             	3.14064280e+02
256             	3.14064490e+02
257             	3.14066163e+02
258             	3.14069783e+02
259             	3.14073037e+02
260             	3.14077278e+02
261             	3.14082397e+02
262             	3.14088553e+02
263             	3.14095058e+02
264             	3.14100079e+02
265             	3.14103295e+02
266             	3.14103862e+02
267             	3.14102374e+02
268             	3.14099954e+02
269             	3.14097225e+02
270             	3.14095089e+02
271             	3.14090327e+02
272             	3.14085160e+02
273             	3.14083139e+02
274             	3.14084765e+02
275             	3.14088234e+02
276             	3.14092387e+02
277             	3.14097150e+02
278             	3.14103046e+02
279             	3.14108288e+02
280             	3.14110867e+02
281             	3.14112563e+02
282             	3.14114216e+02
283             	3.14115756e+02
284             	3.14116617e+02
285             	3.14116499e+02
286             	3.14115573e+02
287             	3.14114336e+02
288             	3.14113103e+02
289             	3.14112397e+02
290             	3.14110641e+02
291             	3.14109326e+02
292             	3.14108484e+02
293             	3.14108179e+02
294             	3.14107661e+02
295             	3.14107733e+02
296             	3.14108466e+02
297             	3.14109169e+02
298             	3.14109699e+02
299             	3.14110424e+02
300             	3.14112007e+02
301             	3.14114230e+02
302             	3.14116743e+02
303             	3.14119510e+02
304             	3.14122288e+02
305             	3.14125428e+02
306             	3.14126729e+02
307             	3.14128089e+02
308             	3.14129213e+02
309             	3.14129783e+02
310             	3.14129873e+02
311             	3.14129747e+02
312             	3.14129448e+02
313             	3.14129060e+02
314             	3.14128634e+02
315             	3.14127531e+02
316             	3.14127028e+02
317             	3.14127041e+02
318             	3.14127495e+02
319             	3.14128145e+02
320             	3.14129650e+02
321             	3.14131871e+02
322             	3.14134214e+02
323             	3.14135829e+02
324             	3.14137899e+02
325             	3.14140189e+02
326             	3.14142046e+02
327             	3.14143089e+02
328             	3.14143704e+02
329             	3.14143856e+02
330             	3.14143851e+02
331             	3.14143622e+02
332             	3.14143385e+02
333             	3.14143269e+02
334             	3.14142745e+02
335             	3.14142009e+02
336             	3.14141694e+02
337             	3.14141268e+02
338             	3.14141299e+02
339             	3.14140976e+02
340             	3.14141123e+02
341             	3.14141941e+02
342             	3.14143169e+02
343             	3.14144759e+02
344             	3.14146387e+02
345             	3.14148463e+02
346             	3.14151238e+02
347             	3.14153640e+02
348             	3.14155820e+02
349             	3.14157212e+02
350             	3.14158668e+02
351             	3.14160203e+02
352             	3.14161842e+02
353             	3.14162850e+02
354             	3.14164811e+02
355             	3.14166825e+02
356             	3.14168407e+02
357             	3.14169311e+02
358             	3.14170275e+02
359             	3.14170019e+02
360             	3.14169824e+02
361             	3.14169144e+02
362             	3.14167712e+02
363             	3.14166670e+02
364             	3.14165644e+02
365             	3.14165201e+02
366             	3.14165202e+02
367             	3.14165504e+02
368             	3.14166097e+02
369             	3.14166141e+02
370             	3.14165527e+02
371             	3.14165245e+02
372             	3.14164688e+02
373             	3.14163249e+02
374             	3.14161886e+02
375             	3.14161876e+02
376             	3.14161431e+02
377             	3.14160973e+02
378             	3.14162156e+02
379             	3.14162714e+02
380             	3.14164172e+02
381             	3.14165971e+02
382             	3.14166683e+02
383             	3.14167047e+02
384             	3.14166985e+02
385             	3.14167207e+02
386             	3.14167286e+02
387             	3.14166555e+02
388             	3.14166105e+02
389             	3.14166480e+02
390             	3.14166838e+02
391             	3.14167074e+02
392             	3.14167302e+02
393             	3.14167127e+02
394             	3.14167223e+02
395             	3.14166989e+02
396             	3.14167056e+02
397             	3.14165359e+02
398             	3.14164262e+02
399             	3.14164640e+02
400             	3.14166108e+02
401             	3.14168094e+02
402             	3.14167975e+02
403             	3.14167945e+02
404             	3.14168804e+02
405             	3.14169372e+02
406             	3.14170113e+02
407             	3.14169237e+02
408             	3.14167691e+02
409             	3.14168315e+02
410             	3.14167526e+02
411             	3.14162470e+02
412             	3.14159237e+02
413             	3.14160915e+02
414             	3.14164746e+02
415             	3.14167982e+02
416             	3.14169260e+02
417             	3.14169691e+02
418             	3.14169463e+02
419             	3.14168970e+02
420             	3.14167604e+02
421             	3.14164463e+02
422             	3.14160420e+02
423             	3.14148757e+02
424             	3.14144646e+02
425             	3.14144069e+02
426             	3.14148073e+02
427             	3.14156484e+02
428             	3.14163346e+02
429             	3.14168710e+02
430             	3.14172782e+02
431             	3.14173600e+02
432             	3.14171409e+02
433             	3.14166609e+02
434             	3.14160361e+02
435             	3.14155209e+02
436             	3.14139706e+02
437             	3.14131868e+02
438             	3.14128084e+02
439             	3.14130400e+02
440             	3.14138603e+02
441             	3.14147733e+02
442             	3.14154995e+02
443             	3.14161997e+02
444             	3.14166406e+02
445             	3.14167078e+02
446             	3.14163089e+02
447             	3.14156407e+02
448             	3.14148400e+02
449             	3.14128873e+02
450             	3.14115156e+02
451             	3.14106791e+02
452             	3.14104009e+02
453             	3.14109057e+02
454             	3.14118125e+02
455             	3.14128594e+02
456             	3.14135854e+02
457             	3.14143943e+02
458             	3.14147426e+02
459             	3.14145635e+02
460             	3.14140069e+02
461             	3.14132717e+02
462             	3.14110385e+02
463             	3.14097163e+02
464             	3.14091258e+02
465             	3.14090398e+02
466             	3.14094424e+02
467             	3.14106169e+02
468             	3.14121148e+02
469             	3.14136306e+02
470             	3.14149193e+02
471             	3.14155772e+02
472             	3.14154792e+02
473             	3.14147538e+02
474             	3.14136502e+02
475             	3.14112201e+02
476             	3.14096098e+02
477             	3.14089972e+02
478             	3.14087201e+02
479             	3.14084538e+02
480             	3.14087385e+02
481             	3.14093805e+02
482             	3.14102777e+02
483             	3.14111092e+02
484             	3.14114353e+02
485             	3.14110834e+02
486             	3.14100795e+02
487             	3.14088724e+02
488             	3.14075083e+02
489             	3.14050916e+02
490             	3.14036411e+02
491             	3.14028067e+02
492             	3.14027103e+02
493             	3.14030994e+02
494             	3.14037230e+02
495             	3.14043668e+02
496             	3.14050128e+02
497             	3.14055772e+02
498             	3.14056773e+02
499             	3.14054533e+02
500             	3.14050452e+02
501             	3.14044006e+02
502             	3.14028432e+02
503             	3.14017594e+02
504             	3.14007062e+02
505             	3.14001769e+02
506             	3.14002664e+02
507             	3.14007661e+02
508             	3.14013012e+02
509             	3.14018575e+02
510             	3.14023998e+02
511             	3.14027621e+02
512             	3.14029461e+02
513             	3.14027513e+02
514             	3.14024446e+02
515             	3.14023222e+02
516             	3.14023369e+02
517             	3.14019168e+02
518             	3.14015569e+02
519             	3.14015686e+02
520             	3.14018183e+02
521             	3.14021901e+02
522             	3.14024791e+02
523             	3.14027854e+02
524             	3.14031781e+02
525             	3.14034777e+02
526             	3.14037412e+02
527             	3.14039845e+02
528             	3.14030232e+02
529             	3.14025677e+02
530             	3.14025796e+02
531             	3.14028322e+02
532             	3.14032681e+02
533             	3.14037302e+02
534             	3.14041659e+02
535             	3.14046229e+02
536             	3.14053040e+02
537             	3.14058824e+02
538             	3.14062355e+02
539             	3.14064456e+02
540             	3.14065720e+02
541             	3.14066929e+02
542             	3.14052425e+02
543             	3.14044560e+02
544             	3.14047171e+02
545             	3.14055069e+02
546             	3.14063128e+02
547             	3.14071787e+02
548             	3.14079919e+02
549             	3.14087434e+02
550             	3.14089010e+02
551             	3.14086260e+02
552             	3.14082961e+02
553             	3.14081252e+02
554             	3.14067408e+02
555             	3.14059961e+02
556             	3.14058225e+02
557             	3.14064405e+02
558             	3.14073242e+02
559             	3.14081576e+02
560             	3.14089931e+02
561             	3.14097784e+02
562             	3.14103478e+02
563             	3.14106413e+02
564             	3.14107933e+02
565             	3.14108537e+02
566             	3.14107830e+02
567             	3.14095723e+02
568             	3.14087476e+02
569             	3.14083325e+02
570             	3.14080706e+02
571             	3.14080822e+02
572             	3.14082989e+02
573             	3.14084994e+02
574             	3.14091149e+02
575             	3.14100224e+02
576             	3.14107939e+02
577             	3.14111938e+02
578             	3.14111279e+02
579             	3.14106319e+02
580             	3.14100594e+02
581             	3.14082455e+02
582             	3.14071630e+02
583             	3.14069968e+02
584             	3.14074447e+02
585             	3.14080831e+02
586             	3.14087976e+02
587             	3.14098550e+02
588             	3.14108485e+02
589             	3.14110657e+02
590             	3.14107868e+02
591             	3.14102608e+02
592             	3.14097951e+02
593             	3.14080305e+02
594             	3.14068734e+02
595             	3.14065045e+02
596             	3.14066388e+02
597             	3.14069190e+02
598             	3.14070823e+02
599             	3.14072340e+02
600             	3.14076692e+02
601             	3.14081608e+02
602             	3.14085289e+02
603             	3.14087608e+02
604             	3.14089143e+02
605             	3.14089299e+02
606             	3.14087171e+02
607             	3.14085542e+02
608             	3.14079638e+02
609             	3.14062962e+02
610             	3.14050999e+02
611             	3.14046850e+02
612             	3.14050587e+02
613             	3.14058891e+02
614             	3.14067447e+02
615             	3.14074635e+02
616             	3.14080748e+02
617             	3.14085185e+02
618             	3.14085240e+02
619             	3.14082604e+02
620             	3.14078176e+02
621             	3.14074485e+02
