# Region        : cellZone component_2
# Cells         : 258
# Volume        : 5.09301014e-01
# Time          	volAverage(T)
1               	3.00617555e+02
2               	3.01229761e+02
3               	3.01808546e+02
4               	3.02369356e+02
5               	3.02921857e+02
6               	3.03469190e+02
7               	3.04012540e+02
8               	3.04554280e+02
9               	3.05094983e+02
10              	3.05634037e+02
11              	3.06171300e+02
12              	3.06705395e+02
13              	3.07237525e+02
14              	3.07765989e+02
15              	3.08292514e+02
16              	3.08808131e+02
17              	3.09325786e+02
18              	3.09838297e+02
19              	3.10343049e+02
20              	3.10841567e+02
21              	3.11334951e+02
22              	3.11821348e+02
23              	3.12302858e+02
24              	3.12779887e+02
25              	3.13253766e+02
26              	3.13723609e+02
27              	3.14191037e+02
28              	3.14656158e+02
29              	3.15119022e+02
30              	3.15579166e+02
31              	3.16037291e+02
32              	3.16493663e+02
33              	3.16948628e+02
34              	3.17403354e+02
35              	3.17858044e+02
36              	3.18312721e+02
37              	3.18765714e+02
38              	3.19213790e+02
39              	3.19656236e+02
40              	3.20097127e+02
41              	3.20535052e+02
42              	3.20968882e+02
43              	3.21398833e+02
44              	3.21824769e+02
45              	3.22246486e+02
46              	3.22662472e+02
47              	3.23072974e+02
48              	3.23477421e+02
49              	3.23876294e+02
50              	3.24269123e+02
51              	3.24656400e+02
52              	3.25036800e+02
53              	3.25415453e+02
54              	3.25794018e+02
55              	3.26174281e+02
56              	3.26554621e+02
57              	3.26934167e+02
58              	3.27309963e+02
59              	3.27681543e+02
60              	3.28049468e+02
61              	3.28414659e+02
62              	3.28774052e+02
63              	3.29124515e+02
64              	3.29468382e+02
65              	3.29806394e+02
66              	3.30139290e+02
67              	3.30465568e+02
68              	3.30789610e+02
69              	3.31114967e+02
70              	3.31439792e+02
71              	3.31767350e+02
72              	3.32098317e+02
73              	3.32435207e+02
74              	3.32771541e+02
75              	3.33107484e+02
76              	3.33441250e+02
77              	3.33771735e+02
78              	3.34098499e+02
79              	3.34420497e+02
80              	3.34736784e+02
81              	3.35047013e+02
82              	3.35352032e+02
83              	3.35653059e+02
84              	3.35950442e+02
85              	3.36243829e+02
86              	3.36533264e+02
87              	3.36818828e+02
88              	3.37103439e+02
89              	3.37386896e+02
90              	3.37669879e+02
91              	3.37954592e+02
92              	3.38240289e+02
93              	3.38528552e+02
94              	3.38817962e+02
95              	3.39108970e+02
96              	3.39400276e+02
97              	3.39690214e+02
98              	3.39977832e+02
99              	3.40261745e+02
100             	3.40541833e+02
101             	3.40816529e+02
102             	3.41086109e+02
103             	3.41350493e+02
104             	3.41610841e+02
105             	3.41867815e+02
106             	3.42123261e+02
107             	3.42377100e+02
108             	3.42629513e+02
109             	3.42880791e+02
110             	3.43130754e+02
111             	3.43380243e+02
112             	3.43629665e+02
113             	3.43878944e+02
114             	3.44127141e+02
115             	3.44374529e+02
116             	3.44620818e+02
117             	3.44866094e+02
118             	3.45109850e+02
119             	3.45351698e+02
120             	3.45590265e+02
121             	3.45826131e+02
122             	3.46059614e+02
123             	3.46289179e+02
124             	3.46515314e+02
125             	3.46738497e+02
126             	3.46958735e+02
127             	3.47176292e+02
128             	3.47391891e+02
129             	3.47606128e+02
130             	3.47818551e+02
131             	3.48029627e+02
132             	3.48239314e+02
133             	3.48449045e+02
134             	3.48659142e+02
135             	3.48869120e+02
136             	3.49080129e+02
137             	3.49290330e+02
138             	3.49499880e+02
139             	3.49707800e+02
140             	3.49913088e+02
141             	3.50115528e+02
142             	3.50314015e+02
143             	3.50508234e+02
144             	3.50699042e+02
145             	3.50886556e+02
146             	3.51071156e+02
147             	3.51252959e+02
148             	3.51432608e+02
149             	3.51610887e+02
150             	3.51787333e+02
151             	3.51962825e+02
152             	3.52137061e+02
153             	3.52311022e+02
154             	3.52485049e+02
155             	3.52659354e+02
156             	3.52833906e+02
157             	3.53008658e+02
158             	3.53183455e+02
159             	3.53357817e+02
160             	3.53531391e+02
161             	3.53703188e+02
162             	3.53873264e+02
163             	3.54042034e+02
164             	3.54208966e+02
165             	3.54373467e+02
166             	3.54535517e+02
167             	3.54695616e+02
168             	3.54852863e+02
169             	3.55008374e+02
170             	3.55162736e+02
171             	3.55316199e+02
172             	3.55468878e+02
173             	3.55620606e+02
174             	3.55771295e+02
175             	3.55921020e+02
176             	3.56070251e+02
177             	3.56219198e+02
178             	3.56367861e+02
179             	3.56516106e+02
180             	3.56663896e+02
181             	3.56811045e+02
182             	3.56957281e+02
183             	3.57102583e+02
184             	3.57246581e+02
185             	3.57389444e+02
186             	3.57531536e+02
187             	3.57673055e+02
188             	3.57813846e+02
189             	3.57953975e+02
190             	3.58093532e+02
191             	3.58232378e+02
192             	3.58370690e+02
193             	3.58508247e+02
194             	3.58644482e+02
195             	3.58779017e+02
196             	3.58912049e+02
197             	3.59043736e+02
198             	3.59173878e+02
199             	3.59302751e+02
200             	3.59430600e+02
201             	3.59557082e+02
202             	3.59682537e+02
203             	3.59806757e+02
204             	3.59928982e+02
205             	3.60050246e+02
206             	3.60170290e+02
207             	3.60289642e+02
208             	3.60408397e+02
209             	3.60526394e+02
210             	3.60643614e+02
211             	3.60760162e+02
212             	3.60875956e+02
213             	3.60990838e+02
214             	3.61104995e+02
215             	3.61218610e+02
216             	3.61331622e+02
217             	3.61443756e+02
218             	3.61555318e+02
219             	3.61666142e+02
220             	3.61776024e+02
221             	3.61885074e+02
222             	3.61993232e+02
223             	3.62100639e+02
224             	3.62207380e+02
225             	3.62313450e+02
226             	3.62418807e+02
227             	3.62523351e+02
228             	3.62627192e+02
229             	3.62730400e+02
230             	3.62832990e+02
231             	3.62935079e+02
232             	3.63036744e+02
233             	3.63137459e+02
234             	3.63237378e+02
235             	3.63336558e+02
236             	3.63435015e+02
237             	3.63532769e+02
238             	3.63629633e+02
239             	3.63725628e+02
240             	3.63820733e+02
241             	3.63914954e+02
242             	3.64008530e+02
243             	3.64101549e+02
244             	3.64193848e+02
245             	3.64285353e+02
246             	3.64376047e+02
247             	3.64466581e+02
248             	3.64556363e+02
249             	3.64645320e+02
250             	3.64733724e+02
251             	3.64821623e+02
252             	3.64908850e+02
253             	3.64995406e+02
254             	3.65081510e+02
255             	3.65167226e+02
256             	3.65252444e+02
257             	3.65337158e+02
258             	3.65420871e+02
259             	3.65503770e+02
260             	3.65586022e+02
261             	3.65667338e+02
262             	3.65747925e+02
263             	3.65827827e+02
264             	3.65907056e+02
265             	3.65985640e+02
266             	3.66063693e+02
267             	3.66141326e+02
268             	3.66218497e+02
269             	3.66295273e+02
270             	3.66371683e+02
271             	3.66447608e+02
272             	3.66523243e+02
273             	3.66598861e+02
274             	3.66673817e+02
275             	3.66748243e+02
276             	3.66822063e+02
277             	3.66895485e+02
278             	3.66968429e+02
279             	3.67040921e+02
280             	3.67112955e+02
281             	3.67184555e+02
282             	3.67255748e+02
283             	3.67326623e+02
284             	3.67396800e+02
285             	3.67466344e+02
286             	3.67535332e+02
287             	3.67603868e+02
288             	3.67671940e+02
289             	3.67738950e+02
290             	3.67805690e+02
291             	3.67872040e+02
292             	3.67937890e+02
293             	3.68003244e+02
294             	3.68068121e+02
295             	3.68132587e+02
296             	3.68196684e+02
297             	3.68260264e+02
298             	3.68323460e+02
299             	3.68386303e+02
300             	3.68448905e+02
301             	3.68511167e+02
302             	3.68573088e+02
303             	3.68634777e+02
304             	3.68696215e+02
305             	3.68757348e+02
306             	3.68818104e+02
307             	3.68878445e+02
308             	3.68938347e+02
309             	3.68997765e+02
310             	3.69056738e+02
311             	3.69115292e+02
312             	3.69173452e+02
313             	3.69231214e+02
314             	3.69288611e+02
315             	3.69345747e+02
316             	3.69402594e+02
317             	3.69459172e+02
318             	3.69515403e+02
319             	3.69571295e+02
320             	3.69626890e+02
321             	3.69682124e+02
322             	3.69736949e+02
323             	3.69791459e+02
324             	3.69845692e+02
325             	3.69899659e+02
326             	3.69953315e+02
327             	3.70006758e+02
328             	3.70059977e+02
329             	3.70112870e+02
330             	3.70165562e+02
331             	3.70218000e+02
332             	3.70270209e+02
333             	3.70322131e+02
334             	3.70373803e+02
335             	3.70425111e+02
336             	3.70476059e+02
337             	3.70526614e+02
338             	3.70576842e+02
339             	3.70626831e+02
340             	3.70676551e+02
341             	3.70725988e+02
342             	3.70775063e+02
343             	3.70823789e+02
344             	3.70872115e+02
345             	3.70920163e+02
346             	3.70967887e+02
347             	3.71015261e+02
348             	3.71062431e+02
349             	3.71109334e+02
350             	3.71155953e+02
351             	3.71202297e+02
352             	3.71248314e+02
353             	3.71294060e+02
354             	3.71339695e+02
355             	3.71385138e+02
356             	3.71430335e+02
357             	3.71475264e+02
358             	3.71519904e+02
359             	3.71564296e+02
360             	3.71608460e+02
361             	3.71652358e+02
362             	3.71696002e+02
363             	3.71739369e+02
364             	3.71782559e+02
365             	3.71825573e+02
366             	3.71868322e+02
367             	3.71910861e+02
368             	3.71953189e+02
369             	3.71995312e+02
370             	3.72037214e+02
371             	3.72078893e+02
372             	3.72120327e+02
373             	3.72161495e+02
374             	3.72202408e+02
375             	3.72243160e+02
376             	3.72283770e+02
377             	3.72324116e+02
378             	3.72364130e+02
379             	3.72403982e+02
380             	3.72443640e+02
381             	3.72483123e+02
382             	3.72522424e+02
383             	3.72561533e+02
384             	3.72600402e+02
385             	3.72639023e+02
386             	3.72677439e+02
387             	3.72715677e+02
388             	3.72753759e+02
389             	3.72791660e+02
390             	3.72829473e+02
391             	3.72867094e+02
392             	3.72904561e+02
393             	3.72941898e+02
394             	3.72979102e+02
395             	3.73016138e+02
396             	3.73052990e+02
397             	3.73089683e+02
398             	3.73126208e+02
399             	3.73162595e+02
400             	3.73198856e+02
401             	3.73234998e+02
402             	3.73271012e+02
403             	3.73306901e+02
404             	3.73342642e+02
405             	3.73378228e+02
406             	3.73413584e+02
407             	3.73448735e+02
408             	3.73483727e+02
409             	3.73518554e+02
410             	3.73553189e+02
411             	3.73587627e+02
412             	3.73621877e+02
413             	3.73655944e+02
414             	3.73689833e+02
415             	3.73723540e+02
416             	3.73757071e+02
417             	3.73790439e+02
418             	3.73823645e+02
419             	3.73856696e+02
420             	3.73889603e+02
421             	3.73922377e+02
422             	3.73955055e+02
423             	3.73987588e+02
424             	3.74019982e+02
425             	3.74052243e+02
426             	3.74084383e+02
427             	3.74116403e+02
428             	3.74148296e+02
429             	3.74180079e+02
430             	3.74211802e+02
431             	3.74243427e+02
432             	3.74274912e+02
433             	3.74306268e+02
434             	3.74337510e+02
435             	3.74368667e+02
436             	3.74399777e+02
437             	3.74430792e+02
438             	3.74461714e+02
439             	3.74492569e+02
440             	3.74523330e+02
441             	3.74554015e+02
442             	3.74584585e+02
443             	3.74615026e+02
444             	3.74645327e+02
445             	3.74675485e+02
446             	3.74705507e+02
447             	3.74735453e+02
448             	3.74765316e+02
449             	3.74795099e+02
450             	3.74824826e+02
451             	3.74854304e+02
452             	3.74883769e+02
453             	3.74913206e+02
454             	3.74942553e+02
455             	3.74971762e+02
456             	3.75000891e+02
457             	3.75029948e+02
458             	3.75058939e+02
459             	3.75087831e+02
460             	3.75116632e+02
461             	3.75145291e+02
462             	3.75173968e+02
463             	3.75202572e+02
464             	3.75231063e+02
465             	3.75259391e+02
466             	3.75287639e+02
467             	3.75315841e+02
468             	3.75343973e+02
469             	3.75372008e+02
470             	3.75399985e+02
471             	3.75427893e+02
472             	3.75455733e+02
473             	3.75483458e+02
474             	3.75511023e+02
475             	3.75538483e+02
476             	3.75565749e+02
477             	3.75592828e+02
478             	3.75619769e+02
479             	3.75646568e+02
480             	3.75673333e+02
481             	3.75700100e+02
482             	3.75726805e+02
483             	3.75753433e+02
484             	3.75779980e+02
485             	3.75806523e+02
486             	3.75833026e+02
487             	3.75859487e+02
488             	3.75885864e+02
489             	3.75912112e+02
490             	3.75938299e+02
491             	3.75964425e+02
492             	3.75990458e+02
493             	3.76016352e+02
494             	3.76042097e+02
495             	3.76067700e+02
496             	3.76093047e+02
497             	3.76118328e+02
498             	3.76143539e+02
499             	3.76168721e+02
500             	3.76193881e+02
501             	3.76218940e+02
502             	3.76243989e+02
503             	3.76269022e+02
504             	3.76293947e+02
505             	3.76318803e+02
506             	3.76343539e+02
507             	3.76368249e+02
508             	3.76392908e+02
509             	3.76417461e+02
510             	3.76441971e+02
511             	3.76466432e+02
512             	3.76490778e+02
513             	3.76514998e+02
514             	3.76539103e+02
515             	3.76563065e+02
516             	3.76586906e+02
517             	3.76610632e+02
518             	3.76634314e+02
519             	3.76657868e+02
520             	3.76681339e+02
521             	3.76704696e+02
522             	3.76727975e+02
523             	3.76751173e+02
524             	3.76774381e+02
525             	3.76797539e+02
526             	3.76820636e+02
527             	3.76843696e+02
528             	3.76866736e+02
529             	3.76889724e+02
530             	3.76912674e+02
531             	3.76935577e+02
532             	3.76958210e+02
533             	3.76980851e+02
534             	3.77003450e+02
535             	3.77026088e+02
536             	3.77048686e+02
537             	3.77071221e+02
538             	3.77093653e+02
539             	3.77115942e+02
540             	3.77138201e+02
541             	3.77160408e+02
542             	3.77182519e+02
543             	3.77204647e+02
544             	3.77226740e+02
545             	3.77248791e+02
546             	3.77270732e+02
547             	3.77292542e+02
548             	3.77314270e+02
549             	3.77335883e+02
550             	3.77357398e+02
551             	3.77378859e+02
552             	3.77400193e+02
553             	3.77421493e+02
554             	3.77442681e+02
555             	3.77463754e+02
556             	3.77484749e+02
557             	3.77505682e+02
558             	3.77526543e+02
559             	3.77547293e+02
560             	3.77567935e+02
561             	3.77588488e+02
562             	3.77608960e+02
563             	3.77629359e+02
564             	3.77649678e+02
565             	3.77669929e+02
566             	3.77690097e+02
567             	3.77710282e+02
568             	3.77730370e+02
569             	3.77750342e+02
570             	3.77770249e+02
571             	3.77790107e+02
572             	3.77809899e+02
573             	3.77829622e+02
574             	3.77849275e+02
575             	3.77868942e+02
576             	3.77888559e+02
577             	3.77908032e+02
578             	3.77927480e+02
579             	3.77946884e+02
580             	3.77966211e+02
581             	3.77985471e+02
582             	3.78004638e+02
583             	3.78023737e+02
584             	3.78042769e+02
585             	3.78061718e+02
586             	3.78080577e+02
587             	3.78099318e+02
588             	3.78117888e+02
589             	3.78136408e+02
590             	3.78154896e+02
591             	3.78173355e+02
592             	3.78191784e+02
593             	3.78210190e+02
594             	3.78228534e+02
595             	3.78246813e+02
596             	3.78265028e+02
597             	3.78283165e+02
598             	3.78301225e+02
599             	3.78319122e+02
600             	3.78336848e+02
601             	3.78354496e+02
602             	3.78372088e+02
603             	3.78389576e+02
604             	3.78407055e+02
605             	3.78424423e+02
606             	3.78441694e+02
607             	3.78458957e+02
608             	3.78476124e+02
609             	3.78493142e+02
610             	3.78510066e+02
611             	3.78526830e+02
612             	3.78543582e+02
613             	3.78560244e+02
614             	3.78576815e+02
615             	3.78593281e+02
616             	3.78609644e+02
617             	3.78625937e+02
618             	3.78642211e+02
619             	3.78658367e+02
620             	3.78674427e+02
621             	3.78690414e+02
