# Region        : cellZone component_2
# Cells         : 144
# Volume        : 2.84813391e-01
# Time          	volAverage(T)
1               	3.00301182e+02
2               	3.00597112e+02
3               	3.00873212e+02
4               	3.01134893e+02
5               	3.01387882e+02
6               	3.01633685e+02
7               	3.01873519e+02
8               	3.02108367e+02
9               	3.02338494e+02
10              	3.02564746e+02
11              	3.02788078e+02
12              	3.03010513e+02
13              	3.03233359e+02
14              	3.03451569e+02
15              	3.03670521e+02
16              	3.03884866e+02
17              	3.04095033e+02
18              	3.04301138e+02
19              	3.04502497e+02
20              	3.04698705e+02
21              	3.04889333e+02
22              	3.05074536e+02
23              	3.05254281e+02
24              	3.05428629e+02
25              	3.05597966e+02
26              	3.05762891e+02
27              	3.05924395e+02
28              	3.06084335e+02
29              	3.06243255e+02
30              	3.06402449e+02
31              	3.06562800e+02
32              	3.06721282e+02
33              	3.06875484e+02
34              	3.07025428e+02
35              	3.07173160e+02
36              	3.07316649e+02
37              	3.07458713e+02
38              	3.07598309e+02
39              	3.07734407e+02
40              	3.07866949e+02
41              	3.07996635e+02
42              	3.08123531e+02
43              	3.08247295e+02
44              	3.08367791e+02
45              	3.08486695e+02
46              	3.08606768e+02
47              	3.08727783e+02
48              	3.08851204e+02
49              	3.08970398e+02
50              	3.09081568e+02
51              	3.09188260e+02
52              	3.09291192e+02
53              	3.09393240e+02
54              	3.09491900e+02
55              	3.09586451e+02
56              	3.09677419e+02
57              	3.09765133e+02
58              	3.09851610e+02
59              	3.09939815e+02
60              	3.10029153e+02
61              	3.10120175e+02
62              	3.10204056e+02
63              	3.10272657e+02
64              	3.10332477e+02
65              	3.10393415e+02
66              	3.10454391e+02
67              	3.10512560e+02
68              	3.10568493e+02
69              	3.10623625e+02
70              	3.10679997e+02
71              	3.10738536e+02
72              	3.10800225e+02
73              	3.10864504e+02
74              	3.10932416e+02
75              	3.11002684e+02
76              	3.11066514e+02
77              	3.11123589e+02
78              	3.11176994e+02
79              	3.11227100e+02
80              	3.11272036e+02
81              	3.11314563e+02
82              	3.11355806e+02
83              	3.11396546e+02
84              	3.11437121e+02
85              	3.11479059e+02
86              	3.11521077e+02
87              	3.11564018e+02
88              	3.11609173e+02
89              	3.11656219e+02
90              	3.11705046e+02
91              	3.11753891e+02
92              	3.11801598e+02
93              	3.11846936e+02
94              	3.11889011e+02
95              	3.11929128e+02
96              	3.11967208e+02
97              	3.12002433e+02
98              	3.12036381e+02
99              	3.12070192e+02
100             	3.12105003e+02
101             	3.12141326e+02
102             	3.12179539e+02
103             	3.12219233e+02
104             	3.12260014e+02
105             	3.12302526e+02
106             	3.12345952e+02
107             	3.12389486e+02
108             	3.12431952e+02
109             	3.12473265e+02
110             	3.12512741e+02
111             	3.12550685e+02
112             	3.12586660e+02
113             	3.12620690e+02
114             	3.12653115e+02
115             	3.12685152e+02
116             	3.12717576e+02
117             	3.12750884e+02
118             	3.12785135e+02
119             	3.12820353e+02
120             	3.12856589e+02
121             	3.12893388e+02
122             	3.12930163e+02
123             	3.12965738e+02
124             	3.13000846e+02
125             	3.13034810e+02
126             	3.13066689e+02
127             	3.13095594e+02
128             	3.13122263e+02
129             	3.13147057e+02
130             	3.13170603e+02
131             	3.13193791e+02
132             	3.13217054e+02
133             	3.13241031e+02
134             	3.13266422e+02
135             	3.13292884e+02
136             	3.13318849e+02
137             	3.13346302e+02
138             	3.13375094e+02
139             	3.13403668e+02
140             	3.13430345e+02
141             	3.13455563e+02
142             	3.13478404e+02
143             	3.13499547e+02
144             	3.13519543e+02
145             	3.13538367e+02
146             	3.13556540e+02
147             	3.13575307e+02
148             	3.13594988e+02
149             	3.13615133e+02
150             	3.13636098e+02
151             	3.13657172e+02
152             	3.13676930e+02
153             	3.13695186e+02
154             	3.13711448e+02
155             	3.13726439e+02
156             	3.13740346e+02
157             	3.13753690e+02
158             	3.13767533e+02
159             	3.13780572e+02
160             	3.13795602e+02
161             	3.13812628e+02
162             	3.13831208e+02
163             	3.13849799e+02
164             	3.13866977e+02
165             	3.13881382e+02
166             	3.13894386e+02
167             	3.13906650e+02
168             	3.13918274e+02
169             	3.13930118e+02
170             	3.13942846e+02
171             	3.13954098e+02
172             	3.13968515e+02
173             	3.13985427e+02
174             	3.14002034e+02
175             	3.14017263e+02
176             	3.14026452e+02
177             	3.14034070e+02
178             	3.14037030e+02
179             	3.14038550e+02
180             	3.14039561e+02
181             	3.14035763e+02
182             	3.14034074e+02
183             	3.14034679e+02
184             	3.14038499e+02
185             	3.14045307e+02
186             	3.14054006e+02
187             	3.14063204e+02
188             	3.14071498e+02
189             	3.14078952e+02
190             	3.14084491e+02
191             	3.14086332e+02
192             	3.14084646e+02
193             	3.14081845e+02
194             	3.14079406e+02
195             	3.14077847e+02
196             	3.14078533e+02
197             	3.14082092e+02
198             	3.14088845e+02
199             	3.14098580e+02
200             	3.14109873e+02
201             	3.14121122e+02
202             	3.14131429e+02
203             	3.14138066e+02
204             	3.14142197e+02
205             	3.14145389e+02
206             	3.14148486e+02
207             	3.14152904e+02
208             	3.14158882e+02
209             	3.14166483e+02
210             	3.14175948e+02
211             	3.14186343e+02
212             	3.14198690e+02
213             	3.14212277e+02
214             	3.14225263e+02
215             	3.14238376e+02
216             	3.14249979e+02
217             	3.14260533e+02
218             	3.14270009e+02
219             	3.14278709e+02
220             	3.14287375e+02
221             	3.14296929e+02
222             	3.14307781e+02
223             	3.14317821e+02
224             	3.14329502e+02
225             	3.14341705e+02
226             	3.14355772e+02
227             	3.14369629e+02
228             	3.14382897e+02
229             	3.14394844e+02
230             	3.14406147e+02
231             	3.14414580e+02
232             	3.14421000e+02
233             	3.14426888e+02
234             	3.14433421e+02
235             	3.14441000e+02
236             	3.14449614e+02
237             	3.14457913e+02
238             	3.14468083e+02
239             	3.14480600e+02
240             	3.14494500e+02
241             	3.14507822e+02
242             	3.14520441e+02
243             	3.14531911e+02
244             	3.14540306e+02
245             	3.14546391e+02
246             	3.14551108e+02
247             	3.14555828e+02
248             	3.14561331e+02
249             	3.14567865e+02
250             	3.14576235e+02
251             	3.14584337e+02
252             	3.14593394e+02
253             	3.14603463e+02
254             	3.14613800e+02
255             	3.14623871e+02
256             	3.14634090e+02
257             	3.14642500e+02
258             	3.14649223e+02
259             	3.14654915e+02
260             	3.14660242e+02
261             	3.14665747e+02
262             	3.14672014e+02
263             	3.14679316e+02
264             	3.14687177e+02
265             	3.14693722e+02
266             	3.14701085e+02
267             	3.14709109e+02
268             	3.14716611e+02
269             	3.14722534e+02
270             	3.14728090e+02
271             	3.14733352e+02
272             	3.14736851e+02
273             	3.14740320e+02
274             	3.14744074e+02
275             	3.14748633e+02
276             	3.14754142e+02
277             	3.14760271e+02
278             	3.14766818e+02
279             	3.14774175e+02
280             	3.14781852e+02
281             	3.14789229e+02
282             	3.14795283e+02
283             	3.14800533e+02
284             	3.14803768e+02
285             	3.14805315e+02
286             	3.14806645e+02
287             	3.14808014e+02
288             	3.14810219e+02
289             	3.14814157e+02
290             	3.14819803e+02
291             	3.14826805e+02
292             	3.14833641e+02
293             	3.14842149e+02
294             	3.14851648e+02
295             	3.14859899e+02
296             	3.14867319e+02
297             	3.14873224e+02
298             	3.14876894e+02
299             	3.14879223e+02
300             	3.14881017e+02
301             	3.14883324e+02
302             	3.14886702e+02
303             	3.14891251e+02
304             	3.14897206e+02
305             	3.14904077e+02
306             	3.14910787e+02
307             	3.14918357e+02
308             	3.14926373e+02
309             	3.14933059e+02
310             	3.14937989e+02
311             	3.14941554e+02
312             	3.14944144e+02
313             	3.14944837e+02
314             	3.14944601e+02
315             	3.14944571e+02
316             	3.14945538e+02
317             	3.14947716e+02
318             	3.14950606e+02
319             	3.14954795e+02
320             	3.14960735e+02
321             	3.14967628e+02
322             	3.14974462e+02
323             	3.14979422e+02
324             	3.14983492e+02
325             	3.14985298e+02
326             	3.14984348e+02
327             	3.14981648e+02
328             	3.14977622e+02
329             	3.14973726e+02
330             	3.14970491e+02
331             	3.14968392e+02
332             	3.14967525e+02
333             	3.14968105e+02
334             	3.14970232e+02
335             	3.14973512e+02
336             	3.14977640e+02
337             	3.14982418e+02
338             	3.14987311e+02
339             	3.14991959e+02
340             	3.14995971e+02
341             	3.14998838e+02
342             	3.15001074e+02
343             	3.15002714e+02
344             	3.15003901e+02
345             	3.15004695e+02
346             	3.15005942e+02
347             	3.15007917e+02
348             	3.15010450e+02
349             	3.15013663e+02
350             	3.15018055e+02
351             	3.15023530e+02
352             	3.15029645e+02
353             	3.15036195e+02
354             	3.15042399e+02
355             	3.15047491e+02
356             	3.15051626e+02
357             	3.15055289e+02
358             	3.15058081e+02
359             	3.15060215e+02
360             	3.15061669e+02
361             	3.15062399e+02
362             	3.15062827e+02
363             	3.15063528e+02
364             	3.15064614e+02
365             	3.15066165e+02
366             	3.15068669e+02
367             	3.15071931e+02
368             	3.15076028e+02
369             	3.15080871e+02
370             	3.15086229e+02
371             	3.15091598e+02
372             	3.15096217e+02
373             	3.15100511e+02
374             	3.15104417e+02
375             	3.15107844e+02
376             	3.15110604e+02
377             	3.15112482e+02
378             	3.15113255e+02
379             	3.15113097e+02
380             	3.15112821e+02
381             	3.15112446e+02
382             	3.15112214e+02
383             	3.15112374e+02
384             	3.15113517e+02
385             	3.15115795e+02
386             	3.15119012e+02
387             	3.15122689e+02
388             	3.15126984e+02
389             	3.15130985e+02
390             	3.15134741e+02
391             	3.15138283e+02
392             	3.15141378e+02
393             	3.15143694e+02
394             	3.15145033e+02
395             	3.15145293e+02
396             	3.15144416e+02
397             	3.15142973e+02
398             	3.15141763e+02
399             	3.15140683e+02
400             	3.15139853e+02
401             	3.15139478e+02
402             	3.15139830e+02
403             	3.15140953e+02
404             	3.15142756e+02
405             	3.15145067e+02
406             	3.15147657e+02
407             	3.15150272e+02
408             	3.15152842e+02
409             	3.15155367e+02
410             	3.15157951e+02
411             	3.15160525e+02
412             	3.15163182e+02
413             	3.15165828e+02
414             	3.15168645e+02
415             	3.15171514e+02
416             	3.15174547e+02
417             	3.15177559e+02
418             	3.15180416e+02
419             	3.15182948e+02
420             	3.15184999e+02
421             	3.15186399e+02
422             	3.15187753e+02
423             	3.15188923e+02
424             	3.15190076e+02
425             	3.15191183e+02
426             	3.15192336e+02
427             	3.15193645e+02
428             	3.15195257e+02
429             	3.15197179e+02
430             	3.15199328e+02
431             	3.15201656e+02
432             	3.15204137e+02
433             	3.15206609e+02
434             	3.15209026e+02
435             	3.15211236e+02
436             	3.15213169e+02
437             	3.15214747e+02
438             	3.15215611e+02
439             	3.15216185e+02
440             	3.15216566e+02
441             	3.15216890e+02
442             	3.15217169e+02
443             	3.15217583e+02
444             	3.15218264e+02
445             	3.15219280e+02
446             	3.15220643e+02
447             	3.15222348e+02
448             	3.15224449e+02
449             	3.15226608e+02
450             	3.15228236e+02
451             	3.15229731e+02
452             	3.15230930e+02
453             	3.15231579e+02
454             	3.15231635e+02
455             	3.15231123e+02
456             	3.15229982e+02
457             	3.15228281e+02
458             	3.15226718e+02
459             	3.15225256e+02
460             	3.15223953e+02
461             	3.15223019e+02
462             	3.15222650e+02
463             	3.15223025e+02
464             	3.15224127e+02
465             	3.15225757e+02
466             	3.15227905e+02
467             	3.15230105e+02
468             	3.15232376e+02
469             	3.15234721e+02
470             	3.15236663e+02
471             	3.15238196e+02
472             	3.15238988e+02
473             	3.15239510e+02
474             	3.15239559e+02
475             	3.15239098e+02
476             	3.15238655e+02
477             	3.15238311e+02
478             	3.15238273e+02
479             	3.15238708e+02
480             	3.15239609e+02
481             	3.15241010e+02
482             	3.15242854e+02
483             	3.15245190e+02
484             	3.15247456e+02
485             	3.15249430e+02
486             	3.15251065e+02
487             	3.15252244e+02
488             	3.15252917e+02
489             	3.15253078e+02
490             	3.15252633e+02
491             	3.15251643e+02
492             	3.15250100e+02
493             	3.15248027e+02
494             	3.15246027e+02
495             	3.15244362e+02
496             	3.15242876e+02
497             	3.15241686e+02
498             	3.15240848e+02
499             	3.15240431e+02
500             	3.15240480e+02
501             	3.15240971e+02
502             	3.15241730e+02
503             	3.15242551e+02
504             	3.15243277e+02
505             	3.15243926e+02
506             	3.15244427e+02
507             	3.15244990e+02
508             	3.15245562e+02
509             	3.15245769e+02
510             	3.15246096e+02
511             	3.15246582e+02
512             	3.15247086e+02
513             	3.15247567e+02
514             	3.15248036e+02
515             	3.15248522e+02
516             	3.15249006e+02
517             	3.15249343e+02
518             	3.15249856e+02
519             	3.15250372e+02
520             	3.15250844e+02
521             	3.15251120e+02
522             	3.15251295e+02
523             	3.15251477e+02
524             	3.15251687e+02
525             	3.15251975e+02
526             	3.15252274e+02
527             	3.15252690e+02
528             	3.15253116e+02
529             	3.15253506e+02
530             	3.15254017e+02
531             	3.15254371e+02
532             	3.15254648e+02
533             	3.15254790e+02
534             	3.15254739e+02
535             	3.15254432e+02
536             	3.15253833e+02
537             	3.15252927e+02
538             	3.15251984e+02
539             	3.15250828e+02
540             	3.15249563e+02
541             	3.15248476e+02
542             	3.15247593e+02
543             	3.15247149e+02
544             	3.15246973e+02
545             	3.15247240e+02
546             	3.15248080e+02
547             	3.15248975e+02
548             	3.15250090e+02
549             	3.15251158e+02
550             	3.15252104e+02
551             	3.15252806e+02
552             	3.15253040e+02
553             	3.15252825e+02
554             	3.15252141e+02
555             	3.15251260e+02
556             	3.15250194e+02
557             	3.15248911e+02
558             	3.15247608e+02
559             	3.15246417e+02
560             	3.15245516e+02
561             	3.15244856e+02
562             	3.15244495e+02
563             	3.15244377e+02
564             	3.15244431e+02
565             	3.15244652e+02
566             	3.15244791e+02
567             	3.15244839e+02
568             	3.15244920e+02
569             	3.15245037e+02
570             	3.15245169e+02
571             	3.15245383e+02
572             	3.15245661e+02
573             	3.15245987e+02
574             	3.15246344e+02
575             	3.15246709e+02
576             	3.15246993e+02
577             	3.15247262e+02
578             	3.15247477e+02
579             	3.15247481e+02
580             	3.15247279e+02
581             	3.15246802e+02
582             	3.15246421e+02
583             	3.15246092e+02
584             	3.15245949e+02
585             	3.15246081e+02
586             	3.15246567e+02
587             	3.15247502e+02
588             	3.15248381e+02
589             	3.15249336e+02
590             	3.15250344e+02
591             	3.15251369e+02
592             	3.15252424e+02
593             	3.15253407e+02
594             	3.15254173e+02
595             	3.15254541e+02
596             	3.15254561e+02
597             	3.15254263e+02
598             	3.15253981e+02
599             	3.15253608e+02
600             	3.15253239e+02
601             	3.15252979e+02
602             	3.15252966e+02
603             	3.15253277e+02
604             	3.15253983e+02
605             	3.15254999e+02
606             	3.15256081e+02
607             	3.15257033e+02
608             	3.15257906e+02
609             	3.15258913e+02
610             	3.15259944e+02
611             	3.15261024e+02
612             	3.15262015e+02
613             	3.15262767e+02
614             	3.15263444e+02
615             	3.15264058e+02
616             	3.15264644e+02
617             	3.15265220e+02
618             	3.15265679e+02
619             	3.15265934e+02
620             	3.15266190e+02
621             	3.15266346e+02
