# Region        : cellZone component_1
# Cells         : 67
# Volume        : 1.02989609e-01
# Time          	volAverage(T)
1               	3.00732938e+02
2               	3.01447489e+02
3               	3.02078053e+02
4               	3.02657714e+02
5               	3.03213507e+02
6               	3.03751163e+02
7               	3.04272827e+02
8               	3.04788100e+02
9               	3.05298790e+02
10              	3.05801669e+02
11              	3.06282743e+02
12              	3.06718728e+02
13              	3.07130735e+02
14              	3.07520617e+02
15              	3.07907787e+02
16              	3.08295661e+02
17              	3.08672210e+02
18              	3.09044103e+02
19              	3.09411347e+02
20              	3.09774441e+02
21              	3.10128911e+02
22              	3.10477157e+02
23              	3.10804315e+02
24              	3.11139568e+02
25              	3.11469886e+02
26              	3.11799726e+02
27              	3.12114192e+02
28              	3.12405237e+02
29              	3.12678245e+02
30              	3.12944818e+02
31              	3.13186643e+02
32              	3.13428328e+02
33              	3.13687419e+02
34              	3.13896167e+02
35              	3.14044731e+02
36              	3.14135422e+02
37              	3.14245526e+02
38              	3.14416762e+02
39              	3.14596956e+02
40              	3.14792317e+02
41              	3.14968026e+02
42              	3.15148640e+02
43              	3.15346216e+02
44              	3.15525260e+02
45              	3.15688890e+02
46              	3.15874590e+02
47              	3.16069889e+02
48              	3.16281888e+02
49              	3.16483489e+02
50              	3.16658921e+02
51              	3.16815139e+02
52              	3.16958127e+02
53              	3.17092606e+02
54              	3.17230459e+02
55              	3.17391258e+02
56              	3.17547057e+02
57              	3.17685687e+02
58              	3.17839600e+02
59              	3.17995708e+02
60              	3.18151293e+02
61              	3.18292220e+02
62              	3.18415979e+02
63              	3.18531839e+02
64              	3.18647091e+02
65              	3.18762650e+02
66              	3.18902849e+02
67              	3.19038798e+02
68              	3.19160353e+02
69              	3.19281500e+02
70              	3.19389218e+02
71              	3.19505436e+02
72              	3.19614097e+02
73              	3.19700576e+02
74              	3.19770615e+02
75              	3.19841995e+02
76              	3.19921077e+02
77              	3.20009786e+02
78              	3.20095362e+02
79              	3.20175085e+02
80              	3.20238709e+02
81              	3.20317168e+02
82              	3.20387989e+02
83              	3.20480382e+02
84              	3.20572236e+02
85              	3.20668440e+02
86              	3.20743672e+02
87              	3.20831750e+02
88              	3.20939962e+02
89              	3.21036548e+02
90              	3.21113204e+02
91              	3.21195928e+02
92              	3.21267311e+02
93              	3.21342746e+02
94              	3.21438709e+02
95              	3.21524466e+02
96              	3.21590049e+02
97              	3.21650531e+02
98              	3.21721043e+02
99              	3.21795550e+02
100             	3.21873713e+02
101             	3.21954972e+02
102             	3.22020078e+02
103             	3.22090039e+02
104             	3.22147656e+02
105             	3.22218581e+02
106             	3.22277465e+02
107             	3.22331240e+02
108             	3.22384275e+02
109             	3.22426636e+02
110             	3.22479051e+02
111             	3.22536961e+02
112             	3.22608489e+02
113             	3.22683196e+02
114             	3.22758534e+02
115             	3.22829121e+02
116             	3.22899764e+02
117             	3.22963922e+02
118             	3.23021710e+02
119             	3.23076214e+02
120             	3.23118434e+02
121             	3.23167114e+02
122             	3.23217570e+02
123             	3.23268181e+02
124             	3.23305463e+02
125             	3.23350788e+02
126             	3.23405373e+02
127             	3.23462412e+02
128             	3.23523919e+02
129             	3.23572305e+02
130             	3.23609017e+02
131             	3.23635934e+02
132             	3.23663024e+02
133             	3.23684021e+02
134             	3.23715392e+02
135             	3.23737351e+02
136             	3.23759031e+02
137             	3.23784462e+02
138             	3.23818708e+02
139             	3.23848902e+02
140             	3.23881946e+02
141             	3.23916766e+02
142             	3.23932080e+02
143             	3.23951336e+02
144             	3.23955901e+02
145             	3.23968471e+02
146             	3.23987572e+02
147             	3.24008474e+02
148             	3.24029433e+02
149             	3.24047656e+02
150             	3.24075815e+02
151             	3.24109211e+02
152             	3.24144326e+02
153             	3.24183556e+02
154             	3.24218711e+02
155             	3.24241476e+02
156             	3.24263331e+02
157             	3.24281547e+02
158             	3.24303404e+02
159             	3.24322844e+02
160             	3.24352136e+02
161             	3.24382473e+02
162             	3.24409950e+02
163             	3.24429989e+02
164             	3.24453381e+02
165             	3.24481812e+02
166             	3.24517028e+02
167             	3.24558540e+02
168             	3.24604551e+02
169             	3.24654168e+02
170             	3.24707831e+02
171             	3.24744941e+02
172             	3.24795885e+02
173             	3.24845731e+02
174             	3.24895373e+02
175             	3.24946714e+02
176             	3.24996228e+02
177             	3.25042514e+02
178             	3.25086054e+02
179             	3.25129305e+02
180             	3.25173921e+02
181             	3.25220252e+02
182             	3.25269572e+02
183             	3.25322174e+02
184             	3.25378520e+02
185             	3.25413632e+02
186             	3.25461680e+02
187             	3.25492122e+02
188             	3.25527782e+02
189             	3.25563859e+02
190             	3.25595622e+02
191             	3.25620252e+02
192             	3.25639709e+02
193             	3.25658919e+02
194             	3.25681050e+02
195             	3.25696251e+02
196             	3.25708173e+02
197             	3.25727350e+02
198             	3.25753815e+02
199             	3.25785085e+02
200             	3.25822894e+02
201             	3.25843309e+02
202             	3.25871008e+02
203             	3.25909471e+02
204             	3.25954565e+02
205             	3.25987727e+02
206             	3.26019545e+02
207             	3.26041402e+02
208             	3.26071729e+02
209             	3.26104030e+02
210             	3.26119099e+02
211             	3.26128427e+02
212             	3.26133150e+02
213             	3.26136915e+02
214             	3.26141952e+02
215             	3.26149578e+02
216             	3.26158923e+02
217             	3.26172388e+02
218             	3.26173831e+02
219             	3.26188646e+02
220             	3.26213059e+02
221             	3.26220889e+02
222             	3.26241567e+02
223             	3.26251172e+02
224             	3.26270929e+02
225             	3.26286492e+02
226             	3.26300518e+02
227             	3.26314623e+02
228             	3.26322322e+02
229             	3.26331000e+02
230             	3.26347605e+02
231             	3.26365745e+02
232             	3.26387242e+02
233             	3.26416275e+02
234             	3.26426881e+02
235             	3.26450642e+02
236             	3.26476374e+02
237             	3.26483352e+02
238             	3.26500567e+02
239             	3.26515408e+02
240             	3.26522280e+02
241             	3.26519242e+02
242             	3.26520925e+02
243             	3.26526495e+02
244             	3.26534118e+02
245             	3.26545355e+02
246             	3.26559475e+02
247             	3.26578657e+02
248             	3.26603620e+02
249             	3.26607757e+02
250             	3.26626761e+02
251             	3.26629820e+02
252             	3.26641895e+02
253             	3.26653095e+02
254             	3.26663087e+02
255             	3.26664034e+02
256             	3.26669668e+02
257             	3.26673634e+02
258             	3.26681689e+02
259             	3.26690671e+02
260             	3.26703341e+02
261             	3.26717975e+02
262             	3.26731223e+02
263             	3.26748077e+02
264             	3.26764484e+02
265             	3.26778097e+02
266             	3.26787101e+02
267             	3.26794727e+02
268             	3.26799361e+02
269             	3.26802978e+02
270             	3.26809558e+02
271             	3.26801971e+02
272             	3.26802168e+02
273             	3.26807485e+02
274             	3.26815662e+02
275             	3.26823658e+02
276             	3.26823719e+02
277             	3.26824860e+02
278             	3.26830675e+02
279             	3.26837197e+02
280             	3.26842215e+02
281             	3.26846846e+02
282             	3.26849443e+02
283             	3.26851795e+02
284             	3.26854309e+02
285             	3.26855105e+02
286             	3.26855801e+02
287             	3.26857339e+02
288             	3.26859756e+02
289             	3.26862028e+02
290             	3.26863911e+02
291             	3.26866546e+02
292             	3.26871222e+02
293             	3.26878435e+02
294             	3.26886800e+02
295             	3.26896134e+02
296             	3.26906453e+02
297             	3.26918053e+02
298             	3.26929819e+02
299             	3.26939440e+02
300             	3.26949134e+02
301             	3.26957838e+02
302             	3.26966043e+02
303             	3.26973972e+02
304             	3.26967637e+02
305             	3.26969503e+02
306             	3.26974825e+02
307             	3.26981941e+02
308             	3.26988562e+02
309             	3.26994594e+02
310             	3.26999621e+02
311             	3.27005414e+02
312             	3.27007183e+02
313             	3.27009576e+02
314             	3.27011088e+02
315             	3.27008265e+02
316             	3.27010645e+02
317             	3.27010998e+02
318             	3.27009396e+02
319             	3.27008752e+02
320             	3.27008198e+02
321             	3.27007183e+02
322             	3.27005888e+02
323             	3.27004777e+02
324             	3.27006976e+02
325             	3.27007761e+02
326             	3.27009862e+02
327             	3.27015530e+02
328             	3.27022908e+02
329             	3.27030677e+02
330             	3.27031368e+02
331             	3.27039138e+02
332             	3.27048783e+02
333             	3.27060465e+02
334             	3.27072024e+02
335             	3.27083563e+02
336             	3.27076731e+02
337             	3.27079109e+02
338             	3.27085219e+02
339             	3.27092837e+02
340             	3.27099272e+02
341             	3.27103718e+02
342             	3.27105467e+02
343             	3.27105649e+02
344             	3.27104085e+02
345             	3.27103428e+02
346             	3.27103004e+02
347             	3.27093484e+02
348             	3.27085707e+02
349             	3.27084287e+02
350             	3.27086550e+02
351             	3.27092318e+02
352             	3.27082514e+02
353             	3.27084615e+02
354             	3.27075297e+02
355             	3.27074334e+02
356             	3.27073643e+02
357             	3.27071744e+02
358             	3.27072527e+02
359             	3.27078437e+02
360             	3.27080843e+02
361             	3.27084797e+02
362             	3.27091891e+02
363             	3.27101196e+02
364             	3.27095115e+02
365             	3.27099299e+02
366             	3.27088536e+02
367             	3.27084763e+02
368             	3.27070688e+02
369             	3.27062285e+02
370             	3.27043355e+02
371             	3.27029701e+02
372             	3.27021520e+02
373             	3.27012898e+02
374             	3.27001932e+02
375             	3.26997459e+02
376             	3.27001152e+02
377             	3.27010790e+02
378             	3.27024738e+02
379             	3.27041563e+02
380             	3.27063289e+02
381             	3.27066499e+02
382             	3.27084569e+02
383             	3.27098022e+02
384             	3.27105758e+02
385             	3.27116969e+02
386             	3.27127476e+02
387             	3.27135515e+02
388             	3.27142650e+02
389             	3.27150225e+02
390             	3.27158284e+02
391             	3.27167432e+02
392             	3.27176704e+02
393             	3.27185568e+02
394             	3.27193153e+02
395             	3.27193852e+02
396             	3.27176460e+02
397             	3.27164797e+02
398             	3.27157770e+02
399             	3.27153547e+02
400             	3.27151538e+02
401             	3.27155787e+02
402             	3.27168894e+02
403             	3.27175802e+02
404             	3.27185935e+02
405             	3.27182345e+02
406             	3.27182863e+02
407             	3.27186516e+02
408             	3.27188752e+02
409             	3.27188962e+02
410             	3.27188565e+02
411             	3.27185014e+02
412             	3.27184598e+02
413             	3.27159585e+02
414             	3.27140530e+02
415             	3.27127098e+02
416             	3.27114763e+02
417             	3.27096508e+02
418             	3.27085340e+02
419             	3.27078232e+02
420             	3.27079563e+02
421             	3.27086724e+02
422             	3.27100938e+02
423             	3.27120103e+02
424             	3.27122445e+02
425             	3.27123013e+02
426             	3.27133577e+02
427             	3.27143587e+02
428             	3.27153260e+02
429             	3.27160234e+02
430             	3.27157644e+02
431             	3.27156359e+02
432             	3.27151627e+02
433             	3.27146372e+02
434             	3.27137468e+02
435             	3.27126855e+02
436             	3.27119609e+02
437             	3.27115957e+02
438             	3.27116438e+02
439             	3.27093576e+02
440             	3.27086825e+02
441             	3.27068629e+02
442             	3.27060592e+02
443             	3.27053108e+02
444             	3.27046118e+02
445             	3.27040187e+02
446             	3.27035265e+02
447             	3.27026772e+02
448             	3.27021024e+02
449             	3.27019845e+02
450             	3.27023756e+02
451             	3.27008639e+02
452             	3.26997426e+02
453             	3.26988624e+02
454             	3.26984089e+02
455             	3.26983435e+02
456             	3.26985733e+02
457             	3.26987129e+02
458             	3.26987610e+02
459             	3.26988555e+02
460             	3.26991152e+02
461             	3.26995513e+02
462             	3.27002493e+02
463             	3.27007722e+02
464             	3.27010702e+02
465             	3.27015773e+02
466             	3.27020587e+02
467             	3.27023978e+02
468             	3.27029302e+02
469             	3.27036759e+02
470             	3.27044375e+02
471             	3.27050202e+02
472             	3.27053503e+02
473             	3.27043017e+02
474             	3.27044184e+02
475             	3.27042007e+02
476             	3.27040019e+02
477             	3.27036963e+02
478             	3.27020537e+02
479             	3.27007534e+02
480             	3.27000235e+02
481             	3.26998346e+02
482             	3.26999986e+02
483             	3.27005022e+02
484             	3.27013254e+02
485             	3.27027610e+02
486             	3.27021876e+02
487             	3.27027807e+02
488             	3.27045185e+02
489             	3.27059941e+02
490             	3.27063341e+02
491             	3.27063415e+02
492             	3.27063189e+02
493             	3.27062369e+02
494             	3.27053043e+02
495             	3.27050547e+02
496             	3.27053103e+02
497             	3.27058568e+02
498             	3.27064731e+02
499             	3.27071271e+02
500             	3.27083736e+02
501             	3.27069284e+02
502             	3.27064426e+02
503             	3.27061911e+02
504             	3.27057596e+02
505             	3.27037144e+02
506             	3.27027456e+02
507             	3.27011694e+02
508             	3.26994699e+02
509             	3.26965715e+02
510             	3.26948496e+02
511             	3.26940059e+02
512             	3.26936492e+02
513             	3.26936556e+02
514             	3.26940484e+02
515             	3.26936166e+02
516             	3.26940623e+02
517             	3.26952684e+02
518             	3.26945294e+02
519             	3.26948081e+02
520             	3.26955125e+02
521             	3.26963553e+02
522             	3.26971002e+02
523             	3.26976153e+02
524             	3.26978955e+02
525             	3.26980613e+02
526             	3.26981945e+02
527             	3.26983186e+02
528             	3.26982918e+02
529             	3.26981426e+02
530             	3.26982614e+02
531             	3.26980636e+02
532             	3.26983171e+02
533             	3.26990845e+02
534             	3.26981733e+02
535             	3.26981370e+02
536             	3.26983002e+02
537             	3.26983273e+02
538             	3.26982946e+02
539             	3.26983883e+02
540             	3.26986092e+02
541             	3.26988325e+02
542             	3.26990495e+02
543             	3.26991151e+02
544             	3.26993440e+02
545             	3.26996766e+02
546             	3.26999890e+02
547             	3.27001362e+02
548             	3.27002010e+02
549             	3.27001045e+02
550             	3.27002141e+02
551             	3.27000850e+02
552             	3.26997421e+02
553             	3.26993068e+02
554             	3.26986792e+02
555             	3.26981075e+02
556             	3.26979752e+02
557             	3.26970331e+02
558             	3.26960169e+02
559             	3.26952599e+02
560             	3.26946089e+02
561             	3.26934960e+02
562             	3.26930778e+02
563             	3.26930991e+02
564             	3.26932740e+02
565             	3.26933484e+02
566             	3.26936643e+02
567             	3.26943036e+02
568             	3.26951413e+02
569             	3.26942457e+02
570             	3.26944780e+02
571             	3.26952265e+02
572             	3.26960911e+02
573             	3.26968129e+02
574             	3.26974171e+02
575             	3.26979330e+02
576             	3.26978703e+02
577             	3.26978597e+02
578             	3.26983546e+02
579             	3.26990241e+02
580             	3.26998086e+02
581             	3.27007028e+02
582             	3.27017114e+02
583             	3.27027106e+02
584             	3.27036011e+02
585             	3.27043102e+02
586             	3.27047606e+02
587             	3.27054003e+02
588             	3.27056406e+02
589             	3.27047225e+02
590             	3.27045085e+02
591             	3.27045311e+02
592             	3.27042461e+02
593             	3.27035587e+02
594             	3.27032335e+02
595             	3.27031138e+02
596             	3.27030556e+02
597             	3.27030177e+02
598             	3.27030238e+02
599             	3.27031272e+02
600             	3.27033182e+02
601             	3.27032166e+02
602             	3.27032527e+02
603             	3.27038642e+02
604             	3.27048684e+02
605             	3.27056880e+02
606             	3.27065483e+02
607             	3.27079220e+02
608             	3.27091040e+02
609             	3.27093639e+02
610             	3.27095839e+02
611             	3.27100942e+02
612             	3.27102682e+02
613             	3.27104390e+02
614             	3.27105761e+02
615             	3.27106331e+02
616             	3.27106041e+02
617             	3.27109688e+02
618             	3.27107865e+02
619             	3.27103983e+02
620             	3.27099811e+02
621             	3.27095747e+02
