# Region        : cellZone component_1
# Cells         : 35
# Volume        : 5.06903678e-02
# Time          	volAverage(T)
1               	3.02877624e+02
2               	3.05654472e+02
3               	3.07756882e+02
4               	3.09445560e+02
5               	3.11036996e+02
6               	3.12585174e+02
7               	3.14068099e+02
8               	3.15444258e+02
9               	3.16720908e+02
10              	3.17922329e+02
11              	3.19072263e+02
12              	3.20179947e+02
13              	3.21176054e+02
14              	3.22063311e+02
15              	3.22818122e+02
16              	3.23522230e+02
17              	3.24221805e+02
18              	3.24944206e+02
19              	3.25636648e+02
20              	3.26249156e+02
21              	3.27021021e+02
22              	3.27929434e+02
23              	3.28825247e+02
24              	3.29703626e+02
25              	3.30555854e+02
26              	3.31374616e+02
27              	3.32115996e+02
28              	3.32658695e+02
29              	3.33065219e+02
30              	3.33296035e+02
31              	3.33658837e+02
32              	3.33901754e+02
33              	3.34108041e+02
34              	3.34295266e+02
35              	3.34446403e+02
36              	3.34703946e+02
37              	3.35063935e+02
38              	3.35448648e+02
39              	3.35859377e+02
40              	3.36304621e+02
41              	3.36717117e+02
42              	3.37098397e+02
43              	3.37423258e+02
44              	3.37633774e+02
45              	3.37735681e+02
46              	3.37750041e+02
47              	3.37686418e+02
48              	3.37510728e+02
49              	3.37344438e+02
50              	3.37197018e+02
51              	3.37104680e+02
52              	3.37091000e+02
53              	3.37112617e+02
54              	3.37152330e+02
55              	3.36933141e+02
56              	3.36658738e+02
57              	3.36321308e+02
58              	3.36220988e+02
59              	3.36276529e+02
60              	3.36328739e+02
61              	3.36288073e+02
62              	3.36151608e+02
63              	3.36002405e+02
64              	3.35815625e+02
65              	3.35625015e+02
66              	3.35427003e+02
67              	3.35286333e+02
68              	3.35139214e+02
69              	3.35018824e+02
70              	3.34866945e+02
71              	3.34846651e+02
72              	3.34756326e+02
73              	3.34534182e+02
74              	3.34260103e+02
75              	3.34134904e+02
76              	3.34104317e+02
77              	3.34028548e+02
78              	3.33988059e+02
79              	3.34005863e+02
80              	3.33987863e+02
81              	3.34147019e+02
82              	3.34253959e+02
83              	3.34274124e+02
84              	3.34315077e+02
85              	3.34321781e+02
86              	3.34236532e+02
87              	3.33970937e+02
88              	3.33750354e+02
89              	3.33530727e+02
90              	3.33276278e+02
91              	3.33068713e+02
92              	3.32859768e+02
93              	3.32802623e+02
94              	3.32726888e+02
95              	3.32669671e+02
96              	3.32608584e+02
97              	3.32524856e+02
98              	3.32407054e+02
99              	3.32315014e+02
100             	3.32240939e+02
101             	3.32148670e+02
102             	3.32059322e+02
103             	3.31937954e+02
104             	3.31819442e+02
105             	3.31755324e+02
106             	3.31755466e+02
107             	3.31793419e+02
108             	3.31849258e+02
109             	3.31888455e+02
110             	3.31927685e+02
111             	3.31992588e+02
112             	3.32089242e+02
113             	3.32168459e+02
114             	3.32271236e+02
115             	3.32379266e+02
116             	3.32492950e+02
117             	3.32598794e+02
118             	3.32714599e+02
119             	3.32852278e+02
120             	3.32986271e+02
121             	3.33073980e+02
122             	3.33214335e+02
123             	3.33347599e+02
124             	3.33455339e+02
125             	3.33554749e+02
126             	3.33665927e+02
127             	3.33789504e+02
128             	3.33932365e+02
129             	3.34087461e+02
130             	3.34256257e+02
131             	3.34389913e+02
132             	3.34476768e+02
133             	3.34590065e+02
134             	3.34711594e+02
135             	3.34823458e+02
136             	3.34902707e+02
137             	3.34768679e+02
138             	3.34745830e+02
139             	3.34737242e+02
140             	3.34717789e+02
141             	3.34660948e+02
142             	3.34595219e+02
143             	3.34557098e+02
144             	3.34552860e+02
145             	3.34576521e+02
146             	3.34616488e+02
147             	3.34640050e+02
148             	3.34668286e+02
149             	3.34723684e+02
150             	3.34798654e+02
151             	3.34889987e+02
152             	3.34981412e+02
153             	3.35065931e+02
154             	3.35115121e+02
155             	3.35156807e+02
156             	3.35207911e+02
157             	3.35261599e+02
158             	3.35301317e+02
159             	3.35325744e+02
160             	3.35356775e+02
161             	3.35383423e+02
162             	3.35410533e+02
163             	3.35440339e+02
164             	3.35474143e+02
165             	3.35513957e+02
166             	3.35564868e+02
167             	3.35630055e+02
168             	3.35704367e+02
169             	3.35784455e+02
170             	3.35863165e+02
171             	3.35942724e+02
172             	3.36027461e+02
173             	3.36102741e+02
174             	3.36184249e+02
175             	3.36240085e+02
176             	3.36277560e+02
177             	3.36312743e+02
178             	3.36350929e+02
179             	3.36404224e+02
180             	3.36428924e+02
181             	3.36462522e+02
182             	3.36481298e+02
183             	3.36459493e+02
184             	3.36478170e+02
185             	3.36561144e+02
186             	3.36632140e+02
187             	3.36698246e+02
188             	3.36749511e+02
189             	3.36790044e+02
190             	3.36825189e+02
191             	3.36865413e+02
192             	3.36915001e+02
193             	3.36951634e+02
194             	3.36981154e+02
195             	3.37006725e+02
196             	3.37022463e+02
197             	3.37031303e+02
198             	3.37034629e+02
199             	3.37030727e+02
200             	3.37025286e+02
201             	3.37018105e+02
202             	3.37036010e+02
203             	3.37072907e+02
204             	3.37110180e+02
205             	3.37137065e+02
206             	3.37167732e+02
207             	3.37196728e+02
208             	3.37227843e+02
209             	3.37262915e+02
210             	3.37294828e+02
211             	3.37320534e+02
212             	3.37342431e+02
213             	3.37355193e+02
214             	3.37364058e+02
215             	3.37369767e+02
216             	3.37362315e+02
217             	3.37359079e+02
218             	3.37368716e+02
219             	3.37374249e+02
220             	3.37374364e+02
221             	3.37372014e+02
222             	3.37374487e+02
223             	3.37380759e+02
224             	3.37370291e+02
225             	3.37345730e+02
226             	3.37344373e+02
227             	3.37370463e+02
228             	3.37407199e+02
229             	3.37439233e+02
230             	3.37461529e+02
231             	3.37484802e+02
232             	3.37505302e+02
233             	3.37533677e+02
234             	3.37571215e+02
235             	3.37579782e+02
236             	3.37576798e+02
237             	3.37579566e+02
238             	3.37581037e+02
239             	3.37574025e+02
240             	3.37572371e+02
241             	3.37549296e+02
242             	3.37550120e+02
243             	3.37559038e+02
244             	3.37564803e+02
245             	3.37563732e+02
246             	3.37564574e+02
247             	3.37569469e+02
248             	3.37584368e+02
249             	3.37602257e+02
250             	3.37625895e+02
251             	3.37677230e+02
252             	3.37665741e+02
253             	3.37636527e+02
254             	3.37622897e+02
255             	3.37623414e+02
256             	3.37623211e+02
257             	3.37592390e+02
258             	3.37568520e+02
259             	3.37546668e+02
260             	3.37531383e+02
261             	3.37515318e+02
262             	3.37501003e+02
263             	3.37493120e+02
264             	3.37492558e+02
265             	3.37505710e+02
266             	3.37525934e+02
267             	3.37553842e+02
268             	3.37571061e+02
269             	3.37596786e+02
270             	3.37630272e+02
271             	3.37668677e+02
272             	3.37704161e+02
273             	3.37735572e+02
274             	3.37761288e+02
275             	3.37766214e+02
276             	3.37770475e+02
277             	3.37778589e+02
278             	3.37788788e+02
279             	3.37797893e+02
280             	3.37797459e+02
281             	3.37791016e+02
282             	3.37789657e+02
283             	3.37788370e+02
284             	3.37780438e+02
285             	3.37770601e+02
286             	3.37764530e+02
287             	3.37757901e+02
288             	3.37744275e+02
289             	3.37740021e+02
290             	3.37740097e+02
291             	3.37735623e+02
292             	3.37725483e+02
293             	3.37712738e+02
294             	3.37706554e+02
295             	3.37700980e+02
296             	3.37698233e+02
297             	3.37700660e+02
298             	3.37709763e+02
299             	3.37720347e+02
300             	3.37729668e+02
301             	3.37735819e+02
302             	3.37743081e+02
303             	3.37754903e+02
304             	3.37770112e+02
305             	3.37785923e+02
306             	3.37800814e+02
307             	3.37813670e+02
308             	3.37824522e+02
309             	3.37835602e+02
310             	3.37843055e+02
311             	3.37846576e+02
312             	3.37850592e+02
313             	3.37852187e+02
314             	3.37853701e+02
315             	3.37850590e+02
316             	3.37851254e+02
317             	3.37853778e+02
318             	3.37857144e+02
319             	3.37866604e+02
320             	3.37872860e+02
321             	3.37865860e+02
322             	3.37853272e+02
323             	3.37844042e+02
324             	3.37842815e+02
325             	3.37852428e+02
326             	3.37864346e+02
327             	3.37872983e+02
328             	3.37878797e+02
329             	3.37885612e+02
330             	3.37896782e+02
331             	3.37912852e+02
332             	3.37924503e+02
333             	3.37929558e+02
334             	3.37934452e+02
335             	3.37935062e+02
336             	3.37931718e+02
337             	3.37924924e+02
338             	3.37914338e+02
339             	3.37896387e+02
340             	3.37880414e+02
341             	3.37874680e+02
342             	3.37871275e+02
343             	3.37868216e+02
344             	3.37860427e+02
345             	3.37849985e+02
346             	3.37843003e+02
347             	3.37844045e+02
348             	3.37848886e+02
349             	3.37844231e+02
350             	3.37836786e+02
351             	3.37831920e+02
352             	3.37828479e+02
353             	3.37825039e+02
354             	3.37820759e+02
355             	3.37815974e+02
356             	3.37814697e+02
357             	3.37814592e+02
358             	3.37810581e+02
359             	3.37813792e+02
360             	3.37822411e+02
361             	3.37832867e+02
362             	3.37843352e+02
363             	3.37853178e+02
364             	3.37863296e+02
365             	3.37870451e+02
366             	3.37878834e+02
367             	3.37885987e+02
368             	3.37891134e+02
369             	3.37893413e+02
370             	3.37891831e+02
371             	3.37889427e+02
372             	3.37884961e+02
373             	3.37879248e+02
374             	3.37873437e+02
375             	3.37868077e+02
376             	3.37867426e+02
377             	3.37865225e+02
378             	3.37864995e+02
379             	3.37862093e+02
380             	3.37858282e+02
381             	3.37854655e+02
382             	3.37856383e+02
383             	3.37859691e+02
384             	3.37857536e+02
385             	3.37852451e+02
386             	3.37846863e+02
387             	3.37840811e+02
388             	3.37830905e+02
389             	3.37825003e+02
390             	3.37824503e+02
391             	3.37824424e+02
392             	3.37823655e+02
393             	3.37823129e+02
394             	3.37819508e+02
395             	3.37814734e+02
396             	3.37811352e+02
397             	3.37809363e+02
398             	3.37807683e+02
399             	3.37809864e+02
400             	3.37807504e+02
401             	3.37803997e+02
402             	3.37803091e+02
403             	3.37805597e+02
404             	3.37810120e+02
405             	3.37817493e+02
406             	3.37822588e+02
407             	3.37829584e+02
408             	3.37839753e+02
409             	3.37851415e+02
410             	3.37864134e+02
411             	3.37879590e+02
412             	3.37893227e+02
413             	3.37906497e+02
414             	3.37915019e+02
415             	3.37919553e+02
416             	3.37921088e+02
417             	3.37919541e+02
418             	3.37909838e+02
419             	3.37899069e+02
420             	3.37884313e+02
421             	3.37869853e+02
422             	3.37854178e+02
423             	3.37837496e+02
424             	3.37820882e+02
425             	3.37805976e+02
426             	3.37792632e+02
427             	3.37781540e+02
428             	3.37772514e+02
429             	3.37761678e+02
430             	3.37752024e+02
431             	3.37744379e+02
432             	3.37733621e+02
433             	3.37730140e+02
434             	3.37733367e+02
435             	3.37739295e+02
436             	3.37746278e+02
437             	3.37753624e+02
438             	3.37763836e+02
439             	3.37776386e+02
440             	3.37789566e+02
441             	3.37808095e+02
442             	3.37822977e+02
443             	3.37842494e+02
444             	3.37857199e+02
445             	3.37869278e+02
446             	3.37880647e+02
447             	3.37891983e+02
448             	3.37902106e+02
449             	3.37909760e+02
450             	3.37914503e+02
451             	3.37916550e+02
452             	3.37916307e+02
453             	3.37917874e+02
454             	3.37920477e+02
455             	3.37922705e+02
456             	3.37922344e+02
457             	3.37920254e+02
458             	3.37919450e+02
459             	3.37918909e+02
460             	3.37916882e+02
461             	3.37912826e+02
462             	3.37907862e+02
463             	3.37900567e+02
464             	3.37892984e+02
465             	3.37886994e+02
466             	3.37885964e+02
467             	3.37879867e+02
468             	3.37871274e+02
469             	3.37864168e+02
470             	3.37859595e+02
471             	3.37856242e+02
472             	3.37858229e+02
473             	3.37856836e+02
474             	3.37854224e+02
475             	3.37853669e+02
476             	3.37855462e+02
477             	3.37856994e+02
478             	3.37860397e+02
479             	3.37866138e+02
480             	3.37870485e+02
481             	3.37877066e+02
482             	3.37884066e+02
483             	3.37889892e+02
484             	3.37894410e+02
485             	3.37899491e+02
486             	3.37905605e+02
487             	3.37911473e+02
488             	3.37913962e+02
489             	3.37913195e+02
490             	3.37911732e+02
491             	3.37910002e+02
492             	3.37909783e+02
493             	3.37907978e+02
494             	3.37905154e+02
495             	3.37902579e+02
496             	3.37900700e+02
497             	3.37899467e+02
498             	3.37899728e+02
499             	3.37898926e+02
500             	3.37898486e+02
501             	3.37898267e+02
502             	3.37897650e+02
503             	3.37896478e+02
504             	3.37894569e+02
505             	3.37892769e+02
506             	3.37892179e+02
507             	3.37892463e+02
508             	3.37892864e+02
509             	3.37890973e+02
510             	3.37888392e+02
511             	3.37885171e+02
512             	3.37881329e+02
513             	3.37878735e+02
514             	3.37876975e+02
515             	3.37875533e+02
516             	3.37874614e+02
517             	3.37874965e+02
518             	3.37876643e+02
519             	3.37879122e+02
520             	3.37882332e+02
521             	3.37887147e+02
522             	3.37891181e+02
523             	3.37896675e+02
524             	3.37899912e+02
525             	3.37902171e+02
526             	3.37904685e+02
527             	3.37905386e+02
528             	3.37904689e+02
529             	3.37903394e+02
530             	3.37901920e+02
531             	3.37896206e+02
532             	3.37892698e+02
533             	3.37890564e+02
534             	3.37888467e+02
535             	3.37885584e+02
536             	3.37883800e+02
537             	3.37881217e+02
538             	3.37878847e+02
539             	3.37876872e+02
540             	3.37875350e+02
541             	3.37874999e+02
542             	3.37875074e+02
543             	3.37875226e+02
544             	3.37875616e+02
545             	3.37876550e+02
546             	3.37878222e+02
547             	3.37880727e+02
548             	3.37883955e+02
549             	3.37887770e+02
550             	3.37890875e+02
551             	3.37894642e+02
552             	3.37898585e+02
553             	3.37901482e+02
554             	3.37903299e+02
555             	3.37904404e+02
556             	3.37905355e+02
557             	3.37905732e+02
558             	3.37905419e+02
559             	3.37904723e+02
560             	3.37903558e+02
561             	3.37902226e+02
562             	3.37900147e+02
563             	3.37898951e+02
564             	3.37896596e+02
565             	3.37893655e+02
566             	3.37890831e+02
567             	3.37888302e+02
568             	3.37886060e+02
569             	3.37884271e+02
570             	3.37882687e+02
571             	3.37881680e+02
572             	3.37881294e+02
573             	3.37881311e+02
574             	3.37880029e+02
575             	3.37879670e+02
576             	3.37880808e+02
577             	3.37883280e+02
578             	3.37884381e+02
579             	3.37884623e+02
580             	3.37884800e+02
581             	3.37885096e+02
582             	3.37885736e+02
583             	3.37885731e+02
584             	3.37885486e+02
585             	3.37885362e+02
586             	3.37885363e+02
587             	3.37885421e+02
588             	3.37885553e+02
589             	3.37885880e+02
590             	3.37886591e+02
591             	3.37887765e+02
592             	3.37889177e+02
593             	3.37890734e+02
594             	3.37892419e+02
595             	3.37893696e+02
596             	3.37895960e+02
597             	3.37898596e+02
598             	3.37899686e+02
599             	3.37899165e+02
600             	3.37898809e+02
601             	3.37898434e+02
602             	3.37897588e+02
603             	3.37896048e+02
604             	3.37893740e+02
605             	3.37890510e+02
606             	3.37888040e+02
607             	3.37886023e+02
608             	3.37883966e+02
609             	3.37881875e+02
610             	3.37879988e+02
611             	3.37878231e+02
612             	3.37877535e+02
613             	3.37877357e+02
614             	3.37877119e+02
615             	3.37876760e+02
616             	3.37876593e+02
617             	3.37877485e+02
618             	3.37878934e+02
619             	3.37880645e+02
620             	3.37883062e+02
621             	3.37885490e+02
