# Region        : cellZone component_3
# Cells         : 24
# Volume        : 3.44523472e-02
# Time          	volAverage(T)
1               	3.02384740e+02
2               	3.04715269e+02
3               	3.06595861e+02
4               	3.08181335e+02
5               	3.09661354e+02
6               	3.11079958e+02
7               	3.12434893e+02
8               	3.13699828e+02
9               	3.14879744e+02
10              	3.16004814e+02
11              	3.17027916e+02
12              	3.17978589e+02
13              	3.18817306e+02
14              	3.19647663e+02
15              	3.20387480e+02
16              	3.21061584e+02
17              	3.21722882e+02
18              	3.22365481e+02
19              	3.23016516e+02
20              	3.23574807e+02
21              	3.24070803e+02
22              	3.24589020e+02
23              	3.25178927e+02
24              	3.25771506e+02
25              	3.26353288e+02
26              	3.26897785e+02
27              	3.27307907e+02
28              	3.27652324e+02
29              	3.27889204e+02
30              	3.28175709e+02
31              	3.28374985e+02
32              	3.28429940e+02
33              	3.28486754e+02
34              	3.28657676e+02
35              	3.28783354e+02
36              	3.28771845e+02
37              	3.28685140e+02
38              	3.28600193e+02
39              	3.28538492e+02
40              	3.28621910e+02
41              	3.28768322e+02
42              	3.28835862e+02
43              	3.28924673e+02
44              	3.28992882e+02
45              	3.28920300e+02
46              	3.28922786e+02
47              	3.28934595e+02
48              	3.28930109e+02
49              	3.28839218e+02
50              	3.28753611e+02
51              	3.28656750e+02
52              	3.28581400e+02
53              	3.28654069e+02
54              	3.28779047e+02
55              	3.28957898e+02
56              	3.29152917e+02
57              	3.29286195e+02
58              	3.29309720e+02
59              	3.29297859e+02
60              	3.29365983e+02
61              	3.29464450e+02
62              	3.29468189e+02
63              	3.29334326e+02
64              	3.29195706e+02
65              	3.29101585e+02
66              	3.28996702e+02
67              	3.29012123e+02
68              	3.29035045e+02
69              	3.28941462e+02
70              	3.28876599e+02
71              	3.28805937e+02
72              	3.28825580e+02
73              	3.28782890e+02
74              	3.28593536e+02
75              	3.28449590e+02
76              	3.28329722e+02
77              	3.28296376e+02
78              	3.28276388e+02
79              	3.28207370e+02
80              	3.28119652e+02
81              	3.28051262e+02
82              	3.27973439e+02
83              	3.27938988e+02
84              	3.27903911e+02
85              	3.27862977e+02
86              	3.27868918e+02
87              	3.27866896e+02
88              	3.27843375e+02
89              	3.27722050e+02
90              	3.27725474e+02
91              	3.27789182e+02
92              	3.27818295e+02
93              	3.27771797e+02
94              	3.27725410e+02
95              	3.27674057e+02
96              	3.27654354e+02
97              	3.27647696e+02
98              	3.27660278e+02
99              	3.27666641e+02
100             	3.27646554e+02
101             	3.27662191e+02
102             	3.27708822e+02
103             	3.27721841e+02
104             	3.27816459e+02
105             	3.27955510e+02
106             	3.28105303e+02
107             	3.28258052e+02
108             	3.28312348e+02
109             	3.28331502e+02
110             	3.28352069e+02
111             	3.28408685e+02
112             	3.28451267e+02
113             	3.28473263e+02
114             	3.28483123e+02
115             	3.28499029e+02
116             	3.28517933e+02
117             	3.28567130e+02
118             	3.28587684e+02
119             	3.28593682e+02
120             	3.28619341e+02
121             	3.28658433e+02
122             	3.28676621e+02
123             	3.28668319e+02
124             	3.28675596e+02
125             	3.28670081e+02
126             	3.28687149e+02
127             	3.28549883e+02
128             	3.28454452e+02
129             	3.28458090e+02
130             	3.28462208e+02
131             	3.28465550e+02
132             	3.28471710e+02
133             	3.28443699e+02
134             	3.28414826e+02
135             	3.28408717e+02
136             	3.28389606e+02
137             	3.28387964e+02
138             	3.28376496e+02
139             	3.28389322e+02
140             	3.28447277e+02
141             	3.28528692e+02
142             	3.28599809e+02
143             	3.28642166e+02
144             	3.28670521e+02
145             	3.28690031e+02
146             	3.28740545e+02
147             	3.28804569e+02
148             	3.28872499e+02
149             	3.28945770e+02
150             	3.29018763e+02
151             	3.29090242e+02
152             	3.29155203e+02
153             	3.29243382e+02
154             	3.29318512e+02
155             	3.29358520e+02
156             	3.29419350e+02
157             	3.29460167e+02
158             	3.29506601e+02
159             	3.29446625e+02
160             	3.29447521e+02
161             	3.29487243e+02
162             	3.29478445e+02
163             	3.29486729e+02
164             	3.29502361e+02
165             	3.29509887e+02
166             	3.29518099e+02
167             	3.29533514e+02
168             	3.29554594e+02
169             	3.29590431e+02
170             	3.29632076e+02
171             	3.29690216e+02
172             	3.29728550e+02
173             	3.29735946e+02
174             	3.29734263e+02
175             	3.29742120e+02
176             	3.29738395e+02
177             	3.29685680e+02
178             	3.29658012e+02
179             	3.29658366e+02
180             	3.29656538e+02
181             	3.29678580e+02
182             	3.29731887e+02
183             	3.29790009e+02
184             	3.29840203e+02
185             	3.29869066e+02
186             	3.29897593e+02
187             	3.29948676e+02
188             	3.29910215e+02
189             	3.29925303e+02
190             	3.29955559e+02
191             	3.30012182e+02
192             	3.30077879e+02
193             	3.30139662e+02
194             	3.30212751e+02
195             	3.30323664e+02
196             	3.30445728e+02
197             	3.30570388e+02
198             	3.30682122e+02
199             	3.30685585e+02
200             	3.30719614e+02
201             	3.30764539e+02
202             	3.30787691e+02
203             	3.30785157e+02
204             	3.30760433e+02
205             	3.30694986e+02
206             	3.30626551e+02
207             	3.30558205e+02
208             	3.30486393e+02
209             	3.30417154e+02
210             	3.30360636e+02
211             	3.30308135e+02
212             	3.30262748e+02
213             	3.30233032e+02
214             	3.30206769e+02
215             	3.30186828e+02
216             	3.30173998e+02
217             	3.30164466e+02
218             	3.30147376e+02
219             	3.30129309e+02
220             	3.30117541e+02
221             	3.30112195e+02
222             	3.30126440e+02
223             	3.30093108e+02
224             	3.30039984e+02
225             	3.30007473e+02
226             	3.29999701e+02
227             	3.30002062e+02
228             	3.30008803e+02
229             	3.30027296e+02
230             	3.30019749e+02
231             	3.30010694e+02
232             	3.30009648e+02
233             	3.30013692e+02
234             	3.30020128e+02
235             	3.30020666e+02
236             	3.29984864e+02
237             	3.29965454e+02
238             	3.29957179e+02
239             	3.29954759e+02
240             	3.29956381e+02
241             	3.29960552e+02
242             	3.29967480e+02
243             	3.29978403e+02
244             	3.29992264e+02
245             	3.30009665e+02
246             	3.30025558e+02
247             	3.30041811e+02
248             	3.30053554e+02
249             	3.30061294e+02
250             	3.30066475e+02
251             	3.30059698e+02
252             	3.30050407e+02
253             	3.30043195e+02
254             	3.30036162e+02
255             	3.30026608e+02
256             	3.30001100e+02
257             	3.29986796e+02
258             	3.29972558e+02
259             	3.29969921e+02
260             	3.29975103e+02
261             	3.29985782e+02
262             	3.30000828e+02
263             	3.30019315e+02
264             	3.30041126e+02
265             	3.30066026e+02
266             	3.30087235e+02
267             	3.30110181e+02
268             	3.30128181e+02
269             	3.30139614e+02
270             	3.30148982e+02
271             	3.30162168e+02
272             	3.30173345e+02
273             	3.30183908e+02
274             	3.30195604e+02
275             	3.30208947e+02
276             	3.30223301e+02
277             	3.30238104e+02
278             	3.30250520e+02
279             	3.30263443e+02
280             	3.30277500e+02
281             	3.30289377e+02
282             	3.30297629e+02
283             	3.30303834e+02
284             	3.30303287e+02
285             	3.30307102e+02
286             	3.30312928e+02
287             	3.30317411e+02
288             	3.30320168e+02
289             	3.30322039e+02
290             	3.30325835e+02
291             	3.30330523e+02
292             	3.30330443e+02
293             	3.30332684e+02
294             	3.30336474e+02
295             	3.30340345e+02
296             	3.30343771e+02
297             	3.30347448e+02
298             	3.30350834e+02
299             	3.30353697e+02
300             	3.30355696e+02
301             	3.30356548e+02
302             	3.30356323e+02
303             	3.30346343e+02
304             	3.30341397e+02
305             	3.30338895e+02
306             	3.30336351e+02
307             	3.30334046e+02
308             	3.30332227e+02
309             	3.30330275e+02
310             	3.30328008e+02
311             	3.30326332e+02
312             	3.30325200e+02
313             	3.30324117e+02
314             	3.30322883e+02
315             	3.30322519e+02
316             	3.30319687e+02
317             	3.30317289e+02
318             	3.30316585e+02
319             	3.30317123e+02
320             	3.30318057e+02
321             	3.30318835e+02
322             	3.30319507e+02
323             	3.30320009e+02
324             	3.30320384e+02
325             	3.30321083e+02
326             	3.30322038e+02
327             	3.30320503e+02
328             	3.30321987e+02
329             	3.30324801e+02
330             	3.30326673e+02
331             	3.30327010e+02
332             	3.30326611e+02
333             	3.30326723e+02
334             	3.30326826e+02
335             	3.30325777e+02
336             	3.30324073e+02
337             	3.30322630e+02
338             	3.30323064e+02
339             	3.30318924e+02
340             	3.30314083e+02
341             	3.30311071e+02
342             	3.30309475e+02
343             	3.30307187e+02
344             	3.30303872e+02
345             	3.30301948e+02
346             	3.30300514e+02
347             	3.30299062e+02
348             	3.30295836e+02
349             	3.30295640e+02
350             	3.30297113e+02
351             	3.30299312e+02
352             	3.30301557e+02
353             	3.30302398e+02
354             	3.30305170e+02
355             	3.30308181e+02
356             	3.30311639e+02
357             	3.30315167e+02
358             	3.30316084e+02
359             	3.30316819e+02
360             	3.30317513e+02
361             	3.30317226e+02
362             	3.30317318e+02
363             	3.30316402e+02
364             	3.30312916e+02
365             	3.30312008e+02
366             	3.30311376e+02
367             	3.30309396e+02
368             	3.30307419e+02
369             	3.30306384e+02
370             	3.30306110e+02
371             	3.30305740e+02
372             	3.30304909e+02
373             	3.30304495e+02
374             	3.30304956e+02
375             	3.30305039e+02
376             	3.30304295e+02
377             	3.30303307e+02
378             	3.30302402e+02
379             	3.30301636e+02
380             	3.30301117e+02
381             	3.30300661e+02
382             	3.30300929e+02
383             	3.30300935e+02
384             	3.30301979e+02
385             	3.30302567e+02
386             	3.30302261e+02
387             	3.30302578e+02
388             	3.30303158e+02
389             	3.30302932e+02
390             	3.30302971e+02
391             	3.30303722e+02
392             	3.30304186e+02
393             	3.30304100e+02
394             	3.30303776e+02
395             	3.30303502e+02
396             	3.30303842e+02
397             	3.30303774e+02
398             	3.30303554e+02
399             	3.30303694e+02
400             	3.30303868e+02
401             	3.30303736e+02
402             	3.30303066e+02
403             	3.30303040e+02
404             	3.30303793e+02
405             	3.30304431e+02
406             	3.30304976e+02
407             	3.30305720e+02
408             	3.30306784e+02
409             	3.30308096e+02
410             	3.30309531e+02
411             	3.30311366e+02
412             	3.30312811e+02
413             	3.30313745e+02
414             	3.30314499e+02
415             	3.30315150e+02
416             	3.30315558e+02
417             	3.30315743e+02
418             	3.30315957e+02
419             	3.30315874e+02
420             	3.30315529e+02
421             	3.30315193e+02
422             	3.30315021e+02
423             	3.30314982e+02
424             	3.30314999e+02
425             	3.30314876e+02
426             	3.30314335e+02
427             	3.30314341e+02
428             	3.30314335e+02
429             	3.30314181e+02
430             	3.30313927e+02
431             	3.30313589e+02
432             	3.30313240e+02
433             	3.30313006e+02
434             	3.30312952e+02
435             	3.30312770e+02
436             	3.30312377e+02
437             	3.30312247e+02
438             	3.30312370e+02
439             	3.30312440e+02
440             	3.30312701e+02
441             	3.30313100e+02
442             	3.30313362e+02
443             	3.30313487e+02
444             	3.30313848e+02
445             	3.30314778e+02
446             	3.30315282e+02
447             	3.30315497e+02
448             	3.30315640e+02
449             	3.30315715e+02
450             	3.30315536e+02
451             	3.30315051e+02
452             	3.30314488e+02
453             	3.30314175e+02
454             	3.30313965e+02
455             	3.30314284e+02
456             	3.30314795e+02
457             	3.30315273e+02
458             	3.30315687e+02
459             	3.30316129e+02
460             	3.30316790e+02
461             	3.30317800e+02
462             	3.30318303e+02
463             	3.30318446e+02
464             	3.30318530e+02
465             	3.30318309e+02
466             	3.30317785e+02
467             	3.30317218e+02
468             	3.30316779e+02
469             	3.30316373e+02
470             	3.30315893e+02
471             	3.30315335e+02
472             	3.30315144e+02
473             	3.30315101e+02
474             	3.30315086e+02
475             	3.30315294e+02
476             	3.30315489e+02
477             	3.30315795e+02
478             	3.30316094e+02
479             	3.30316263e+02
480             	3.30316325e+02
481             	3.30316369e+02
482             	3.30316423e+02
483             	3.30316619e+02
484             	3.30316806e+02
485             	3.30316879e+02
486             	3.30317000e+02
487             	3.30316981e+02
488             	3.30316958e+02
489             	3.30317054e+02
490             	3.30317128e+02
491             	3.30317037e+02
492             	3.30316851e+02
493             	3.30316608e+02
494             	3.30316249e+02
495             	3.30315907e+02
496             	3.30315793e+02
497             	3.30316187e+02
498             	3.30316677e+02
499             	3.30317097e+02
500             	3.30317511e+02
501             	3.30317931e+02
502             	3.30318367e+02
503             	3.30318783e+02
504             	3.30319366e+02
505             	3.30319146e+02
506             	3.30318715e+02
507             	3.30318322e+02
508             	3.30317952e+02
509             	3.30317465e+02
510             	3.30316725e+02
511             	3.30316678e+02
512             	3.30316793e+02
513             	3.30316844e+02
514             	3.30317026e+02
515             	3.30317394e+02
516             	3.30317775e+02
517             	3.30318238e+02
518             	3.30318753e+02
519             	3.30319191e+02
520             	3.30319482e+02
521             	3.30319842e+02
522             	3.30319991e+02
523             	3.30320062e+02
524             	3.30320082e+02
525             	3.30319936e+02
526             	3.30319811e+02
527             	3.30319776e+02
528             	3.30319663e+02
529             	3.30319464e+02
530             	3.30319216e+02
531             	3.30318901e+02
532             	3.30318639e+02
533             	3.30318354e+02
534             	3.30318042e+02
535             	3.30317829e+02
536             	3.30317896e+02
537             	3.30318080e+02
538             	3.30318254e+02
539             	3.30318434e+02
540             	3.30318675e+02
541             	3.30319001e+02
542             	3.30319321e+02
543             	3.30319383e+02
544             	3.30319358e+02
545             	3.30319345e+02
546             	3.30319337e+02
547             	3.30319325e+02
548             	3.30319192e+02
549             	3.30318963e+02
550             	3.30318769e+02
551             	3.30318776e+02
552             	3.30318848e+02
553             	3.30318916e+02
554             	3.30319013e+02
555             	3.30319145e+02
556             	3.30319299e+02
557             	3.30319483e+02
558             	3.30319636e+02
559             	3.30319737e+02
560             	3.30319782e+02
561             	3.30319798e+02
562             	3.30319741e+02
563             	3.30319579e+02
564             	3.30319374e+02
565             	3.30319156e+02
566             	3.30319061e+02
567             	3.30319012e+02
568             	3.30318996e+02
569             	3.30319013e+02
570             	3.30319104e+02
571             	3.30319315e+02
572             	3.30319578e+02
573             	3.30319826e+02
574             	3.30319955e+02
575             	3.30320011e+02
576             	3.30320208e+02
577             	3.30320283e+02
578             	3.30320318e+02
579             	3.30320331e+02
580             	3.30320373e+02
581             	3.30320380e+02
582             	3.30320389e+02
583             	3.30320407e+02
584             	3.30320449e+02
585             	3.30320480e+02
586             	3.30320487e+02
587             	3.30320501e+02
588             	3.30320554e+02
589             	3.30320508e+02
590             	3.30320407e+02
591             	3.30320284e+02
592             	3.30320198e+02
593             	3.30320066e+02
594             	3.30319927e+02
595             	3.30319799e+02
596             	3.30319668e+02
597             	3.30319513e+02
598             	3.30319379e+02
599             	3.30319311e+02
600             	3.30319270e+02
601             	3.30319223e+02
602             	3.30319215e+02
603             	3.30319231e+02
604             	3.30319281e+02
605             	3.30319359e+02
606             	3.30319412e+02
607             	3.30319455e+02
608             	3.30319529e+02
609             	3.30319557e+02
610             	3.30319571e+02
611             	3.30319591e+02
612             	3.30319601e+02
613             	3.30319605e+02
614             	3.30319562e+02
615             	3.30319489e+02
616             	3.30319423e+02
617             	3.30319374e+02
618             	3.30319305e+02
619             	3.30319252e+02
620             	3.30319206e+02
621             	3.30319188e+02
