# Region        : cellZone component_1
# Cells         : 44
# Volume        : 7.04261777e-02
# Time          	volAverage(T)
1               	3.02466484e+02
2               	3.04872757e+02
3               	3.06841611e+02
4               	3.08546168e+02
5               	3.10183233e+02
6               	3.11800830e+02
7               	3.13390924e+02
8               	3.14951196e+02
9               	3.16454407e+02
10              	3.17871417e+02
11              	3.19186407e+02
12              	3.20354681e+02
13              	3.21413363e+02
14              	3.22338003e+02
15              	3.23281773e+02
16              	3.24382923e+02
17              	3.25559359e+02
18              	3.26734640e+02
19              	3.27859155e+02
20              	3.28929350e+02
21              	3.29911155e+02
22              	3.30845169e+02
23              	3.31761534e+02
24              	3.32651470e+02
25              	3.33548743e+02
26              	3.34406174e+02
27              	3.35220704e+02
28              	3.36065842e+02
29              	3.36832724e+02
30              	3.37552113e+02
31              	3.38271027e+02
32              	3.38900702e+02
33              	3.39362611e+02
34              	3.39818521e+02
35              	3.40268908e+02
36              	3.40728534e+02
37              	3.41215187e+02
38              	3.41634552e+02
39              	3.42105546e+02
40              	3.42558933e+02
41              	3.42992274e+02
42              	3.43415326e+02
43              	3.43880003e+02
44              	3.44329194e+02
45              	3.44708449e+02
46              	3.44756472e+02
47              	3.44622269e+02
48              	3.44579232e+02
49              	3.44552079e+02
50              	3.44676108e+02
51              	3.44865449e+02
52              	3.44939930e+02
53              	3.45009976e+02
54              	3.45165052e+02
55              	3.45407620e+02
56              	3.45698458e+02
57              	3.45854900e+02
58              	3.45938153e+02
59              	3.45977955e+02
60              	3.46081045e+02
61              	3.46320109e+02
62              	3.46600534e+02
63              	3.46692518e+02
64              	3.46724676e+02
65              	3.46790739e+02
66              	3.46933342e+02
67              	3.47116903e+02
68              	3.47310891e+02
69              	3.47426380e+02
70              	3.47580665e+02
71              	3.47737604e+02
72              	3.47899942e+02
73              	3.48063115e+02
74              	3.48194016e+02
75              	3.48280706e+02
76              	3.48307157e+02
77              	3.48283402e+02
78              	3.48250605e+02
79              	3.48267774e+02
80              	3.48391253e+02
81              	3.48555009e+02
82              	3.48628115e+02
83              	3.48715655e+02
84              	3.48791339e+02
85              	3.48874176e+02
86              	3.49020014e+02
87              	3.49195688e+02
88              	3.49318465e+02
89              	3.49330774e+02
90              	3.49339927e+02
91              	3.49339343e+02
92              	3.49352155e+02
93              	3.49406468e+02
94              	3.49457898e+02
95              	3.49532005e+02
96              	3.49643550e+02
97              	3.49738845e+02
98              	3.49837797e+02
99              	3.49833642e+02
100             	3.49763161e+02
101             	3.49736965e+02
102             	3.49750129e+02
103             	3.49832619e+02
104             	3.49876957e+02
105             	3.49856005e+02
106             	3.49860906e+02
107             	3.49936808e+02
108             	3.49999432e+02
109             	3.50014481e+02
110             	3.50036492e+02
111             	3.50063934e+02
112             	3.50128130e+02
113             	3.50128602e+02
114             	3.50170966e+02
115             	3.50178627e+02
116             	3.50157443e+02
117             	3.50151841e+02
118             	3.50170320e+02
119             	3.50230695e+02
120             	3.50356264e+02
121             	3.50469750e+02
122             	3.50590214e+02
123             	3.50744775e+02
124             	3.50816629e+02
125             	3.50895993e+02
126             	3.50983990e+02
127             	3.50981640e+02
128             	3.50996807e+02
129             	3.51069037e+02
130             	3.51155145e+02
131             	3.51257949e+02
132             	3.51406614e+02
133             	3.51504125e+02
134             	3.51650902e+02
135             	3.51846711e+02
136             	3.52084320e+02
137             	3.52325343e+02
138             	3.52598208e+02
139             	3.52861316e+02
140             	3.53094483e+02
141             	3.53366776e+02
142             	3.53573166e+02
143             	3.53740726e+02
144             	3.53878492e+02
145             	3.54007648e+02
146             	3.54118946e+02
147             	3.54224952e+02
148             	3.54302417e+02
149             	3.54364486e+02
150             	3.54423618e+02
151             	3.54487845e+02
152             	3.54534578e+02
153             	3.54649103e+02
154             	3.54770221e+02
155             	3.54864262e+02
156             	3.54964874e+02
157             	3.55052714e+02
158             	3.55104687e+02
159             	3.55099307e+02
160             	3.55079106e+02
161             	3.55062183e+02
162             	3.55051971e+02
163             	3.55039890e+02
164             	3.55034726e+02
165             	3.55070712e+02
166             	3.55082467e+02
167             	3.55123481e+02
168             	3.55217857e+02
169             	3.55232770e+02
170             	3.55304904e+02
171             	3.55387807e+02
172             	3.55484144e+02
173             	3.55599267e+02
174             	3.55748502e+02
175             	3.55868079e+02
176             	3.55974357e+02
177             	3.56076618e+02
178             	3.56173106e+02
179             	3.56243065e+02
180             	3.56312094e+02
181             	3.56349923e+02
182             	3.56364283e+02
183             	3.56377868e+02
184             	3.56348979e+02
185             	3.56332272e+02
186             	3.56331900e+02
187             	3.56341201e+02
188             	3.56392519e+02
189             	3.56434963e+02
190             	3.56544088e+02
191             	3.56607826e+02
192             	3.56640090e+02
193             	3.56681064e+02
194             	3.56736680e+02
195             	3.56761381e+02
196             	3.56799658e+02
197             	3.56772232e+02
198             	3.56731907e+02
199             	3.56708560e+02
200             	3.56705091e+02
201             	3.56709861e+02
202             	3.56769594e+02
203             	3.56766590e+02
204             	3.56820856e+02
205             	3.56899912e+02
206             	3.56980313e+02
207             	3.57044929e+02
208             	3.57081267e+02
209             	3.57121872e+02
210             	3.57128537e+02
211             	3.57126254e+02
212             	3.57164069e+02
213             	3.57186070e+02
214             	3.57209667e+02
215             	3.57245439e+02
216             	3.57254190e+02
217             	3.57267133e+02
218             	3.57294232e+02
219             	3.57345725e+02
220             	3.57353335e+02
221             	3.57271168e+02
222             	3.57187479e+02
223             	3.57182847e+02
224             	3.57287082e+02
225             	3.57404452e+02
226             	3.57505783e+02
227             	3.57469222e+02
228             	3.57570010e+02
229             	3.57600298e+02
230             	3.57601128e+02
231             	3.57519682e+02
232             	3.57429616e+02
233             	3.57345444e+02
234             	3.57285462e+02
235             	3.57243229e+02
236             	3.57226875e+02
237             	3.57195919e+02
238             	3.57176419e+02
239             	3.57151666e+02
240             	3.57172066e+02
241             	3.57117592e+02
242             	3.57094365e+02
243             	3.57093162e+02
244             	3.57094500e+02
245             	3.57087599e+02
246             	3.57076879e+02
247             	3.57076211e+02
248             	3.57233048e+02
249             	3.57343774e+02
250             	3.57418510e+02
251             	3.57391982e+02
252             	3.57324280e+02
253             	3.57265045e+02
254             	3.57181755e+02
255             	3.57052490e+02
256             	3.56918569e+02
257             	3.56802837e+02
258             	3.56731878e+02
259             	3.56689599e+02
260             	3.56610401e+02
261             	3.56586393e+02
262             	3.56589419e+02
263             	3.56634797e+02
264             	3.56649759e+02
265             	3.56727247e+02
266             	3.56808251e+02
267             	3.56892089e+02
268             	3.56991219e+02
269             	3.57088308e+02
270             	3.57186014e+02
271             	3.57230025e+02
272             	3.57244758e+02
273             	3.57255516e+02
274             	3.57255076e+02
275             	3.57260130e+02
276             	3.57265468e+02
277             	3.57273442e+02
278             	3.57281629e+02
279             	3.57289994e+02
280             	3.57257004e+02
281             	3.57223772e+02
282             	3.57223886e+02
283             	3.57263217e+02
284             	3.57274401e+02
285             	3.57329819e+02
286             	3.57361955e+02
287             	3.57421704e+02
288             	3.57490381e+02
289             	3.57564498e+02
290             	3.57702442e+02
291             	3.57834777e+02
292             	3.57928145e+02
293             	3.57993929e+02
294             	3.58039991e+02
295             	3.58047473e+02
296             	3.58033787e+02
297             	3.58000776e+02
298             	3.57959944e+02
299             	3.57873134e+02
300             	3.57830354e+02
301             	3.57767311e+02
302             	3.57725359e+02
303             	3.57704584e+02
304             	3.57682246e+02
305             	3.57655892e+02
306             	3.57625263e+02
307             	3.57639054e+02
308             	3.57670070e+02
309             	3.57714527e+02
310             	3.57776315e+02
311             	3.57801011e+02
312             	3.57873789e+02
313             	3.57937008e+02
314             	3.58061838e+02
315             	3.58136329e+02
316             	3.58232065e+02
317             	3.58309334e+02
318             	3.58371517e+02
319             	3.58421128e+02
320             	3.58431612e+02
321             	3.58405490e+02
322             	3.58369987e+02
323             	3.58330388e+02
324             	3.58282261e+02
325             	3.58271149e+02
326             	3.58251178e+02
327             	3.58261739e+02
328             	3.58290902e+02
329             	3.58281611e+02
330             	3.58245113e+02
331             	3.58247875e+02
332             	3.58250143e+02
333             	3.58252353e+02
334             	3.58239478e+02
335             	3.58230064e+02
336             	3.58181089e+02
337             	3.58161918e+02
338             	3.58163676e+02
339             	3.58180448e+02
340             	3.58199827e+02
341             	3.58192270e+02
342             	3.58183059e+02
343             	3.58138250e+02
344             	3.58112563e+02
345             	3.58099118e+02
346             	3.58100311e+02
347             	3.58082899e+02
348             	3.58051738e+02
349             	3.58003941e+02
350             	3.57930405e+02
351             	3.57869182e+02
352             	3.57816594e+02
353             	3.57773612e+02
354             	3.57740614e+02
355             	3.57682689e+02
356             	3.57691614e+02
357             	3.57686901e+02
358             	3.57690727e+02
359             	3.57709584e+02
360             	3.57744865e+02
361             	3.57781195e+02
362             	3.57807052e+02
363             	3.57841664e+02
364             	3.57877605e+02
365             	3.57908569e+02
366             	3.57936028e+02
367             	3.57931226e+02
368             	3.57938682e+02
369             	3.57948401e+02
370             	3.57979649e+02
371             	3.57994050e+02
372             	3.57995945e+02
373             	3.57989840e+02
374             	3.57973097e+02
375             	3.57949873e+02
376             	3.57927000e+02
377             	3.57919019e+02
378             	3.57921805e+02
379             	3.57897359e+02
380             	3.57891951e+02
381             	3.57919142e+02
382             	3.57907650e+02
383             	3.57920244e+02
384             	3.57952180e+02
385             	3.57998165e+02
386             	3.58052044e+02
387             	3.58100695e+02
388             	3.58141647e+02
389             	3.58173749e+02
390             	3.58231108e+02
391             	3.58255396e+02
392             	3.58241652e+02
393             	3.58236449e+02
394             	3.58216807e+02
395             	3.58214481e+02
396             	3.58214097e+02
397             	3.58214620e+02
398             	3.58180280e+02
399             	3.58140248e+02
400             	3.58118391e+02
401             	3.58100492e+02
402             	3.58085132e+02
403             	3.58017041e+02
404             	3.57984121e+02
405             	3.57933404e+02
406             	3.57905582e+02
407             	3.57885267e+02
408             	3.57871572e+02
409             	3.57862487e+02
410             	3.57843759e+02
411             	3.57808414e+02
412             	3.57760077e+02
413             	3.57713485e+02
414             	3.57657989e+02
415             	3.57607292e+02
416             	3.57514330e+02
417             	3.57440163e+02
418             	3.57378440e+02
419             	3.57321270e+02
420             	3.57269069e+02
421             	3.57226101e+02
422             	3.57176862e+02
423             	3.57150842e+02
424             	3.57100438e+02
425             	3.57075141e+02
426             	3.57071454e+02
427             	3.57077090e+02
428             	3.57063911e+02
429             	3.57080929e+02
430             	3.57108770e+02
431             	3.57151386e+02
432             	3.57204226e+02
433             	3.57257891e+02
434             	3.57302422e+02
435             	3.57331801e+02
436             	3.57349404e+02
437             	3.57373123e+02
438             	3.57385576e+02
439             	3.57404633e+02
440             	3.57401894e+02
441             	3.57379706e+02
442             	3.57363248e+02
443             	3.57350330e+02
444             	3.57336174e+02
445             	3.57282492e+02
446             	3.57263562e+02
447             	3.57270209e+02
448             	3.57239103e+02
449             	3.57246063e+02
450             	3.57266359e+02
451             	3.57296642e+02
452             	3.57332278e+02
453             	3.57375561e+02
454             	3.57407183e+02
455             	3.57453758e+02
456             	3.57503424e+02
457             	3.57550200e+02
458             	3.57596198e+02
459             	3.57596773e+02
460             	3.57638096e+02
461             	3.57679797e+02
462             	3.57677187e+02
463             	3.57691543e+02
464             	3.57713545e+02
465             	3.57730553e+02
466             	3.57740765e+02
467             	3.57745062e+02
468             	3.57744872e+02
469             	3.57709423e+02
470             	3.57680816e+02
471             	3.57662129e+02
472             	3.57656953e+02
473             	3.57609996e+02
474             	3.57598599e+02
475             	3.57593322e+02
476             	3.57589364e+02
477             	3.57591020e+02
478             	3.57571143e+02
479             	3.57573616e+02
480             	3.57563110e+02
481             	3.57570360e+02
482             	3.57585946e+02
483             	3.57595767e+02
484             	3.57608417e+02
485             	3.57620805e+02
486             	3.57634093e+02
487             	3.57654831e+02
488             	3.57624714e+02
489             	3.57620458e+02
490             	3.57602656e+02
491             	3.57605625e+02
492             	3.57615686e+02
493             	3.57623565e+02
494             	3.57626186e+02
495             	3.57610741e+02
496             	3.57603132e+02
497             	3.57608042e+02
498             	3.57604712e+02
499             	3.57595142e+02
500             	3.57583361e+02
501             	3.57570524e+02
502             	3.57556926e+02
503             	3.57550846e+02
504             	3.57547464e+02
505             	3.57541411e+02
506             	3.57513460e+02
507             	3.57500367e+02
508             	3.57498982e+02
509             	3.57501226e+02
510             	3.57509007e+02
511             	3.57531249e+02
512             	3.57505278e+02
513             	3.57503957e+02
514             	3.57519035e+02
515             	3.57542913e+02
516             	3.57566557e+02
517             	3.57597051e+02
518             	3.57611509e+02
519             	3.57629046e+02
520             	3.57649145e+02
521             	3.57668821e+02
522             	3.57685465e+02
523             	3.57698508e+02
524             	3.57704313e+02
525             	3.57704454e+02
526             	3.57685151e+02
527             	3.57674834e+02
528             	3.57680685e+02
529             	3.57678001e+02
530             	3.57638514e+02
531             	3.57620078e+02
532             	3.57614680e+02
533             	3.57616498e+02
534             	3.57620819e+02
535             	3.57626267e+02
536             	3.57634724e+02
537             	3.57662798e+02
538             	3.57673734e+02
539             	3.57670188e+02
540             	3.57677313e+02
541             	3.57689559e+02
542             	3.57701816e+02
543             	3.57711636e+02
544             	3.57718733e+02
545             	3.57723582e+02
546             	3.57723815e+02
547             	3.57726324e+02
548             	3.57726815e+02
549             	3.57726478e+02
550             	3.57726974e+02
551             	3.57698091e+02
552             	3.57683464e+02
553             	3.57681269e+02
554             	3.57690008e+02
555             	3.57663632e+02
556             	3.57654444e+02
557             	3.57656354e+02
558             	3.57662303e+02
559             	3.57668522e+02
560             	3.57682745e+02
561             	3.57689380e+02
562             	3.57696502e+02
563             	3.57706815e+02
564             	3.57705464e+02
565             	3.57706313e+02
566             	3.57710052e+02
567             	3.57713652e+02
568             	3.57714822e+02
569             	3.57713702e+02
570             	3.57710381e+02
571             	3.57707470e+02
572             	3.57705575e+02
573             	3.57674002e+02
574             	3.57655952e+02
575             	3.57651805e+02
576             	3.57656664e+02
577             	3.57654340e+02
578             	3.57651416e+02
579             	3.57652516e+02
580             	3.57648366e+02
581             	3.57649792e+02
582             	3.57655365e+02
583             	3.57658914e+02
584             	3.57644216e+02
585             	3.57647352e+02
586             	3.57650567e+02
587             	3.57651945e+02
588             	3.57663439e+02
589             	3.57675142e+02
590             	3.57686681e+02
591             	3.57693827e+02
592             	3.57700750e+02
593             	3.57708471e+02
594             	3.57713301e+02
595             	3.57714792e+02
596             	3.57702846e+02
597             	3.57701072e+02
598             	3.57670509e+02
599             	3.57667237e+02
600             	3.57672472e+02
601             	3.57679724e+02
602             	3.57688268e+02
603             	3.57697580e+02
604             	3.57706962e+02
605             	3.57706665e+02
606             	3.57713966e+02
607             	3.57721525e+02
608             	3.57735097e+02
609             	3.57748436e+02
610             	3.57758132e+02
611             	3.57766372e+02
612             	3.57775261e+02
613             	3.57785116e+02
614             	3.57795259e+02
615             	3.57803826e+02
616             	3.57776453e+02
617             	3.57767883e+02
618             	3.57767791e+02
619             	3.57767503e+02
620             	3.57765214e+02
621             	3.57764504e+02
