# Region        : cellZone component_4
# Cells         : 298
# Volume        : 6.22562037e-01
# Time          	volAverage(T)
1               	3.00158380e+02
2               	3.00315694e+02
3               	3.00465651e+02
4               	3.00610791e+02
5               	3.00752877e+02
6               	3.00892698e+02
7               	3.01030538e+02
8               	3.01166752e+02
9               	3.01301598e+02
10              	3.01435274e+02
11              	3.01567878e+02
12              	3.01700192e+02
13              	3.01831678e+02
14              	3.01962251e+02
15              	3.02089491e+02
16              	3.02215212e+02
17              	3.02341012e+02
18              	3.02464430e+02
19              	3.02586102e+02
20              	3.02705501e+02
21              	3.02823102e+02
22              	3.02938612e+02
23              	3.03052152e+02
24              	3.03163832e+02
25              	3.03275037e+02
26              	3.03385048e+02
27              	3.03494385e+02
28              	3.03603399e+02
29              	3.03713989e+02
30              	3.03825453e+02
31              	3.03937280e+02
32              	3.04049556e+02
33              	3.04160592e+02
34              	3.04270258e+02
35              	3.04377909e+02
36              	3.04483412e+02
37              	3.04586854e+02
38              	3.04687822e+02
39              	3.04786184e+02
40              	3.04881523e+02
41              	3.04974945e+02
42              	3.05067326e+02
43              	3.05159904e+02
44              	3.05254281e+02
45              	3.05348595e+02
46              	3.05440312e+02
47              	3.05526015e+02
48              	3.05608053e+02
49              	3.05690703e+02
50              	3.05772308e+02
51              	3.05851593e+02
52              	3.05929962e+02
53              	3.06006045e+02
54              	3.06079933e+02
55              	3.06152144e+02
56              	3.06225417e+02
57              	3.06299067e+02
58              	3.06371899e+02
59              	3.06444467e+02
60              	3.06517259e+02
61              	3.06587314e+02
62              	3.06659131e+02
63              	3.06729827e+02
64              	3.06798731e+02
65              	3.06865122e+02
66              	3.06929835e+02
67              	3.06991820e+02
68              	3.07049526e+02
69              	3.07109137e+02
70              	3.07167805e+02
71              	3.07225472e+02
72              	3.07282180e+02
73              	3.07341256e+02
74              	3.07403578e+02
75              	3.07464146e+02
76              	3.07524060e+02
77              	3.07583872e+02
78              	3.07641436e+02
79              	3.07694225e+02
80              	3.07745116e+02
81              	3.07794742e+02
82              	3.07844891e+02
83              	3.07895253e+02
84              	3.07945282e+02
85              	3.07995750e+02
86              	3.08044088e+02
87              	3.08094868e+02
88              	3.08146091e+02
89              	3.08196670e+02
90              	3.08246669e+02
91              	3.08295956e+02
92              	3.08344758e+02
93              	3.08393583e+02
94              	3.08442749e+02
95              	3.08491173e+02
96              	3.08540059e+02
97              	3.08588765e+02
98              	3.08637727e+02
99              	3.08687668e+02
100             	3.08735498e+02
101             	3.08781374e+02
102             	3.08825437e+02
103             	3.08868575e+02
104             	3.08910109e+02
105             	3.08951471e+02
106             	3.08992161e+02
107             	3.09032770e+02
108             	3.09073041e+02
109             	3.09112712e+02
110             	3.09152213e+02
111             	3.09191640e+02
112             	3.09230953e+02
113             	3.09269819e+02
114             	3.09308607e+02
115             	3.09347012e+02
116             	3.09385312e+02
117             	3.09423338e+02
118             	3.09461202e+02
119             	3.09499274e+02
120             	3.09537500e+02
121             	3.09575490e+02
122             	3.09612914e+02
123             	3.09648824e+02
124             	3.09683602e+02
125             	3.09717006e+02
126             	3.09749370e+02
127             	3.09780542e+02
128             	3.09810409e+02
129             	3.09839756e+02
130             	3.09868619e+02
131             	3.09897178e+02
132             	3.09924896e+02
133             	3.09952912e+02
134             	3.09980543e+02
135             	3.10008857e+02
136             	3.10037323e+02
137             	3.10066243e+02
138             	3.10095569e+02
139             	3.10125028e+02
140             	3.10154211e+02
141             	3.10183351e+02
142             	3.10212058e+02
143             	3.10240298e+02
144             	3.10267807e+02
145             	3.10294446e+02
146             	3.10320725e+02
147             	3.10346684e+02
148             	3.10372243e+02
149             	3.10397619e+02
150             	3.10422194e+02
151             	3.10446569e+02
152             	3.10470741e+02
153             	3.10494658e+02
154             	3.10518714e+02
155             	3.10542489e+02
156             	3.10566057e+02
157             	3.10589520e+02
158             	3.10613028e+02
159             	3.10636499e+02
160             	3.10659944e+02
161             	3.10682801e+02
162             	3.10705240e+02
163             	3.10727429e+02
164             	3.10749457e+02
165             	3.10771146e+02
166             	3.10792389e+02
167             	3.10813418e+02
168             	3.10833972e+02
169             	3.10854569e+02
170             	3.10875409e+02
171             	3.10896307e+02
172             	3.10917273e+02
173             	3.10938017e+02
174             	3.10958375e+02
175             	3.10978475e+02
176             	3.10998565e+02
177             	3.11018417e+02
178             	3.11038272e+02
179             	3.11057756e+02
180             	3.11076488e+02
181             	3.11095226e+02
182             	3.11113764e+02
183             	3.11132100e+02
184             	3.11150219e+02
185             	3.11168102e+02
186             	3.11185845e+02
187             	3.11203165e+02
188             	3.11220277e+02
189             	3.11237385e+02
190             	3.11254363e+02
191             	3.11271148e+02
192             	3.11288099e+02
193             	3.11304578e+02
194             	3.11320671e+02
195             	3.11336674e+02
196             	3.11352917e+02
197             	3.11369114e+02
198             	3.11385317e+02
199             	3.11401538e+02
200             	3.11417416e+02
201             	3.11432408e+02
202             	3.11447149e+02
203             	3.11461908e+02
204             	3.11476654e+02
205             	3.11491002e+02
206             	3.11505096e+02
207             	3.11518982e+02
208             	3.11532478e+02
209             	3.11545781e+02
210             	3.11559069e+02
211             	3.11572050e+02
212             	3.11584861e+02
213             	3.11597899e+02
214             	3.11610637e+02
215             	3.11623360e+02
216             	3.11636083e+02
217             	3.11648615e+02
218             	3.11660928e+02
219             	3.11673174e+02
220             	3.11685159e+02
221             	3.11696940e+02
222             	3.11708654e+02
223             	3.11720112e+02
224             	3.11731331e+02
225             	3.11742598e+02
226             	3.11753645e+02
227             	3.11764627e+02
228             	3.11775347e+02
229             	3.11786083e+02
230             	3.11796875e+02
231             	3.11807747e+02
232             	3.11818463e+02
233             	3.11829092e+02
234             	3.11839810e+02
235             	3.11850451e+02
236             	3.11861103e+02
237             	3.11871677e+02
238             	3.11882061e+02
239             	3.11892248e+02
240             	3.11902370e+02
241             	3.11912185e+02
242             	3.11922000e+02
243             	3.11931949e+02
244             	3.11941814e+02
245             	3.11951658e+02
246             	3.11961538e+02
247             	3.11971194e+02
248             	3.11980722e+02
249             	3.11990029e+02
250             	3.11999106e+02
251             	3.12008109e+02
252             	3.12017091e+02
253             	3.12025920e+02
254             	3.12034646e+02
255             	3.12043312e+02
256             	3.12051719e+02
257             	3.12060174e+02
258             	3.12068641e+02
259             	3.12077045e+02
260             	3.12085387e+02
261             	3.12093747e+02
262             	3.12102048e+02
263             	3.12110280e+02
264             	3.12118554e+02
265             	3.12126701e+02
266             	3.12134759e+02
267             	3.12142811e+02
268             	3.12150684e+02
269             	3.12158522e+02
270             	3.12166076e+02
271             	3.12173667e+02
272             	3.12181325e+02
273             	3.12188773e+02
274             	3.12196054e+02
275             	3.12203284e+02
276             	3.12210327e+02
277             	3.12217273e+02
278             	3.12224019e+02
279             	3.12230717e+02
280             	3.12237449e+02
281             	3.12244006e+02
282             	3.12250528e+02
283             	3.12257034e+02
284             	3.12263383e+02
285             	3.12269666e+02
286             	3.12275964e+02
287             	3.12282149e+02
288             	3.12288288e+02
289             	3.12294471e+02
290             	3.12300459e+02
291             	3.12306434e+02
292             	3.12312383e+02
293             	3.12318320e+02
294             	3.12324279e+02
295             	3.12330127e+02
296             	3.12335882e+02
297             	3.12341660e+02
298             	3.12347347e+02
299             	3.12352999e+02
300             	3.12358589e+02
301             	3.12364141e+02
302             	3.12369677e+02
303             	3.12375077e+02
304             	3.12380415e+02
305             	3.12385791e+02
306             	3.12391099e+02
307             	3.12396439e+02
308             	3.12401713e+02
309             	3.12406975e+02
310             	3.12412238e+02
311             	3.12417426e+02
312             	3.12422607e+02
313             	3.12427833e+02
314             	3.12432973e+02
315             	3.12438094e+02
316             	3.12443187e+02
317             	3.12448299e+02
318             	3.12453397e+02
319             	3.12458416e+02
320             	3.12463420e+02
321             	3.12468418e+02
322             	3.12473310e+02
323             	3.12478157e+02
324             	3.12482947e+02
325             	3.12487726e+02
326             	3.12492478e+02
327             	3.12497146e+02
328             	3.12501783e+02
329             	3.12506424e+02
330             	3.12511012e+02
331             	3.12515567e+02
332             	3.12520075e+02
333             	3.12524543e+02
334             	3.12528958e+02
335             	3.12533273e+02
336             	3.12537540e+02
337             	3.12541834e+02
338             	3.12546026e+02
339             	3.12550158e+02
340             	3.12554225e+02
341             	3.12558253e+02
342             	3.12562240e+02
343             	3.12566162e+02
344             	3.12570063e+02
345             	3.12573928e+02
346             	3.12577702e+02
347             	3.12581449e+02
348             	3.12585189e+02
349             	3.12588900e+02
350             	3.12592564e+02
351             	3.12596161e+02
352             	3.12599721e+02
353             	3.12603223e+02
354             	3.12606644e+02
355             	3.12610018e+02
356             	3.12613385e+02
357             	3.12616732e+02
358             	3.12620070e+02
359             	3.12623367e+02
360             	3.12626657e+02
361             	3.12629949e+02
362             	3.12633207e+02
363             	3.12636460e+02
364             	3.12639719e+02
365             	3.12642978e+02
366             	3.12646207e+02
367             	3.12649380e+02
368             	3.12652534e+02
369             	3.12655662e+02
370             	3.12658742e+02
371             	3.12661805e+02
372             	3.12664868e+02
373             	3.12667945e+02
374             	3.12671035e+02
375             	3.12674097e+02
376             	3.12677158e+02
377             	3.12680215e+02
378             	3.12683246e+02
379             	3.12686267e+02
380             	3.12689295e+02
381             	3.12692359e+02
382             	3.12695443e+02
383             	3.12698507e+02
384             	3.12701542e+02
385             	3.12704581e+02
386             	3.12707611e+02
387             	3.12710619e+02
388             	3.12713607e+02
389             	3.12716575e+02
390             	3.12719482e+02
391             	3.12722348e+02
392             	3.12725180e+02
393             	3.12727961e+02
394             	3.12730697e+02
395             	3.12733403e+02
396             	3.12736097e+02
397             	3.12738799e+02
398             	3.12741564e+02
399             	3.12744309e+02
400             	3.12747054e+02
401             	3.12749750e+02
402             	3.12752426e+02
403             	3.12755080e+02
404             	3.12757719e+02
405             	3.12760345e+02
406             	3.12762930e+02
407             	3.12765477e+02
408             	3.12767961e+02
409             	3.12770366e+02
410             	3.12772729e+02
411             	3.12775045e+02
412             	3.12777329e+02
413             	3.12779611e+02
414             	3.12781857e+02
415             	3.12784083e+02
416             	3.12786311e+02
417             	3.12788489e+02
418             	3.12790614e+02
419             	3.12792678e+02
420             	3.12794688e+02
421             	3.12796660e+02
422             	3.12798558e+02
423             	3.12800440e+02
424             	3.12802309e+02
425             	3.12804154e+02
426             	3.12806012e+02
427             	3.12807845e+02
428             	3.12809666e+02
429             	3.12811488e+02
430             	3.12813264e+02
431             	3.12815035e+02
432             	3.12816818e+02
433             	3.12818599e+02
434             	3.12820388e+02
435             	3.12822188e+02
436             	3.12824005e+02
437             	3.12825842e+02
438             	3.12827670e+02
439             	3.12829507e+02
440             	3.12831328e+02
441             	3.12833111e+02
442             	3.12834890e+02
443             	3.12836682e+02
444             	3.12838475e+02
445             	3.12840287e+02
446             	3.12842058e+02
447             	3.12843851e+02
448             	3.12845651e+02
449             	3.12847424e+02
450             	3.12849210e+02
451             	3.12850980e+02
452             	3.12852735e+02
453             	3.12854509e+02
454             	3.12856268e+02
455             	3.12858049e+02
456             	3.12859845e+02
457             	3.12861630e+02
458             	3.12863410e+02
459             	3.12865204e+02
460             	3.12866995e+02
461             	3.12868787e+02
462             	3.12870562e+02
463             	3.12872351e+02
464             	3.12874136e+02
465             	3.12875879e+02
466             	3.12877623e+02
467             	3.12879336e+02
468             	3.12881013e+02
469             	3.12882677e+02
470             	3.12884299e+02
471             	3.12885927e+02
472             	3.12887550e+02
473             	3.12889141e+02
474             	3.12890726e+02
475             	3.12892299e+02
476             	3.12893844e+02
477             	3.12895386e+02
478             	3.12896880e+02
479             	3.12898372e+02
480             	3.12899856e+02
481             	3.12901288e+02
482             	3.12902708e+02
483             	3.12904107e+02
484             	3.12905465e+02
485             	3.12906817e+02
486             	3.12908130e+02
487             	3.12909441e+02
488             	3.12910733e+02
489             	3.12911986e+02
490             	3.12913225e+02
491             	3.12914451e+02
492             	3.12915636e+02
493             	3.12916807e+02
494             	3.12917942e+02
495             	3.12919074e+02
496             	3.12920184e+02
497             	3.12921261e+02
498             	3.12922328e+02
499             	3.12923383e+02
500             	3.12924440e+02
501             	3.12925504e+02
502             	3.12926543e+02
503             	3.12927577e+02
504             	3.12928601e+02
505             	3.12929605e+02
506             	3.12930604e+02
507             	3.12931604e+02
508             	3.12932608e+02
509             	3.12933622e+02
510             	3.12934635e+02
511             	3.12935661e+02
512             	3.12936688e+02
513             	3.12937696e+02
514             	3.12938707e+02
515             	3.12939706e+02
516             	3.12940705e+02
517             	3.12941719e+02
518             	3.12942733e+02
519             	3.12943761e+02
520             	3.12944791e+02
521             	3.12945818e+02
522             	3.12946864e+02
523             	3.12947921e+02
524             	3.12948984e+02
525             	3.12950048e+02
526             	3.12951109e+02
527             	3.12952189e+02
528             	3.12953270e+02
529             	3.12954346e+02
530             	3.12955427e+02
531             	3.12956527e+02
532             	3.12957626e+02
533             	3.12958713e+02
534             	3.12959793e+02
535             	3.12960898e+02
536             	3.12962000e+02
537             	3.12963079e+02
538             	3.12964154e+02
539             	3.12965226e+02
540             	3.12966276e+02
541             	3.12967320e+02
542             	3.12968346e+02
543             	3.12969385e+02
544             	3.12970419e+02
545             	3.12971470e+02
546             	3.12972472e+02
547             	3.12973439e+02
548             	3.12974381e+02
549             	3.12975310e+02
550             	3.12976200e+02
551             	3.12977089e+02
552             	3.12977967e+02
553             	3.12978835e+02
554             	3.12979697e+02
555             	3.12980544e+02
556             	3.12981378e+02
557             	3.12982195e+02
558             	3.12982969e+02
559             	3.12983722e+02
560             	3.12984441e+02
561             	3.12985132e+02
562             	3.12985799e+02
563             	3.12986442e+02
564             	3.12987055e+02
565             	3.12987648e+02
566             	3.12988223e+02
567             	3.12988805e+02
568             	3.12989379e+02
569             	3.12989945e+02
570             	3.12990518e+02
571             	3.12991095e+02
572             	3.12991672e+02
573             	3.12992249e+02
574             	3.12992833e+02
575             	3.12993428e+02
576             	3.12994016e+02
577             	3.12994597e+02
578             	3.12995174e+02
579             	3.12995740e+02
580             	3.12996275e+02
581             	3.12996789e+02
582             	3.12997279e+02
583             	3.12997800e+02
584             	3.12998340e+02
585             	3.12998905e+02
586             	3.12999481e+02
587             	3.13000074e+02
588             	3.13000665e+02
589             	3.13001265e+02
590             	3.13001869e+02
591             	3.13002495e+02
592             	3.13003138e+02
593             	3.13003807e+02
594             	3.13004503e+02
595             	3.13005226e+02
596             	3.13005953e+02
597             	3.13006686e+02
598             	3.13007405e+02
599             	3.13008144e+02
600             	3.13008883e+02
601             	3.13009635e+02
602             	3.13010389e+02
603             	3.13011135e+02
604             	3.13011859e+02
605             	3.13012585e+02
606             	3.13013303e+02
607             	3.13014022e+02
608             	3.13014735e+02
609             	3.13015450e+02
610             	3.13016158e+02
611             	3.13016866e+02
612             	3.13017562e+02
613             	3.13018239e+02
614             	3.13018894e+02
615             	3.13019541e+02
616             	3.13020166e+02
617             	3.13020774e+02
618             	3.13021369e+02
619             	3.13021955e+02
620             	3.13022525e+02
621             	3.13023085e+02
