# Region        : cellZone component_2
# Cells         : 107
# Volume        : 2.25168887e-01
# Time          	volAverage(T)
1               	3.00308759e+02
2               	3.00614075e+02
3               	3.00891949e+02
4               	3.01152225e+02
5               	3.01405145e+02
6               	3.01652958e+02
7               	3.01896904e+02
8               	3.02137154e+02
9               	3.02376381e+02
10              	3.02611891e+02
11              	3.02843330e+02
12              	3.03069420e+02
13              	3.03288805e+02
14              	3.03501406e+02
15              	3.03709903e+02
16              	3.03912451e+02
17              	3.04114181e+02
18              	3.04313456e+02
19              	3.04512140e+02
20              	3.04709171e+02
21              	3.04906407e+02
22              	3.05098226e+02
23              	3.05288490e+02
24              	3.05477852e+02
25              	3.05665944e+02
26              	3.05851265e+02
27              	3.06032511e+02
28              	3.06208136e+02
29              	3.06376821e+02
30              	3.06538378e+02
31              	3.06691791e+02
32              	3.06837873e+02
33              	3.06980755e+02
34              	3.07121362e+02
35              	3.07259788e+02
36              	3.07399282e+02
37              	3.07535705e+02
38              	3.07669589e+02
39              	3.07802012e+02
40              	3.07933173e+02
41              	3.08060404e+02
42              	3.08183839e+02
43              	3.08303640e+02
44              	3.08423250e+02
45              	3.08545240e+02
46              	3.08666318e+02
47              	3.08779128e+02
48              	3.08887858e+02
49              	3.08993156e+02
50              	3.09098376e+02
51              	3.09199726e+02
52              	3.09293080e+02
53              	3.09379267e+02
54              	3.09459598e+02
55              	3.09532294e+02
56              	3.09601628e+02
57              	3.09666914e+02
58              	3.09734105e+02
59              	3.09798016e+02
60              	3.09864543e+02
61              	3.09927849e+02
62              	3.09993232e+02
63              	3.10057922e+02
64              	3.10120829e+02
65              	3.10183207e+02
66              	3.10240979e+02
67              	3.10303440e+02
68              	3.10366922e+02
69              	3.10432317e+02
70              	3.10497856e+02
71              	3.10562768e+02
72              	3.10628171e+02
73              	3.10693568e+02
74              	3.10752868e+02
75              	3.10806256e+02
76              	3.10855694e+02
77              	3.10900375e+02
78              	3.10941762e+02
79              	3.10979268e+02
80              	3.11013551e+02
81              	3.11044901e+02
82              	3.11076594e+02
83              	3.11109695e+02
84              	3.11141050e+02
85              	3.11174008e+02
86              	3.11206711e+02
87              	3.11238623e+02
88              	3.11268667e+02
89              	3.11298826e+02
90              	3.11328855e+02
91              	3.11356329e+02
92              	3.11383686e+02
93              	3.11411483e+02
94              	3.11439137e+02
95              	3.11466956e+02
96              	3.11495521e+02
97              	3.11523402e+02
98              	3.11552706e+02
99              	3.11583092e+02
100             	3.11614870e+02
101             	3.11647267e+02
102             	3.11679096e+02
103             	3.11709305e+02
104             	3.11738613e+02
105             	3.11766720e+02
106             	3.11793562e+02
107             	3.11818254e+02
108             	3.11841534e+02
109             	3.11862902e+02
110             	3.11882709e+02
111             	3.11900249e+02
112             	3.11916383e+02
113             	3.11931226e+02
114             	3.11944842e+02
115             	3.11957162e+02
116             	3.11968162e+02
117             	3.11980393e+02
118             	3.11993481e+02
119             	3.12006908e+02
120             	3.12021076e+02
121             	3.12034273e+02
122             	3.12047999e+02
123             	3.12060077e+02
124             	3.12073277e+02
125             	3.12083367e+02
126             	3.12092687e+02
127             	3.12101179e+02
128             	3.12108141e+02
129             	3.12114116e+02
130             	3.12120358e+02
131             	3.12127183e+02
132             	3.12134529e+02
133             	3.12142612e+02
134             	3.12151821e+02
135             	3.12163481e+02
136             	3.12176748e+02
137             	3.12189019e+02
138             	3.12202799e+02
139             	3.12217229e+02
140             	3.12231610e+02
141             	3.12244322e+02
142             	3.12255300e+02
143             	3.12265448e+02
144             	3.12273466e+02
145             	3.12280194e+02
146             	3.12286175e+02
147             	3.12291491e+02
148             	3.12296596e+02
149             	3.12302494e+02
150             	3.12310094e+02
151             	3.12318314e+02
152             	3.12328446e+02
153             	3.12337598e+02
154             	3.12350190e+02
155             	3.12361608e+02
156             	3.12373337e+02
157             	3.12382843e+02
158             	3.12390856e+02
159             	3.12397548e+02
160             	3.12402991e+02
161             	3.12407144e+02
162             	3.12410754e+02
163             	3.12415075e+02
164             	3.12418713e+02
165             	3.12425392e+02
166             	3.12434688e+02
167             	3.12445044e+02
168             	3.12455815e+02
169             	3.12465483e+02
170             	3.12475309e+02
171             	3.12483830e+02
172             	3.12490808e+02
173             	3.12496559e+02
174             	3.12501055e+02
175             	3.12504996e+02
176             	3.12509268e+02
177             	3.12511132e+02
178             	3.12516461e+02
179             	3.12523475e+02
180             	3.12529443e+02
181             	3.12537223e+02
182             	3.12546241e+02
183             	3.12555309e+02
184             	3.12563560e+02
185             	3.12571276e+02
186             	3.12577835e+02
187             	3.12583716e+02
188             	3.12589359e+02
189             	3.12592057e+02
190             	3.12594132e+02
191             	3.12596710e+02
192             	3.12600564e+02
193             	3.12605874e+02
194             	3.12611053e+02
195             	3.12617248e+02
196             	3.12624369e+02
197             	3.12631522e+02
198             	3.12639327e+02
199             	3.12646935e+02
200             	3.12652433e+02
201             	3.12657627e+02
202             	3.12662376e+02
203             	3.12665910e+02
204             	3.12668871e+02
205             	3.12671556e+02
206             	3.12674320e+02
207             	3.12677862e+02
208             	3.12681989e+02
209             	3.12686135e+02
210             	3.12691136e+02
211             	3.12696834e+02
212             	3.12702999e+02
213             	3.12709448e+02
214             	3.12715941e+02
215             	3.12720914e+02
216             	3.12726039e+02
217             	3.12731260e+02
218             	3.12735726e+02
219             	3.12739997e+02
220             	3.12743862e+02
221             	3.12747389e+02
222             	3.12751012e+02
223             	3.12754980e+02
224             	3.12758728e+02
225             	3.12762316e+02
226             	3.12766668e+02
227             	3.12771813e+02
228             	3.12777527e+02
229             	3.12782521e+02
230             	3.12787278e+02
231             	3.12791933e+02
232             	3.12796269e+02
233             	3.12799942e+02
234             	3.12802866e+02
235             	3.12805583e+02
236             	3.12808399e+02
237             	3.12811653e+02
238             	3.12813951e+02
239             	3.12816644e+02
240             	3.12820037e+02
241             	3.12824320e+02
242             	3.12828128e+02
243             	3.12831518e+02
244             	3.12835037e+02
245             	3.12838430e+02
246             	3.12841287e+02
247             	3.12843393e+02
248             	3.12845451e+02
249             	3.12847581e+02
250             	3.12850010e+02
251             	3.12852211e+02
252             	3.12854537e+02
253             	3.12857576e+02
254             	3.12861238e+02
255             	3.12864672e+02
256             	3.12867613e+02
257             	3.12870658e+02
258             	3.12873785e+02
259             	3.12876330e+02
260             	3.12878164e+02
261             	3.12879405e+02
262             	3.12880724e+02
263             	3.12882561e+02
264             	3.12885275e+02
265             	3.12886650e+02
266             	3.12888569e+02
267             	3.12891820e+02
268             	3.12893948e+02
269             	3.12896820e+02
270             	3.12899961e+02
271             	3.12902695e+02
272             	3.12904838e+02
273             	3.12906295e+02
274             	3.12907306e+02
275             	3.12908224e+02
276             	3.12909667e+02
277             	3.12911666e+02
278             	3.12913322e+02
279             	3.12914802e+02
280             	3.12916817e+02
281             	3.12919482e+02
282             	3.12921928e+02
283             	3.12923789e+02
284             	3.12925843e+02
285             	3.12927866e+02
286             	3.12929257e+02
287             	3.12930106e+02
288             	3.12930912e+02
289             	3.12931590e+02
290             	3.12933005e+02
291             	3.12934624e+02
292             	3.12935043e+02
293             	3.12935978e+02
294             	3.12937994e+02
295             	3.12940535e+02
296             	3.12942501e+02
297             	3.12944808e+02
298             	3.12947192e+02
299             	3.12948722e+02
300             	3.12949340e+02
301             	3.12949253e+02
302             	3.12948911e+02
303             	3.12949482e+02
304             	3.12950574e+02
305             	3.12950228e+02
306             	3.12950312e+02
307             	3.12951499e+02
308             	3.12954068e+02
309             	3.12956076e+02
310             	3.12958005e+02
311             	3.12959941e+02
312             	3.12961292e+02
313             	3.12961848e+02
314             	3.12961918e+02
315             	3.12961966e+02
316             	3.12962358e+02
317             	3.12963412e+02
318             	3.12963301e+02
319             	3.12963672e+02
320             	3.12965066e+02
321             	3.12966749e+02
322             	3.12968271e+02
323             	3.12969975e+02
324             	3.12971658e+02
325             	3.12972993e+02
326             	3.12973742e+02
327             	3.12973938e+02
328             	3.12974113e+02
329             	3.12974369e+02
330             	3.12975089e+02
331             	3.12976267e+02
332             	3.12976378e+02
333             	3.12976547e+02
334             	3.12977761e+02
335             	3.12979554e+02
336             	3.12981484e+02
337             	3.12983531e+02
338             	3.12984339e+02
339             	3.12984898e+02
340             	3.12985345e+02
341             	3.12985370e+02
342             	3.12984969e+02
343             	3.12984266e+02
344             	3.12984252e+02
345             	3.12984535e+02
346             	3.12984628e+02
347             	3.12984746e+02
348             	3.12985463e+02
349             	3.12986881e+02
350             	3.12988352e+02
351             	3.12989953e+02
352             	3.12991117e+02
353             	3.12992369e+02
354             	3.12993024e+02
355             	3.12993624e+02
356             	3.12993835e+02
357             	3.12993934e+02
358             	3.12993597e+02
359             	3.12993729e+02
360             	3.12993878e+02
361             	3.12994623e+02
362             	3.12994699e+02
363             	3.12995422e+02
364             	3.12996685e+02
365             	3.12998115e+02
366             	3.12999535e+02
367             	3.13000874e+02
368             	3.13001942e+02
369             	3.13002448e+02
370             	3.13003122e+02
371             	3.13003770e+02
372             	3.13004106e+02
373             	3.13004012e+02
374             	3.13004035e+02
375             	3.13004205e+02
376             	3.13004334e+02
377             	3.13004825e+02
378             	3.13005490e+02
379             	3.13006719e+02
380             	3.13008224e+02
381             	3.13009965e+02
382             	3.13011056e+02
383             	3.13012311e+02
384             	3.13013195e+02
385             	3.13014118e+02
386             	3.13014733e+02
387             	3.13014943e+02
388             	3.13014869e+02
389             	3.13014741e+02
390             	3.13014576e+02
391             	3.13014743e+02
392             	3.13014996e+02
393             	3.13015675e+02
394             	3.13016246e+02
395             	3.13016783e+02
396             	3.13017531e+02
397             	3.13018549e+02
398             	3.13019407e+02
399             	3.13019898e+02
400             	3.13020402e+02
401             	3.13020754e+02
402             	3.13020711e+02
403             	3.13020286e+02
404             	3.13019807e+02
405             	3.13019425e+02
406             	3.13019269e+02
407             	3.13019333e+02
408             	3.13019777e+02
409             	3.13020042e+02
410             	3.13020552e+02
411             	3.13021326e+02
412             	3.13022075e+02
413             	3.13022627e+02
414             	3.13023254e+02
415             	3.13023957e+02
416             	3.13024427e+02
417             	3.13024438e+02
418             	3.13024292e+02
419             	3.13024177e+02
420             	3.13024299e+02
421             	3.13024541e+02
422             	3.13024541e+02
423             	3.13024547e+02
424             	3.13024934e+02
425             	3.13025520e+02
426             	3.13026100e+02
427             	3.13026697e+02
428             	3.13027310e+02
429             	3.13027877e+02
430             	3.13028404e+02
431             	3.13029057e+02
432             	3.13029466e+02
433             	3.13029709e+02
434             	3.13029894e+02
435             	3.13030043e+02
436             	3.13030165e+02
437             	3.13030390e+02
438             	3.13030651e+02
439             	3.13030881e+02
440             	3.13031083e+02
441             	3.13031287e+02
442             	3.13031480e+02
443             	3.13031614e+02
444             	3.13031719e+02
445             	3.13031946e+02
446             	3.13032312e+02
447             	3.13032657e+02
448             	3.13032915e+02
449             	3.13033181e+02
450             	3.13033443e+02
451             	3.13033697e+02
452             	3.13033914e+02
453             	3.13034074e+02
454             	3.13034174e+02
455             	3.13034304e+02
456             	3.13034358e+02
457             	3.13034416e+02
458             	3.13034484e+02
459             	3.13034560e+02
460             	3.13034595e+02
461             	3.13034609e+02
462             	3.13034632e+02
463             	3.13034668e+02
464             	3.13034708e+02
465             	3.13034753e+02
466             	3.13034807e+02
467             	3.13034863e+02
468             	3.13034983e+02
469             	3.13035072e+02
470             	3.13035131e+02
471             	3.13035189e+02
472             	3.13035222e+02
473             	3.13035249e+02
474             	3.13035280e+02
475             	3.13035338e+02
476             	3.13035382e+02
477             	3.13035349e+02
478             	3.13035243e+02
479             	3.13035212e+02
480             	3.13035197e+02
481             	3.13035193e+02
482             	3.13035174e+02
483             	3.13035171e+02
484             	3.13035232e+02
485             	3.13035391e+02
486             	3.13035563e+02
487             	3.13035706e+02
488             	3.13035873e+02
489             	3.13036064e+02
490             	3.13036270e+02
491             	3.13036447e+02
492             	3.13036640e+02
493             	3.13036723e+02
494             	3.13036842e+02
495             	3.13036927e+02
496             	3.13036965e+02
497             	3.13036943e+02
498             	3.13036962e+02
499             	3.13037025e+02
500             	3.13037135e+02
501             	3.13037249e+02
502             	3.13037392e+02
503             	3.13037592e+02
504             	3.13037798e+02
505             	3.13037964e+02
506             	3.13038086e+02
507             	3.13038160e+02
508             	3.13038247e+02
509             	3.13038253e+02
510             	3.13038157e+02
511             	3.13038028e+02
512             	3.13037944e+02
513             	3.13037994e+02
514             	3.13037924e+02
515             	3.13037891e+02
516             	3.13037953e+02
517             	3.13038081e+02
518             	3.13038200e+02
519             	3.13038238e+02
520             	3.13038195e+02
521             	3.13038233e+02
522             	3.13038219e+02
523             	3.13038079e+02
524             	3.13038038e+02
525             	3.13037986e+02
526             	3.13038043e+02
527             	3.13038016e+02
528             	3.13038039e+02
529             	3.13038200e+02
530             	3.13038419e+02
531             	3.13038485e+02
532             	3.13038613e+02
533             	3.13038689e+02
534             	3.13038804e+02
535             	3.13038878e+02
536             	3.13038881e+02
537             	3.13038790e+02
538             	3.13038757e+02
539             	3.13038704e+02
540             	3.13038801e+02
541             	3.13038773e+02
542             	3.13038749e+02
543             	3.13038797e+02
544             	3.13038923e+02
545             	3.13038966e+02
546             	3.13039030e+02
547             	3.13039109e+02
548             	3.13039189e+02
549             	3.13039211e+02
550             	3.13039176e+02
551             	3.13039102e+02
552             	3.13038995e+02
553             	3.13038870e+02
554             	3.13038763e+02
555             	3.13038671e+02
556             	3.13038668e+02
557             	3.13038639e+02
558             	3.13038656e+02
559             	3.13038763e+02
560             	3.13038926e+02
561             	3.13039093e+02
562             	3.13039196e+02
563             	3.13039184e+02
564             	3.13039232e+02
565             	3.13039289e+02
566             	3.13039310e+02
567             	3.13039319e+02
568             	3.13039280e+02
569             	3.13039202e+02
570             	3.13039129e+02
571             	3.13039074e+02
572             	3.13039011e+02
573             	3.13038986e+02
574             	3.13039013e+02
575             	3.13039062e+02
576             	3.13039125e+02
577             	3.13039204e+02
578             	3.13039273e+02
579             	3.13039335e+02
580             	3.13039382e+02
581             	3.13039394e+02
582             	3.13039384e+02
583             	3.13039363e+02
584             	3.13039374e+02
585             	3.13039361e+02
586             	3.13039379e+02
587             	3.13039387e+02
588             	3.13039394e+02
589             	3.13039431e+02
590             	3.13039474e+02
591             	3.13039534e+02
592             	3.13039468e+02
593             	3.13039450e+02
594             	3.13039444e+02
595             	3.13039429e+02
596             	3.13039401e+02
597             	3.13039361e+02
598             	3.13039357e+02
599             	3.13039317e+02
600             	3.13039273e+02
601             	3.13039243e+02
602             	3.13039288e+02
603             	3.13039294e+02
604             	3.13039332e+02
605             	3.13039396e+02
606             	3.13039466e+02
607             	3.13039544e+02
608             	3.13039612e+02
609             	3.13039672e+02
610             	3.13039709e+02
611             	3.13039696e+02
612             	3.13039698e+02
613             	3.13039691e+02
614             	3.13039657e+02
615             	3.13039628e+02
616             	3.13039612e+02
617             	3.13039609e+02
618             	3.13039644e+02
619             	3.13039690e+02
620             	3.13039742e+02
621             	3.13039814e+02
