# Region        : cellZone component_1
# Cells         : 207
# Volume        : 3.90158588e-01
# Time          	volAverage(T)
1               	3.01624573e+02
2               	3.03238797e+02
3               	3.04755363e+02
4               	3.06217892e+02
5               	3.07658111e+02
6               	3.09086421e+02
7               	3.10502954e+02
8               	3.11913387e+02
9               	3.13323416e+02
10              	3.14722535e+02
11              	3.16107460e+02
12              	3.17478948e+02
13              	3.18834943e+02
14              	3.20173013e+02
15              	3.21495695e+02
16              	3.22805515e+02
17              	3.24094466e+02
18              	3.25375261e+02
19              	3.26643552e+02
20              	3.27901129e+02
21              	3.29125626e+02
22              	3.30341836e+02
23              	3.31547026e+02
24              	3.32736484e+02
25              	3.33940253e+02
26              	3.35117371e+02
27              	3.36298269e+02
28              	3.37468167e+02
29              	3.38623568e+02
30              	3.39768933e+02
31              	3.40907942e+02
32              	3.42022948e+02
33              	3.43124974e+02
34              	3.44169327e+02
35              	3.45114085e+02
36              	3.46024211e+02
37              	3.46910598e+02
38              	3.47789113e+02
39              	3.48655061e+02
40              	3.49501521e+02
41              	3.50347127e+02
42              	3.51189445e+02
43              	3.52040285e+02
44              	3.52916951e+02
45              	3.53820687e+02
46              	3.54746144e+02
47              	3.55682353e+02
48              	3.56607303e+02
49              	3.57512326e+02
50              	3.58409957e+02
51              	3.59301050e+02
52              	3.60188065e+02
53              	3.61076946e+02
54              	3.61914113e+02
55              	3.62775939e+02
56              	3.63596212e+02
57              	3.64393226e+02
58              	3.65101895e+02
59              	3.65747398e+02
60              	3.66362650e+02
61              	3.67019841e+02
62              	3.67741340e+02
63              	3.68476230e+02
64              	3.69210089e+02
65              	3.69951692e+02
66              	3.70693501e+02
67              	3.71452414e+02
68              	3.72211865e+02
69              	3.72966007e+02
70              	3.73704184e+02
71              	3.74430724e+02
72              	3.75139622e+02
73              	3.75865801e+02
74              	3.76582688e+02
75              	3.77294583e+02
76              	3.77984310e+02
77              	3.78653065e+02
78              	3.79296489e+02
79              	3.79920523e+02
80              	3.80511962e+02
81              	3.81075896e+02
82              	3.81655240e+02
83              	3.82260198e+02
84              	3.82871575e+02
85              	3.83467982e+02
86              	3.84058004e+02
87              	3.84639249e+02
88              	3.85271469e+02
89              	3.85845043e+02
90              	3.86408629e+02
91              	3.86963183e+02
92              	3.87518151e+02
93              	3.88066734e+02
94              	3.88601927e+02
95              	3.89138556e+02
96              	3.89670818e+02
97              	3.90194099e+02
98              	3.90718258e+02
99              	3.91236839e+02
100             	3.91757804e+02
101             	3.92272694e+02
102             	3.92783597e+02
103             	3.93292577e+02
104             	3.93793940e+02
105             	3.94290777e+02
106             	3.94780523e+02
107             	3.95267237e+02
108             	3.95751422e+02
109             	3.96220353e+02
110             	3.96698649e+02
111             	3.97177367e+02
112             	3.97659567e+02
113             	3.98143191e+02
114             	3.98627294e+02
115             	3.99111228e+02
116             	3.99589878e+02
117             	4.00052025e+02
118             	4.00515634e+02
119             	4.00981283e+02
120             	4.01441459e+02
121             	4.01895184e+02
122             	4.02341335e+02
123             	4.02779679e+02
124             	4.03207644e+02
125             	4.03623637e+02
126             	4.04036122e+02
127             	4.04442053e+02
128             	4.04842473e+02
129             	4.05238817e+02
130             	4.05631468e+02
131             	4.06021032e+02
132             	4.06407810e+02
133             	4.06788724e+02
134             	4.07169413e+02
135             	4.07546260e+02
136             	4.07920177e+02
137             	4.08289688e+02
138             	4.08655254e+02
139             	4.09016774e+02
140             	4.09373229e+02
141             	4.09727324e+02
142             	4.10078591e+02
143             	4.10427214e+02
144             	4.10770625e+02
145             	4.11114972e+02
146             	4.11458125e+02
147             	4.11866735e+02
148             	4.12304290e+02
149             	4.12742720e+02
150             	4.13159955e+02
151             	4.13555632e+02
152             	4.13923436e+02
153             	4.14264563e+02
154             	4.14582903e+02
155             	4.14881084e+02
156             	4.15181315e+02
157             	4.15483267e+02
158             	4.15781917e+02
159             	4.16077850e+02
160             	4.16370317e+02
161             	4.16659816e+02
162             	4.16946570e+02
163             	4.17230615e+02
164             	4.17513019e+02
165             	4.17793029e+02
166             	4.18071918e+02
167             	4.18347463e+02
168             	4.18621424e+02
169             	4.18897040e+02
170             	4.19172319e+02
171             	4.19446759e+02
172             	4.19719684e+02
173             	4.19991608e+02
174             	4.20263271e+02
175             	4.20533953e+02
176             	4.20802802e+02
177             	4.21069773e+02
178             	4.21335014e+02
179             	4.21597963e+02
180             	4.21858605e+02
181             	4.22114977e+02
182             	4.22369068e+02
183             	4.22621491e+02
184             	4.22871648e+02
185             	4.23119942e+02
186             	4.23365881e+02
187             	4.23609481e+02
188             	4.23850380e+02
189             	4.24089076e+02
190             	4.24325658e+02
191             	4.24560261e+02
192             	4.24792006e+02
193             	4.25022465e+02
194             	4.25251540e+02
195             	4.25480626e+02
196             	4.25709038e+02
197             	4.25936151e+02
198             	4.26162488e+02
199             	4.26387899e+02
200             	4.26612420e+02
201             	4.26835596e+02
202             	4.27056717e+02
203             	4.27276779e+02
204             	4.27495510e+02
205             	4.27712824e+02
206             	4.27928338e+02
207             	4.28141705e+02
208             	4.28352891e+02
209             	4.28562743e+02
210             	4.28768854e+02
211             	4.28973303e+02
212             	4.29176126e+02
213             	4.29377253e+02
214             	4.29576069e+02
215             	4.29772343e+02
216             	4.29966364e+02
217             	4.30156969e+02
218             	4.30345396e+02
219             	4.30534325e+02
220             	4.30723046e+02
221             	4.30910491e+02
222             	4.31096458e+02
223             	4.31281872e+02
224             	4.31465887e+02
225             	4.31649655e+02
226             	4.31832354e+02
227             	4.32013084e+02
228             	4.32190961e+02
229             	4.32366910e+02
230             	4.32540493e+02
231             	4.32711712e+02
232             	4.32881190e+02
233             	4.33049211e+02
234             	4.33215641e+02
235             	4.33380683e+02
236             	4.33544265e+02
237             	4.33705627e+02
238             	4.33865622e+02
239             	4.34025318e+02
240             	4.34184162e+02
241             	4.34314570e+02
242             	4.34431536e+02
243             	4.34537715e+02
244             	4.34631947e+02
245             	4.34708543e+02
246             	4.34773324e+02
247             	4.34842678e+02
248             	4.34915035e+02
249             	4.34969047e+02
250             	4.35007554e+02
251             	4.35033164e+02
252             	4.35050963e+02
253             	4.35062941e+02
254             	4.35079289e+02
255             	4.35099332e+02
256             	4.35121546e+02
257             	4.35144955e+02
258             	4.35169034e+02
259             	4.35193659e+02
260             	4.35218700e+02
261             	4.35243965e+02
262             	4.35269345e+02
263             	4.35294624e+02
264             	4.35320185e+02
265             	4.35345942e+02
266             	4.35371821e+02
267             	4.35398040e+02
268             	4.35410702e+02
269             	4.35424862e+02
270             	4.35431258e+02
271             	4.35439616e+02
272             	4.35442127e+02
273             	4.35446467e+02
274             	4.35452563e+02
275             	4.35459828e+02
276             	4.35467934e+02
277             	4.35472358e+02
278             	4.35477724e+02
279             	4.35484287e+02
280             	4.35491615e+02
281             	4.35499136e+02
282             	4.35506893e+02
283             	4.35514780e+02
284             	4.35522681e+02
285             	4.35530573e+02
286             	4.35538456e+02
287             	4.35546373e+02
288             	4.35554249e+02
289             	4.35562093e+02
290             	4.35569939e+02
291             	4.35577712e+02
292             	4.35585375e+02
293             	4.35592968e+02
294             	4.35600502e+02
295             	4.35608022e+02
296             	4.35615462e+02
297             	4.35623114e+02
298             	4.35630886e+02
299             	4.35638790e+02
300             	4.35646857e+02
301             	4.35655098e+02
302             	4.35663520e+02
303             	4.35672107e+02
304             	4.35680814e+02
305             	4.35689621e+02
306             	4.35698504e+02
307             	4.35707378e+02
308             	4.35716255e+02
309             	4.35724976e+02
310             	4.35733657e+02
311             	4.35742229e+02
312             	4.35750662e+02
313             	4.35758979e+02
314             	4.35767161e+02
315             	4.35775264e+02
316             	4.35783068e+02
317             	4.35790664e+02
318             	4.35798061e+02
319             	4.35805247e+02
320             	4.35812139e+02
321             	4.35818986e+02
322             	4.35811671e+02
323             	4.35796517e+02
324             	4.35784011e+02
325             	4.35774087e+02
326             	4.35765740e+02
327             	4.35758439e+02
328             	4.35751766e+02
329             	4.35745511e+02
330             	4.35739554e+02
331             	4.35733736e+02
332             	4.35728027e+02
333             	4.35722348e+02
334             	4.35716666e+02
335             	4.35711101e+02
336             	4.35705709e+02
337             	4.35700465e+02
338             	4.35695364e+02
339             	4.35690405e+02
340             	4.35685606e+02
341             	4.35680936e+02
342             	4.35676350e+02
343             	4.35671886e+02
344             	4.35667596e+02
345             	4.35663522e+02
346             	4.35659614e+02
347             	4.35655889e+02
348             	4.35652327e+02
349             	4.35648869e+02
350             	4.35645453e+02
351             	4.35642051e+02
352             	4.35638674e+02
353             	4.35635338e+02
354             	4.35632070e+02
355             	4.35628887e+02
356             	4.35625773e+02
357             	4.35622756e+02
358             	4.35619815e+02
359             	4.35616930e+02
360             	4.35614120e+02
361             	4.35611353e+02
362             	4.35608616e+02
363             	4.35605916e+02
364             	4.35603263e+02
365             	4.35600677e+02
366             	4.35598152e+02
367             	4.35595700e+02
368             	4.35593325e+02
369             	4.35591040e+02
370             	4.35588833e+02
371             	4.35586704e+02
372             	4.35584650e+02
373             	4.35582671e+02
374             	4.35580723e+02
375             	4.35578788e+02
376             	4.35576854e+02
377             	4.35574933e+02
378             	4.35573024e+02
379             	4.35571138e+02
380             	4.35569270e+02
381             	4.35567423e+02
382             	4.35565600e+02
383             	4.35563803e+02
384             	4.35562036e+02
385             	4.35560288e+02
386             	4.35558577e+02
387             	4.35556930e+02
388             	4.35555263e+02
389             	4.35553593e+02
390             	4.35551913e+02
391             	4.35550196e+02
392             	4.35548438e+02
393             	4.35546626e+02
394             	4.35544751e+02
395             	4.35542830e+02
396             	4.35540835e+02
397             	4.35538976e+02
398             	4.35537220e+02
399             	4.35535567e+02
400             	4.35534025e+02
401             	4.35532589e+02
402             	4.35531244e+02
403             	4.35529957e+02
404             	4.35528685e+02
405             	4.35527429e+02
406             	4.35526178e+02
407             	4.35524940e+02
408             	4.35523716e+02
409             	4.35522514e+02
410             	4.35521320e+02
411             	4.35520122e+02
412             	4.35518907e+02
413             	4.35517666e+02
414             	4.35516405e+02
415             	4.35515117e+02
416             	4.35513815e+02
417             	4.35512523e+02
418             	4.35511244e+02
419             	4.35509987e+02
420             	4.35508754e+02
421             	4.35507543e+02
422             	4.35506341e+02
423             	4.35505162e+02
424             	4.35503988e+02
425             	4.35502794e+02
426             	4.35501586e+02
427             	4.35500375e+02
428             	4.35499175e+02
429             	4.35497969e+02
430             	4.35496762e+02
431             	4.35495573e+02
432             	4.35494395e+02
433             	4.35493192e+02
434             	4.35491944e+02
435             	4.35490672e+02
436             	4.35489387e+02
437             	4.35488092e+02
438             	4.35486800e+02
439             	4.35485504e+02
440             	4.35484249e+02
441             	4.35482988e+02
442             	4.35481860e+02
443             	4.35480828e+02
444             	4.35479889e+02
445             	4.35479034e+02
446             	4.35478256e+02
447             	4.35477547e+02
448             	4.35476891e+02
449             	4.35476269e+02
450             	4.35475668e+02
451             	4.35475074e+02
452             	4.35474512e+02
453             	4.35473933e+02
454             	4.35473354e+02
455             	4.35472763e+02
456             	4.35472005e+02
457             	4.35471149e+02
458             	4.35470206e+02
459             	4.35469192e+02
460             	4.35468121e+02
461             	4.35467017e+02
462             	4.35465923e+02
463             	4.35464873e+02
464             	4.35463856e+02
465             	4.35462897e+02
466             	4.35461996e+02
467             	4.35461243e+02
468             	4.35460577e+02
469             	4.35459977e+02
470             	4.35459458e+02
471             	4.35459003e+02
472             	4.35458587e+02
473             	4.35458209e+02
474             	4.35457843e+02
475             	4.35457463e+02
476             	4.35457086e+02
477             	4.35456723e+02
478             	4.35456357e+02
479             	4.35455993e+02
480             	4.35455636e+02
481             	4.35455290e+02
482             	4.35454972e+02
483             	4.35454671e+02
484             	4.35454384e+02
485             	4.35454080e+02
486             	4.35453736e+02
487             	4.35453361e+02
488             	4.35452954e+02
489             	4.35452512e+02
490             	4.35452060e+02
491             	4.35451608e+02
492             	4.35451154e+02
493             	4.35450703e+02
494             	4.35450252e+02
495             	4.35449808e+02
496             	4.35449374e+02
497             	4.35448940e+02
498             	4.35448516e+02
499             	4.35448119e+02
500             	4.35447731e+02
501             	4.35447363e+02
502             	4.35447006e+02
503             	4.35446648e+02
504             	4.35446290e+02
505             	4.35445937e+02
506             	4.35445560e+02
507             	4.35445163e+02
508             	4.35444742e+02
509             	4.35444317e+02
510             	4.35443841e+02
511             	4.35443333e+02
512             	4.35442807e+02
513             	4.35442254e+02
514             	4.35441670e+02
515             	4.35441086e+02
516             	4.35440485e+02
517             	4.35439852e+02
518             	4.35439173e+02
519             	4.35438477e+02
520             	4.35437744e+02
521             	4.35437079e+02
522             	4.35436456e+02
523             	4.35435881e+02
524             	4.35435357e+02
525             	4.35434876e+02
526             	4.35434470e+02
527             	4.35434122e+02
528             	4.35433837e+02
529             	4.35433591e+02
530             	4.35433371e+02
531             	4.35433196e+02
532             	4.35433048e+02
533             	4.35432926e+02
534             	4.35432856e+02
535             	4.35432850e+02
536             	4.35432913e+02
537             	4.35433020e+02
538             	4.35433155e+02
539             	4.35433306e+02
540             	4.35433364e+02
541             	4.35433359e+02
542             	4.35433332e+02
543             	4.35433105e+02
544             	4.35432772e+02
545             	4.35432384e+02
546             	4.35431963e+02
547             	4.35431513e+02
548             	4.35431041e+02
549             	4.35430561e+02
550             	4.35430109e+02
551             	4.35429666e+02
552             	4.35429210e+02
553             	4.35428727e+02
554             	4.35428335e+02
555             	4.35428005e+02
556             	4.35427748e+02
557             	4.35427579e+02
558             	4.35427502e+02
559             	4.35427521e+02
560             	4.35427621e+02
561             	4.35427757e+02
562             	4.35427889e+02
563             	4.35428024e+02
564             	4.35428147e+02
565             	4.35428225e+02
566             	4.35428248e+02
567             	4.35428225e+02
568             	4.35428186e+02
569             	4.35428157e+02
570             	4.35428124e+02
571             	4.35428090e+02
572             	4.35428086e+02
573             	4.35428017e+02
574             	4.35427892e+02
575             	4.35427708e+02
576             	4.35427463e+02
577             	4.35427161e+02
578             	4.35426814e+02
579             	4.35426465e+02
580             	4.35426130e+02
581             	4.35425806e+02
582             	4.35425486e+02
583             	4.35425172e+02
584             	4.35424852e+02
585             	4.35424503e+02
586             	4.35424129e+02
587             	4.35423743e+02
588             	4.35423323e+02
589             	4.35422892e+02
590             	4.35422468e+02
591             	4.35422009e+02
592             	4.35421724e+02
593             	4.35421548e+02
594             	4.35421458e+02
595             	4.35421448e+02
596             	4.35421501e+02
597             	4.35421601e+02
598             	4.35421741e+02
599             	4.35421905e+02
600             	4.35422075e+02
601             	4.35422212e+02
602             	4.35422340e+02
603             	4.35422453e+02
604             	4.35422520e+02
605             	4.35422545e+02
606             	4.35422536e+02
607             	4.35422495e+02
608             	4.35422423e+02
609             	4.35422304e+02
610             	4.35422146e+02
611             	4.35421956e+02
612             	4.35421717e+02
613             	4.35421409e+02
614             	4.35421070e+02
615             	4.35420692e+02
616             	4.35420311e+02
617             	4.35419935e+02
618             	4.35419536e+02
619             	4.35419132e+02
620             	4.35418724e+02
621             	4.35418306e+02
