# Region        : cellZone component_1
# Cells         : 228
# Volume        : 4.11170958e-01
# Time          	volAverage(T)
1               	3.00247838e+02
2               	3.00492745e+02
3               	3.00717327e+02
4               	3.00927643e+02
5               	3.01130885e+02
6               	3.01329593e+02
7               	3.01524144e+02
8               	3.01715723e+02
9               	3.01905642e+02
10              	3.02094202e+02
11              	3.02278945e+02
12              	3.02459681e+02
13              	3.02638052e+02
14              	3.02812671e+02
15              	3.02984374e+02
16              	3.03155826e+02
17              	3.03323680e+02
18              	3.03487158e+02
19              	3.03646618e+02
20              	3.03802933e+02
21              	3.03959431e+02
22              	3.04112124e+02
23              	3.04259189e+02
24              	3.04399667e+02
25              	3.04534028e+02
26              	3.04658558e+02
27              	3.04772662e+02
28              	3.04888827e+02
29              	3.05009717e+02
30              	3.05132502e+02
31              	3.05254957e+02
32              	3.05373347e+02
33              	3.05497598e+02
34              	3.05613455e+02
35              	3.05721796e+02
36              	3.05826363e+02
37              	3.05929781e+02
38              	3.06030880e+02
39              	3.06127906e+02
40              	3.06223007e+02
41              	3.06314168e+02
42              	3.06399555e+02
43              	3.06481837e+02
44              	3.06562908e+02
45              	3.06646237e+02
46              	3.06728549e+02
47              	3.06813691e+02
48              	3.06901407e+02
49              	3.06989566e+02
50              	3.07079112e+02
51              	3.07167460e+02
52              	3.07254825e+02
53              	3.07339317e+02
54              	3.07419625e+02
55              	3.07500572e+02
56              	3.07580084e+02
57              	3.07656231e+02
58              	3.07732791e+02
59              	3.07811023e+02
60              	3.07877761e+02
61              	3.07926311e+02
62              	3.07964152e+02
63              	3.08006660e+02
64              	3.08056013e+02
65              	3.08112170e+02
66              	3.08173993e+02
67              	3.08237803e+02
68              	3.08301202e+02
69              	3.08366882e+02
70              	3.08438025e+02
71              	3.08505056e+02
72              	3.08563725e+02
73              	3.08617355e+02
74              	3.08666207e+02
75              	3.08707154e+02
76              	3.08753446e+02
77              	3.08802920e+02
78              	3.08853075e+02
79              	3.08903011e+02
80              	3.08953329e+02
81              	3.09005894e+02
82              	3.09053671e+02
83              	3.09098089e+02
84              	3.09137923e+02
85              	3.09177861e+02
86              	3.09217193e+02
87              	3.09257261e+02
88              	3.09304892e+02
89              	3.09352666e+02
90              	3.09404450e+02
91              	3.09449697e+02
92              	3.09495426e+02
93              	3.09540625e+02
94              	3.09591347e+02
95              	3.09636549e+02
96              	3.09664457e+02
97              	3.09678027e+02
98              	3.09683932e+02
99              	3.09698408e+02
100             	3.09725140e+02
101             	3.09760226e+02
102             	3.09801375e+02
103             	3.09840526e+02
104             	3.09880287e+02
105             	3.09932034e+02
106             	3.09975178e+02
107             	3.10006461e+02
108             	3.10035595e+02
109             	3.10057711e+02
110             	3.10064268e+02
111             	3.10077959e+02
112             	3.10100180e+02
113             	3.10125136e+02
114             	3.10152967e+02
115             	3.10181487e+02
116             	3.10212957e+02
117             	3.10240325e+02
118             	3.10265771e+02
119             	3.10289846e+02
120             	3.10310051e+02
121             	3.10325420e+02
122             	3.10348608e+02
123             	3.10376530e+02
124             	3.10409857e+02
125             	3.10443829e+02
126             	3.10476447e+02
127             	3.10508704e+02
128             	3.10543353e+02
129             	3.10571867e+02
130             	3.10588297e+02
131             	3.10590533e+02
132             	3.10587352e+02
133             	3.10579821e+02
134             	3.10581171e+02
135             	3.10591078e+02
136             	3.10608810e+02
137             	3.10632368e+02
138             	3.10655504e+02
139             	3.10683409e+02
140             	3.10714085e+02
141             	3.10748549e+02
142             	3.10769363e+02
143             	3.10775958e+02
144             	3.10773234e+02
145             	3.10758888e+02
146             	3.10755069e+02
147             	3.10761192e+02
148             	3.10777193e+02
149             	3.10800090e+02
150             	3.10832102e+02
151             	3.10862518e+02
152             	3.10888208e+02
153             	3.10906933e+02
154             	3.10909020e+02
155             	3.10909895e+02
156             	3.10920386e+02
157             	3.10938521e+02
158             	3.10957625e+02
159             	3.10983379e+02
160             	3.11010565e+02
161             	3.11044436e+02
162             	3.11077119e+02
163             	3.11105569e+02
164             	3.11126662e+02
165             	3.11136429e+02
166             	3.11133499e+02
167             	3.11125748e+02
168             	3.11116901e+02
169             	3.11112685e+02
170             	3.11116880e+02
171             	3.11125768e+02
172             	3.11138717e+02
173             	3.11153115e+02
174             	3.11168406e+02
175             	3.11184678e+02
176             	3.11198132e+02
177             	3.11207238e+02
178             	3.11214513e+02
179             	3.11219769e+02
180             	3.11224972e+02
181             	3.11229988e+02
182             	3.11238911e+02
183             	3.11253107e+02
184             	3.11271179e+02
185             	3.11291309e+02
186             	3.11312832e+02
187             	3.11334721e+02
188             	3.11356002e+02
189             	3.11374832e+02
190             	3.11390032e+02
191             	3.11403717e+02
192             	3.11415862e+02
193             	3.11424448e+02
194             	3.11432215e+02
195             	3.11439006e+02
196             	3.11444460e+02
197             	3.11449666e+02
198             	3.11455464e+02
199             	3.11462161e+02
200             	3.11469614e+02
201             	3.11477477e+02
202             	3.11484258e+02
203             	3.11489260e+02
204             	3.11492678e+02
205             	3.11495271e+02
206             	3.11498524e+02
207             	3.11504700e+02
208             	3.11513511e+02
209             	3.11523118e+02
210             	3.11533874e+02
211             	3.11546042e+02
212             	3.11558468e+02
213             	3.11568840e+02
214             	3.11577317e+02
215             	3.11583931e+02
216             	3.11590455e+02
217             	3.11595206e+02
218             	3.11597728e+02
219             	3.11603358e+02
220             	3.11611916e+02
221             	3.11620871e+02
222             	3.11629721e+02
223             	3.11638693e+02
224             	3.11647626e+02
225             	3.11655373e+02
226             	3.11661944e+02
227             	3.11664921e+02
228             	3.11665578e+02
229             	3.11668579e+02
230             	3.11673181e+02
231             	3.11678363e+02
232             	3.11683487e+02
233             	3.11688774e+02
234             	3.11694819e+02
235             	3.11701215e+02
236             	3.11706747e+02
237             	3.11711820e+02
238             	3.11716980e+02
239             	3.11721843e+02
240             	3.11727027e+02
241             	3.11732801e+02
242             	3.11739312e+02
243             	3.11747404e+02
244             	3.11756709e+02
245             	3.11766439e+02
246             	3.11775718e+02
247             	3.11784237e+02
248             	3.11792268e+02
249             	3.11798896e+02
250             	3.11804418e+02
251             	3.11809128e+02
252             	3.11813091e+02
253             	3.11816227e+02
254             	3.11818162e+02
255             	3.11819342e+02
256             	3.11821653e+02
257             	3.11824589e+02
258             	3.11827707e+02
259             	3.11831119e+02
260             	3.11834995e+02
261             	3.11838767e+02
262             	3.11842487e+02
263             	3.11846362e+02
264             	3.11850356e+02
265             	3.11854434e+02
266             	3.11858594e+02
267             	3.11863173e+02
268             	3.11867540e+02
269             	3.11871908e+02
270             	3.11875900e+02
271             	3.11880020e+02
272             	3.11884309e+02
273             	3.11888725e+02
274             	3.11893163e+02
275             	3.11897583e+02
276             	3.11901583e+02
277             	3.11904919e+02
278             	3.11907640e+02
279             	3.11910007e+02
280             	3.11912006e+02
281             	3.11913607e+02
282             	3.11914919e+02
283             	3.11916196e+02
284             	3.11918564e+02
285             	3.11921663e+02
286             	3.11925424e+02
287             	3.11929027e+02
288             	3.11932408e+02
289             	3.11934886e+02
290             	3.11936799e+02
291             	3.11938478e+02
292             	3.11940111e+02
293             	3.11941782e+02
294             	3.11943633e+02
295             	3.11945683e+02
296             	3.11947807e+02
297             	3.11949964e+02
298             	3.11952270e+02
299             	3.11954503e+02
300             	3.11956554e+02
301             	3.11958581e+02
302             	3.11960527e+02
303             	3.11962242e+02
304             	3.11963609e+02
305             	3.11964749e+02
306             	3.11965774e+02
307             	3.11966663e+02
308             	3.11967348e+02
309             	3.11968183e+02
310             	3.11969117e+02
311             	3.11970467e+02
312             	3.11972104e+02
313             	3.11973904e+02
314             	3.11975841e+02
315             	3.11977827e+02
316             	3.11979915e+02
317             	3.11982324e+02
318             	3.11984274e+02
319             	3.11985873e+02
320             	3.11987258e+02
321             	3.11988598e+02
322             	3.11989840e+02
323             	3.11990843e+02
324             	3.11991799e+02
325             	3.11993007e+02
326             	3.11994420e+02
327             	3.11995926e+02
328             	3.11997464e+02
329             	3.11999064e+02
330             	3.12000654e+02
331             	3.12001770e+02
332             	3.12002630e+02
333             	3.12003350e+02
334             	3.12003931e+02
335             	3.12004512e+02
336             	3.12005581e+02
337             	3.12006912e+02
338             	3.12008401e+02
339             	3.12009990e+02
340             	3.12011531e+02
341             	3.12012935e+02
342             	3.12014281e+02
343             	3.12015747e+02
344             	3.12017077e+02
345             	3.12018100e+02
346             	3.12018813e+02
347             	3.12019434e+02
348             	3.12019925e+02
349             	3.12020305e+02
350             	3.12020576e+02
351             	3.12020777e+02
352             	3.12021288e+02
353             	3.12022056e+02
354             	3.12022915e+02
355             	3.12023723e+02
356             	3.12024494e+02
357             	3.12025203e+02
358             	3.12025847e+02
359             	3.12026555e+02
360             	3.12027111e+02
361             	3.12027376e+02
362             	3.12027576e+02
363             	3.12027917e+02
364             	3.12028339e+02
365             	3.12028919e+02
366             	3.12029543e+02
367             	3.12030181e+02
368             	3.12030880e+02
369             	3.12031571e+02
370             	3.12032185e+02
371             	3.12032680e+02
372             	3.12033078e+02
373             	3.12033403e+02
374             	3.12033671e+02
375             	3.12033886e+02
376             	3.12034181e+02
377             	3.12034521e+02
378             	3.12034937e+02
379             	3.12035457e+02
380             	3.12036083e+02
381             	3.12036756e+02
382             	3.12037473e+02
383             	3.12038218e+02
384             	3.12038830e+02
385             	3.12039334e+02
386             	3.12039767e+02
387             	3.12040147e+02
388             	3.12040471e+02
389             	3.12040728e+02
390             	3.12041043e+02
391             	3.12041474e+02
392             	3.12041935e+02
393             	3.12042400e+02
394             	3.12042882e+02
395             	3.12043344e+02
396             	3.12043691e+02
397             	3.12043990e+02
398             	3.12044259e+02
399             	3.12044514e+02
400             	3.12044768e+02
401             	3.12045038e+02
402             	3.12045329e+02
403             	3.12045631e+02
404             	3.12045925e+02
405             	3.12046214e+02
406             	3.12046491e+02
407             	3.12046808e+02
408             	3.12047143e+02
409             	3.12047498e+02
410             	3.12047859e+02
411             	3.12048201e+02
412             	3.12048550e+02
413             	3.12048889e+02
414             	3.12049220e+02
415             	3.12049539e+02
416             	3.12049841e+02
417             	3.12050115e+02
418             	3.12050361e+02
419             	3.12050620e+02
420             	3.12050921e+02
421             	3.12051255e+02
422             	3.12051579e+02
423             	3.12051874e+02
424             	3.12052132e+02
425             	3.12052338e+02
426             	3.12052502e+02
427             	3.12052621e+02
428             	3.12052723e+02
429             	3.12052845e+02
430             	3.12052987e+02
431             	3.12053147e+02
432             	3.12053324e+02
433             	3.12053523e+02
434             	3.12053734e+02
435             	3.12053983e+02
436             	3.12054247e+02
437             	3.12054505e+02
438             	3.12054752e+02
439             	3.12055000e+02
440             	3.12055241e+02
441             	3.12055466e+02
442             	3.12055665e+02
443             	3.12055822e+02
444             	3.12055953e+02
445             	3.12056077e+02
446             	3.12056191e+02
447             	3.12056306e+02
448             	3.12056435e+02
449             	3.12056590e+02
450             	3.12056748e+02
451             	3.12056886e+02
452             	3.12057010e+02
453             	3.12057121e+02
454             	3.12057216e+02
455             	3.12057314e+02
456             	3.12057424e+02
457             	3.12057543e+02
458             	3.12057669e+02
459             	3.12057800e+02
460             	3.12057940e+02
461             	3.12058089e+02
462             	3.12058238e+02
463             	3.12058387e+02
464             	3.12058538e+02
465             	3.12058687e+02
466             	3.12058831e+02
467             	3.12058953e+02
468             	3.12059073e+02
469             	3.12059201e+02
470             	3.12059337e+02
471             	3.12059474e+02
472             	3.12059610e+02
473             	3.12059739e+02
474             	3.12059850e+02
475             	3.12059951e+02
476             	3.12060045e+02
477             	3.12060129e+02
478             	3.12060210e+02
479             	3.12060285e+02
480             	3.12060354e+02
481             	3.12060418e+02
482             	3.12060488e+02
483             	3.12060572e+02
484             	3.12060666e+02
485             	3.12060763e+02
486             	3.12060860e+02
487             	3.12060957e+02
488             	3.12061050e+02
489             	3.12061139e+02
490             	3.12061226e+02
491             	3.12061312e+02
492             	3.12061393e+02
493             	3.12061473e+02
494             	3.12061551e+02
495             	3.12061628e+02
496             	3.12061704e+02
497             	3.12061778e+02
498             	3.12061849e+02
499             	3.12061917e+02
500             	3.12061981e+02
501             	3.12062044e+02
502             	3.12062105e+02
503             	3.12062160e+02
504             	3.12062213e+02
505             	3.12062262e+02
506             	3.12062306e+02
507             	3.12062353e+02
508             	3.12062401e+02
509             	3.12062450e+02
510             	3.12062499e+02
511             	3.12062549e+02
512             	3.12062601e+02
513             	3.12062655e+02
514             	3.12062710e+02
515             	3.12062767e+02
516             	3.12062828e+02
517             	3.12062892e+02
518             	3.12062957e+02
519             	3.12063023e+02
520             	3.12063090e+02
521             	3.12063158e+02
522             	3.12063222e+02
523             	3.12063282e+02
524             	3.12063344e+02
525             	3.12063398e+02
526             	3.12063446e+02
527             	3.12063489e+02
528             	3.12063526e+02
529             	3.12063560e+02
530             	3.12063593e+02
531             	3.12063629e+02
532             	3.12063665e+02
533             	3.12063701e+02
534             	3.12063735e+02
535             	3.12063772e+02
536             	3.12063813e+02
537             	3.12063855e+02
538             	3.12063898e+02
539             	3.12063938e+02
540             	3.12063977e+02
541             	3.12064016e+02
542             	3.12064055e+02
543             	3.12064095e+02
544             	3.12064129e+02
545             	3.12064165e+02
546             	3.12064208e+02
547             	3.12064255e+02
548             	3.12064311e+02
549             	3.12064362e+02
550             	3.12064403e+02
551             	3.12064436e+02
552             	3.12064467e+02
553             	3.12064494e+02
554             	3.12064516e+02
555             	3.12064536e+02
556             	3.12064555e+02
557             	3.12064576e+02
558             	3.12064598e+02
559             	3.12064617e+02
560             	3.12064643e+02
561             	3.12064675e+02
562             	3.12064712e+02
563             	3.12064748e+02
564             	3.12064781e+02
565             	3.12064816e+02
566             	3.12064845e+02
567             	3.12064869e+02
568             	3.12064887e+02
569             	3.12064904e+02
570             	3.12064921e+02
571             	3.12064944e+02
572             	3.12064970e+02
573             	3.12064997e+02
574             	3.12065022e+02
575             	3.12065043e+02
576             	3.12065061e+02
577             	3.12065076e+02
578             	3.12065092e+02
579             	3.12065106e+02
580             	3.12065118e+02
581             	3.12065126e+02
582             	3.12065133e+02
583             	3.12065140e+02
584             	3.12065147e+02
585             	3.12065154e+02
586             	3.12065160e+02
587             	3.12065170e+02
588             	3.12065188e+02
589             	3.12065204e+02
590             	3.12065226e+02
591             	3.12065248e+02
592             	3.12065264e+02
593             	3.12065284e+02
594             	3.12065306e+02
595             	3.12065324e+02
596             	3.12065335e+02
597             	3.12065344e+02
598             	3.12065352e+02
599             	3.12065357e+02
600             	3.12065365e+02
601             	3.12065373e+02
602             	3.12065379e+02
603             	3.12065387e+02
604             	3.12065397e+02
605             	3.12065409e+02
606             	3.12065421e+02
607             	3.12065435e+02
608             	3.12065444e+02
609             	3.12065452e+02
610             	3.12065458e+02
611             	3.12065465e+02
612             	3.12065472e+02
613             	3.12065485e+02
614             	3.12065502e+02
615             	3.12065519e+02
616             	3.12065546e+02
617             	3.12065563e+02
618             	3.12065578e+02
619             	3.12065592e+02
620             	3.12065608e+02
621             	3.12065622e+02
