# Region        : cellZone component_0
# Cells         : 264
# Volume        : 5.44123171e-01
# Time          	volAverage(T)
1               	3.00184897e+02
2               	3.00367656e+02
3               	3.00536677e+02
4               	3.00697817e+02
5               	3.00856193e+02
6               	3.01012544e+02
7               	3.01166800e+02
8               	3.01319351e+02
9               	3.01470503e+02
10              	3.01620731e+02
11              	3.01769969e+02
12              	3.01917840e+02
13              	3.02064086e+02
14              	3.02209422e+02
15              	3.02353405e+02
16              	3.02495926e+02
17              	3.02636907e+02
18              	3.02776216e+02
19              	3.02913763e+02
20              	3.03049925e+02
21              	3.03184445e+02
22              	3.03317555e+02
23              	3.03449239e+02
24              	3.03579215e+02
25              	3.03707553e+02
26              	3.03833851e+02
27              	3.03958031e+02
28              	3.04079925e+02
29              	3.04199477e+02
30              	3.04316555e+02
31              	3.04431469e+02
32              	3.04544149e+02
33              	3.04654408e+02
34              	3.04762551e+02
35              	3.04868741e+02
36              	3.04972993e+02
37              	3.05075531e+02
38              	3.05176419e+02
39              	3.05275756e+02
40              	3.05373678e+02
41              	3.05469694e+02
42              	3.05564361e+02
43              	3.05657094e+02
44              	3.05747431e+02
45              	3.05835976e+02
46              	3.05922425e+02
47              	3.06006850e+02
48              	3.06089224e+02
49              	3.06169728e+02
50              	3.06248326e+02
51              	3.06325119e+02
52              	3.06400005e+02
53              	3.06473437e+02
54              	3.06545451e+02
55              	3.06616355e+02
56              	3.06685799e+02
57              	3.06753996e+02
58              	3.06820743e+02
59              	3.06885533e+02
60              	3.06949072e+02
61              	3.07010917e+02
62              	3.07071296e+02
63              	3.07129901e+02
64              	3.07186344e+02
65              	3.07241718e+02
66              	3.07295745e+02
67              	3.07349035e+02
68              	3.07401414e+02
69              	3.07452979e+02
70              	3.07503906e+02
71              	3.07553398e+02
72              	3.07602338e+02
73              	3.07649258e+02
74              	3.07695463e+02
75              	3.07739504e+02
76              	3.07782553e+02
77              	3.07825753e+02
78              	3.07865571e+02
79              	3.07904450e+02
80              	3.07942964e+02
81              	3.07981267e+02
82              	3.08020837e+02
83              	3.08058574e+02
84              	3.08095137e+02
85              	3.08131055e+02
86              	3.08166385e+02
87              	3.08201905e+02
88              	3.08234400e+02
89              	3.08267105e+02
90              	3.08298883e+02
91              	3.08327998e+02
92              	3.08356979e+02
93              	3.08385423e+02
94              	3.08413472e+02
95              	3.08441658e+02
96              	3.08469352e+02
97              	3.08496880e+02
98              	3.08524566e+02
99              	3.08550252e+02
100             	3.08576346e+02
101             	3.08600545e+02
102             	3.08624041e+02
103             	3.08646708e+02
104             	3.08669056e+02
105             	3.08690933e+02
106             	3.08712486e+02
107             	3.08733684e+02
108             	3.08754287e+02
109             	3.08774611e+02
110             	3.08794509e+02
111             	3.08814364e+02
112             	3.08833174e+02
113             	3.08851625e+02
114             	3.08869696e+02
115             	3.08887204e+02
116             	3.08904627e+02
117             	3.08921817e+02
118             	3.08938588e+02
119             	3.08954963e+02
120             	3.08971074e+02
121             	3.08986629e+02
122             	3.09001658e+02
123             	3.09016289e+02
124             	3.09030496e+02
125             	3.09044099e+02
126             	3.09057459e+02
127             	3.09070594e+02
128             	3.09083678e+02
129             	3.09096784e+02
130             	3.09110118e+02
131             	3.09123249e+02
132             	3.09136288e+02
133             	3.09149583e+02
134             	3.09161775e+02
135             	3.09173579e+02
136             	3.09184842e+02
137             	3.09195498e+02
138             	3.09205570e+02
139             	3.09215144e+02
140             	3.09224374e+02
141             	3.09233524e+02
142             	3.09242707e+02
143             	3.09252020e+02
144             	3.09261439e+02
145             	3.09270904e+02
146             	3.09280458e+02
147             	3.09289651e+02
148             	3.09299126e+02
149             	3.09308402e+02
150             	3.09317080e+02
151             	3.09325537e+02
152             	3.09333669e+02
153             	3.09341556e+02
154             	3.09349160e+02
155             	3.09356644e+02
156             	3.09363932e+02
157             	3.09371011e+02
158             	3.09377912e+02
159             	3.09384663e+02
160             	3.09391299e+02
161             	3.09397827e+02
162             	3.09404136e+02
163             	3.09410398e+02
164             	3.09416681e+02
165             	3.09422756e+02
166             	3.09428856e+02
167             	3.09435055e+02
168             	3.09441331e+02
169             	3.09447642e+02
170             	3.09453848e+02
171             	3.09460205e+02
172             	3.09466376e+02
173             	3.09472298e+02
174             	3.09477743e+02
175             	3.09482904e+02
176             	3.09487763e+02
177             	3.09492344e+02
178             	3.09496760e+02
179             	3.09501152e+02
180             	3.09505749e+02
181             	3.09510295e+02
182             	3.09515028e+02
183             	3.09519961e+02
184             	3.09524844e+02
185             	3.09529867e+02
186             	3.09534721e+02
187             	3.09539595e+02
188             	3.09544369e+02
189             	3.09549029e+02
190             	3.09553808e+02
191             	3.09558305e+02
192             	3.09562688e+02
193             	3.09566920e+02
194             	3.09571057e+02
195             	3.09575112e+02
196             	3.09579031e+02
197             	3.09583064e+02
198             	3.09586888e+02
199             	3.09590741e+02
200             	3.09594570e+02
201             	3.09598334e+02
202             	3.09601979e+02
203             	3.09605593e+02
204             	3.09609252e+02
205             	3.09612844e+02
206             	3.09616440e+02
207             	3.09620146e+02
208             	3.09623875e+02
209             	3.09627591e+02
210             	3.09631243e+02
211             	3.09634862e+02
212             	3.09638407e+02
213             	3.09641926e+02
214             	3.09645362e+02
215             	3.09648715e+02
216             	3.09652006e+02
217             	3.09655261e+02
218             	3.09658483e+02
219             	3.09661713e+02
220             	3.09664948e+02
221             	3.09668196e+02
222             	3.09671474e+02
223             	3.09674818e+02
224             	3.09678154e+02
225             	3.09681463e+02
226             	3.09684803e+02
227             	3.09688230e+02
228             	3.09691707e+02
229             	3.09695169e+02
230             	3.09698637e+02
231             	3.09702040e+02
232             	3.09705309e+02
233             	3.09708476e+02
234             	3.09711481e+02
235             	3.09714329e+02
236             	3.09717040e+02
237             	3.09719656e+02
238             	3.09722243e+02
239             	3.09724872e+02
240             	3.09727561e+02
241             	3.09730329e+02
242             	3.09733162e+02
243             	3.09736031e+02
244             	3.09738870e+02
245             	3.09741820e+02
246             	3.09744671e+02
247             	3.09747645e+02
248             	3.09750610e+02
249             	3.09753615e+02
250             	3.09756579e+02
251             	3.09759481e+02
252             	3.09762319e+02
253             	3.09765109e+02
254             	3.09767827e+02
255             	3.09770456e+02
256             	3.09773021e+02
257             	3.09775550e+02
258             	3.09778053e+02
259             	3.09780577e+02
260             	3.09783124e+02
261             	3.09785691e+02
262             	3.09788269e+02
263             	3.09790856e+02
264             	3.09793463e+02
265             	3.09795970e+02
266             	3.09798454e+02
267             	3.09800848e+02
268             	3.09803304e+02
269             	3.09805746e+02
270             	3.09808296e+02
271             	3.09810860e+02
272             	3.09813416e+02
273             	3.09815921e+02
274             	3.09818341e+02
275             	3.09820705e+02
276             	3.09822941e+02
277             	3.09825052e+02
278             	3.09827067e+02
279             	3.09829002e+02
280             	3.09830882e+02
281             	3.09832746e+02
282             	3.09834616e+02
283             	3.09836514e+02
284             	3.09838454e+02
285             	3.09840473e+02
286             	3.09842478e+02
287             	3.09844482e+02
288             	3.09846508e+02
289             	3.09848615e+02
290             	3.09850811e+02
291             	3.09853046e+02
292             	3.09855249e+02
293             	3.09857400e+02
294             	3.09859464e+02
295             	3.09861418e+02
296             	3.09863251e+02
297             	3.09864979e+02
298             	3.09866622e+02
299             	3.09868216e+02
300             	3.09869801e+02
301             	3.09871404e+02
302             	3.09873032e+02
303             	3.09874698e+02
304             	3.09876434e+02
305             	3.09878162e+02
306             	3.09879925e+02
307             	3.09881745e+02
308             	3.09883601e+02
309             	3.09885528e+02
310             	3.09887545e+02
311             	3.09889593e+02
312             	3.09891640e+02
313             	3.09893654e+02
314             	3.09895599e+02
315             	3.09897458e+02
316             	3.09899202e+02
317             	3.09900839e+02
318             	3.09902389e+02
319             	3.09903879e+02
320             	3.09905336e+02
321             	3.09906790e+02
322             	3.09908269e+02
323             	3.09909778e+02
324             	3.09911338e+02
325             	3.09912988e+02
326             	3.09914607e+02
327             	3.09916293e+02
328             	3.09917999e+02
329             	3.09919699e+02
330             	3.09921387e+02
331             	3.09923137e+02
332             	3.09924834e+02
333             	3.09926447e+02
334             	3.09927985e+02
335             	3.09929450e+02
336             	3.09930827e+02
337             	3.09932154e+02
338             	3.09933449e+02
339             	3.09934718e+02
340             	3.09935961e+02
341             	3.09937203e+02
342             	3.09938462e+02
343             	3.09939720e+02
344             	3.09940981e+02
345             	3.09942256e+02
346             	3.09943592e+02
347             	3.09944951e+02
348             	3.09946316e+02
349             	3.09947683e+02
350             	3.09949132e+02
351             	3.09950619e+02
352             	3.09952160e+02
353             	3.09953676e+02
354             	3.09955159e+02
355             	3.09956585e+02
356             	3.09957922e+02
357             	3.09959226e+02
358             	3.09960448e+02
359             	3.09961613e+02
360             	3.09962730e+02
361             	3.09963816e+02
362             	3.09964888e+02
363             	3.09965948e+02
364             	3.09966990e+02
365             	3.09968061e+02
366             	3.09969090e+02
367             	3.09970144e+02
368             	3.09971127e+02
369             	3.09972104e+02
370             	3.09973085e+02
371             	3.09974162e+02
372             	3.09975377e+02
373             	3.09976644e+02
374             	3.09977927e+02
375             	3.09979184e+02
376             	3.09980392e+02
377             	3.09981522e+02
378             	3.09982534e+02
379             	3.09983445e+02
380             	3.09984275e+02
381             	3.09985053e+02
382             	3.09985812e+02
383             	3.09986569e+02
384             	3.09987342e+02
385             	3.09988148e+02
386             	3.09989007e+02
387             	3.09989902e+02
388             	3.09990819e+02
389             	3.09991754e+02
390             	3.09992676e+02
391             	3.09993712e+02
392             	3.09994782e+02
393             	3.09995884e+02
394             	3.09997075e+02
395             	3.09998133e+02
396             	3.09999128e+02
397             	3.10000075e+02
398             	3.10000907e+02
399             	3.10001668e+02
400             	3.10002396e+02
401             	3.10003111e+02
402             	3.10003830e+02
403             	3.10004562e+02
404             	3.10005317e+02
405             	3.10006102e+02
406             	3.10006931e+02
407             	3.10007872e+02
408             	3.10008782e+02
409             	3.10009704e+02
410             	3.10010621e+02
411             	3.10011569e+02
412             	3.10012526e+02
413             	3.10013538e+02
414             	3.10014547e+02
415             	3.10015532e+02
416             	3.10016476e+02
417             	3.10017380e+02
418             	3.10018179e+02
419             	3.10018943e+02
420             	3.10019696e+02
421             	3.10020462e+02
422             	3.10021175e+02
423             	3.10021877e+02
424             	3.10022559e+02
425             	3.10023228e+02
426             	3.10023937e+02
427             	3.10024673e+02
428             	3.10025375e+02
429             	3.10026080e+02
430             	3.10026771e+02
431             	3.10027519e+02
432             	3.10028304e+02
433             	3.10029207e+02
434             	3.10030218e+02
435             	3.10031195e+02
436             	3.10032152e+02
437             	3.10033058e+02
438             	3.10033998e+02
439             	3.10034834e+02
440             	3.10035618e+02
441             	3.10036360e+02
442             	3.10037073e+02
443             	3.10037761e+02
444             	3.10038422e+02
445             	3.10039069e+02
446             	3.10039710e+02
447             	3.10040369e+02
448             	3.10041061e+02
449             	3.10041823e+02
450             	3.10042611e+02
451             	3.10043414e+02
452             	3.10044225e+02
453             	3.10045189e+02
454             	3.10046198e+02
455             	3.10047344e+02
456             	3.10048402e+02
457             	3.10049491e+02
458             	3.10050536e+02
459             	3.10051565e+02
460             	3.10052508e+02
461             	3.10053353e+02
462             	3.10054175e+02
463             	3.10054962e+02
464             	3.10055719e+02
465             	3.10056445e+02
466             	3.10057139e+02
467             	3.10057804e+02
468             	3.10058517e+02
469             	3.10059262e+02
470             	3.10060089e+02
471             	3.10060870e+02
472             	3.10061710e+02
473             	3.10062522e+02
474             	3.10063420e+02
475             	3.10064382e+02
476             	3.10065398e+02
477             	3.10066416e+02
478             	3.10067420e+02
479             	3.10068434e+02
480             	3.10069369e+02
481             	3.10070262e+02
482             	3.10071046e+02
483             	3.10071806e+02
484             	3.10072493e+02
485             	3.10073144e+02
486             	3.10073786e+02
487             	3.10074419e+02
488             	3.10075049e+02
489             	3.10075693e+02
490             	3.10076366e+02
491             	3.10077092e+02
492             	3.10077789e+02
493             	3.10078548e+02
494             	3.10079252e+02
495             	3.10080118e+02
496             	3.10080996e+02
497             	3.10081965e+02
498             	3.10082902e+02
499             	3.10083823e+02
500             	3.10084758e+02
501             	3.10085617e+02
502             	3.10086440e+02
503             	3.10087183e+02
504             	3.10087867e+02
505             	3.10088511e+02
506             	3.10089126e+02
507             	3.10089702e+02
508             	3.10090243e+02
509             	3.10090834e+02
510             	3.10091472e+02
511             	3.10092128e+02
512             	3.10092772e+02
513             	3.10093502e+02
514             	3.10094272e+02
515             	3.10095138e+02
516             	3.10096048e+02
517             	3.10097032e+02
518             	3.10097985e+02
519             	3.10098885e+02
520             	3.10099673e+02
521             	3.10100413e+02
522             	3.10101004e+02
523             	3.10101451e+02
524             	3.10101768e+02
525             	3.10102022e+02
526             	3.10102260e+02
527             	3.10102526e+02
528             	3.10102843e+02
529             	3.10103267e+02
530             	3.10103806e+02
531             	3.10104363e+02
532             	3.10104993e+02
533             	3.10105675e+02
534             	3.10106425e+02
535             	3.10107293e+02
536             	3.10108178e+02
537             	3.10109132e+02
538             	3.10110099e+02
539             	3.10110950e+02
540             	3.10111716e+02
541             	3.10112430e+02
542             	3.10113046e+02
543             	3.10113555e+02
544             	3.10113959e+02
545             	3.10114312e+02
546             	3.10114658e+02
547             	3.10115022e+02
548             	3.10115436e+02
549             	3.10115910e+02
550             	3.10116493e+02
551             	3.10117184e+02
552             	3.10117912e+02
553             	3.10118657e+02
554             	3.10119490e+02
555             	3.10120255e+02
556             	3.10121129e+02
557             	3.10122010e+02
558             	3.10122870e+02
559             	3.10123737e+02
560             	3.10124458e+02
561             	3.10125075e+02
562             	3.10125658e+02
563             	3.10126121e+02
564             	3.10126512e+02
565             	3.10126865e+02
566             	3.10127217e+02
567             	3.10127558e+02
568             	3.10127916e+02
569             	3.10128299e+02
570             	3.10128747e+02
571             	3.10129254e+02
572             	3.10129823e+02
573             	3.10130367e+02
574             	3.10131014e+02
575             	3.10131665e+02
576             	3.10132436e+02
577             	3.10133243e+02
578             	3.10134095e+02
579             	3.10134985e+02
580             	3.10135738e+02
581             	3.10136384e+02
582             	3.10136981e+02
583             	3.10137440e+02
584             	3.10137779e+02
585             	3.10138033e+02
586             	3.10138253e+02
587             	3.10138460e+02
588             	3.10138683e+02
589             	3.10138947e+02
590             	3.10139261e+02
591             	3.10139645e+02
592             	3.10140168e+02
593             	3.10140674e+02
594             	3.10141319e+02
595             	3.10141938e+02
596             	3.10142611e+02
597             	3.10143287e+02
598             	3.10144009e+02
599             	3.10144683e+02
600             	3.10145276e+02
601             	3.10145809e+02
602             	3.10146253e+02
603             	3.10146591e+02
604             	3.10146827e+02
605             	3.10146983e+02
606             	3.10147102e+02
607             	3.10147222e+02
608             	3.10147347e+02
609             	3.10147499e+02
610             	3.10147687e+02
611             	3.10147944e+02
612             	3.10148295e+02
613             	3.10148606e+02
614             	3.10148954e+02
615             	3.10149269e+02
616             	3.10149684e+02
617             	3.10150149e+02
618             	3.10150726e+02
619             	3.10151355e+02
620             	3.10151948e+02
621             	3.10152500e+02
