# Region        : cellZone component_0
# Cells         : 135
# Volume        : 2.26036561e-01
# Time          	volAverage(T)
1               	3.00829607e+02
2               	3.01647341e+02
3               	3.02377247e+02
4               	3.03050575e+02
5               	3.03699748e+02
6               	3.04336803e+02
7               	3.04964231e+02
8               	3.05585554e+02
9               	3.06198572e+02
10              	3.06815258e+02
11              	3.07365262e+02
12              	3.07860832e+02
13              	3.08328068e+02
14              	3.08802452e+02
15              	3.09294769e+02
16              	3.09795580e+02
17              	3.10293888e+02
18              	3.10792111e+02
19              	3.11262332e+02
20              	3.11730372e+02
21              	3.12180063e+02
22              	3.12629515e+02
23              	3.13075036e+02
24              	3.13518424e+02
25              	3.13938710e+02
26              	3.14344938e+02
27              	3.14735739e+02
28              	3.15117089e+02
29              	3.15392484e+02
30              	3.15565920e+02
31              	3.15673692e+02
32              	3.15818327e+02
33              	3.16030477e+02
34              	3.16276397e+02
35              	3.16523457e+02
36              	3.16727508e+02
37              	3.16946718e+02
38              	3.17187499e+02
39              	3.17424768e+02
40              	3.17655911e+02
41              	3.17876772e+02
42              	3.18082465e+02
43              	3.18283724e+02
44              	3.18480231e+02
45              	3.18670715e+02
46              	3.18853648e+02
47              	3.19030968e+02
48              	3.19206828e+02
49              	3.19378296e+02
50              	3.19550806e+02
51              	3.19717853e+02
52              	3.19877475e+02
53              	3.20029711e+02
54              	3.20173180e+02
55              	3.20307988e+02
56              	3.20449324e+02
57              	3.20583695e+02
58              	3.20714207e+02
59              	3.20836045e+02
60              	3.20953155e+02
61              	3.21063668e+02
62              	3.21174647e+02
63              	3.21286318e+02
64              	3.21399175e+02
65              	3.21506699e+02
66              	3.21617578e+02
67              	3.21720364e+02
68              	3.21812546e+02
69              	3.21901886e+02
70              	3.21987091e+02
71              	3.22074843e+02
72              	3.22160901e+02
73              	3.22244548e+02
74              	3.22328025e+02
75              	3.22413328e+02
76              	3.22499341e+02
77              	3.22584297e+02
78              	3.22670273e+02
79              	3.22750824e+02
80              	3.22830643e+02
81              	3.22899739e+02
82              	3.22966833e+02
83              	3.23029056e+02
84              	3.23094479e+02
85              	3.23156983e+02
86              	3.23217054e+02
87              	3.23272041e+02
88              	3.23325139e+02
89              	3.23373364e+02
90              	3.23420627e+02
91              	3.23476762e+02
92              	3.23538071e+02
93              	3.23600394e+02
94              	3.23659626e+02
95              	3.23709559e+02
96              	3.23760626e+02
97              	3.23808927e+02
98              	3.23852178e+02
99              	3.23894514e+02
100             	3.23938054e+02
101             	3.23975682e+02
102             	3.24011812e+02
103             	3.24049220e+02
104             	3.24083752e+02
105             	3.24120027e+02
106             	3.24160786e+02
107             	3.24202683e+02
108             	3.24248639e+02
109             	3.24300529e+02
110             	3.24354862e+02
111             	3.24407644e+02
112             	3.24456825e+02
113             	3.24501947e+02
114             	3.24539301e+02
115             	3.24570074e+02
116             	3.24601327e+02
117             	3.24628669e+02
118             	3.24650220e+02
119             	3.24665109e+02
120             	3.24680403e+02
121             	3.24702655e+02
122             	3.24737646e+02
123             	3.24777048e+02
124             	3.24814012e+02
125             	3.24848562e+02
126             	3.24879594e+02
127             	3.24904176e+02
128             	3.24921829e+02
129             	3.24932920e+02
130             	3.24940419e+02
131             	3.24945501e+02
132             	3.24947885e+02
133             	3.24949173e+02
134             	3.24956435e+02
135             	3.24971889e+02
136             	3.24995086e+02
137             	3.25020723e+02
138             	3.25045003e+02
139             	3.25068596e+02
140             	3.25089213e+02
141             	3.25111482e+02
142             	3.25128877e+02
143             	3.25145242e+02
144             	3.25155924e+02
145             	3.25164803e+02
146             	3.25171721e+02
147             	3.25180291e+02
148             	3.25192674e+02
149             	3.25202629e+02
150             	3.25209308e+02
151             	3.25218167e+02
152             	3.25228599e+02
153             	3.25237299e+02
154             	3.25251923e+02
155             	3.25269785e+02
156             	3.25281333e+02
157             	3.25295617e+02
158             	3.25315073e+02
159             	3.25330677e+02
160             	3.25345346e+02
161             	3.25355184e+02
162             	3.25363184e+02
163             	3.25369561e+02
164             	3.25375275e+02
165             	3.25371278e+02
166             	3.25361872e+02
167             	3.25347682e+02
168             	3.25334355e+02
169             	3.25326555e+02
170             	3.25327189e+02
171             	3.25326222e+02
172             	3.25322240e+02
173             	3.25317728e+02
174             	3.25312092e+02
175             	3.25305449e+02
176             	3.25298506e+02
177             	3.25286438e+02
178             	3.25270894e+02
179             	3.25251705e+02
180             	3.25250880e+02
181             	3.25274410e+02
182             	3.25275162e+02
183             	3.25261102e+02
184             	3.25242215e+02
185             	3.25210828e+02
186             	3.25136200e+02
187             	3.25065310e+02
188             	3.25002774e+02
189             	3.24953383e+02
190             	3.24916153e+02
191             	3.24890431e+02
192             	3.24871293e+02
193             	3.24860611e+02
194             	3.24859633e+02
195             	3.24865339e+02
196             	3.24874099e+02
197             	3.24879864e+02
198             	3.24871228e+02
199             	3.24865412e+02
200             	3.06615252e+02
201             	3.05587084e+02
202             	3.05681119e+02
203             	3.06034176e+02
204             	3.06219225e+02
205             	3.05989061e+02
206             	3.06222815e+02
207             	3.07297635e+02
208             	3.07694639e+02
209             	3.08615628e+02
210             	2.50000000e+02
211             	1.84584284e+03
212             	2.50000000e+02
213             	4.68742912e+03
214             	2.50000000e+02
215             	2.47123493e+03
216             	2.45980688e+03
217             	6.00000000e+03
