# Region        : cellZone component_2
# Cells         : 125
# Volume        : 2.66461367e-01
# Time          	volAverage(T)
1               	3.00390116e+02
2               	3.00772059e+02
3               	3.01085367e+02
4               	3.01352188e+02
5               	3.01601329e+02
6               	3.01840446e+02
7               	3.02071772e+02
8               	3.02290620e+02
9               	3.02499989e+02
10              	3.02703281e+02
11              	3.02901931e+02
12              	3.03097283e+02
13              	3.03287555e+02
14              	3.03472365e+02
15              	3.03661731e+02
16              	3.03846586e+02
17              	3.04026856e+02
18              	3.04205815e+02
19              	3.04383263e+02
20              	3.04561345e+02
21              	3.04731595e+02
22              	3.04890493e+02
23              	3.05041992e+02
24              	3.05180688e+02
25              	3.05310846e+02
26              	3.05424855e+02
27              	3.05527513e+02
28              	3.05621573e+02
29              	3.05710640e+02
30              	3.05800594e+02
31              	3.05894818e+02
32              	3.05994296e+02
33              	3.06085544e+02
34              	3.06172585e+02
35              	3.06246680e+02
36              	3.06318530e+02
37              	3.06387598e+02
38              	3.06452938e+02
39              	3.06516392e+02
40              	3.06577313e+02
41              	3.06641029e+02
42              	3.06704632e+02
43              	3.06769199e+02
44              	3.06833622e+02
45              	3.06895141e+02
46              	3.06953445e+02
47              	3.07006612e+02
48              	3.07054980e+02
49              	3.07099046e+02
50              	3.07142399e+02
51              	3.07188777e+02
52              	3.07240186e+02
53              	3.07299719e+02
54              	3.07365082e+02
55              	3.07434562e+02
56              	3.07502842e+02
57              	3.07566719e+02
58              	3.07625971e+02
59              	3.07678235e+02
60              	3.07722950e+02
61              	3.07758932e+02
62              	3.07789349e+02
63              	3.07813387e+02
64              	3.07836370e+02
65              	3.07859142e+02
66              	3.07883647e+02
67              	3.07907604e+02
68              	3.07930027e+02
69              	3.07950714e+02
70              	3.07971041e+02
71              	3.07992246e+02
72              	3.08015057e+02
73              	3.08038814e+02
74              	3.08063732e+02
75              	3.08089133e+02
76              	3.08113966e+02
77              	3.08137940e+02
78              	3.08160641e+02
79              	3.08181990e+02
80              	3.08198581e+02
81              	3.08210066e+02
82              	3.08217363e+02
83              	3.08223702e+02
84              	3.08229787e+02
85              	3.08235847e+02
86              	3.08242818e+02
87              	3.08250894e+02
88              	3.08259818e+02
89              	3.08270492e+02
90              	3.08282282e+02
91              	3.08294550e+02
92              	3.08307738e+02
93              	3.08322129e+02
94              	3.08338186e+02
95              	3.08356312e+02
96              	3.08376684e+02
97              	3.08398094e+02
98              	3.08418922e+02
99              	3.08437140e+02
100             	3.08452159e+02
101             	3.08464807e+02
102             	3.08475331e+02
103             	3.08483148e+02
104             	3.08487990e+02
105             	3.08491400e+02
106             	3.08495105e+02
107             	3.08500183e+02
108             	3.08507090e+02
109             	3.08516506e+02
110             	3.08528089e+02
111             	3.08541542e+02
112             	3.08556154e+02
113             	3.08572227e+02
114             	3.08586830e+02
115             	3.08600855e+02
116             	3.08612914e+02
117             	3.08622788e+02
118             	3.08630605e+02
119             	3.08637394e+02
120             	3.08643686e+02
121             	3.08649303e+02
122             	3.08654858e+02
123             	3.08660193e+02
124             	3.08665062e+02
125             	3.08669001e+02
126             	3.08671673e+02
127             	3.08673725e+02
128             	3.08675561e+02
129             	3.08677861e+02
130             	3.08681098e+02
131             	3.08686426e+02
132             	3.08693329e+02
133             	3.08701341e+02
134             	3.08710119e+02
135             	3.08719090e+02
136             	3.08728306e+02
137             	3.08737219e+02
138             	3.08746141e+02
139             	3.08754637e+02
140             	3.08761686e+02
141             	3.08767127e+02
142             	3.08771412e+02
143             	3.08775032e+02
144             	3.08778207e+02
145             	3.08781432e+02
146             	3.08784824e+02
147             	3.08788279e+02
148             	3.08791406e+02
149             	3.08794103e+02
150             	3.08796574e+02
151             	3.08799211e+02
152             	3.08802177e+02
153             	3.08805754e+02
154             	3.08810174e+02
155             	3.08815513e+02
156             	3.08821429e+02
157             	3.08827667e+02
158             	3.08834095e+02
159             	3.08840446e+02
160             	3.08845787e+02
161             	3.08850479e+02
162             	3.08854625e+02
163             	3.08858121e+02
164             	3.08861017e+02
165             	3.08863496e+02
166             	3.08865533e+02
167             	3.08867045e+02
168             	3.08868336e+02
169             	3.08870235e+02
170             	3.08872802e+02
171             	3.08875806e+02
172             	3.08879146e+02
173             	3.08882859e+02
174             	3.08886505e+02
175             	3.08890051e+02
176             	3.08893140e+02
177             	3.08895755e+02
178             	3.08898035e+02
179             	3.08899989e+02
180             	3.08901567e+02
181             	3.08902713e+02
182             	3.08904041e+02
183             	3.08905451e+02
184             	3.08906952e+02
185             	3.08908631e+02
186             	3.08910337e+02
187             	3.08912188e+02
188             	3.08914307e+02
189             	3.08916777e+02
190             	3.08919517e+02
191             	3.08922385e+02
192             	3.08925532e+02
193             	3.08928858e+02
194             	3.08932176e+02
195             	3.08935461e+02
196             	3.08938715e+02
197             	3.08941762e+02
198             	3.08944677e+02
199             	3.08947561e+02
200             	3.08950405e+02
201             	3.08953064e+02
202             	3.08955683e+02
203             	3.08958137e+02
204             	3.08960466e+02
205             	3.08962596e+02
206             	3.08964453e+02
207             	3.08966028e+02
208             	3.08967494e+02
209             	3.08968966e+02
210             	3.08970546e+02
211             	3.08972180e+02
212             	3.08973875e+02
213             	3.08975631e+02
214             	3.08977419e+02
215             	3.08979260e+02
216             	3.08981120e+02
217             	3.08982983e+02
218             	3.08984791e+02
219             	3.08986669e+02
220             	3.08988610e+02
221             	3.08990595e+02
222             	3.08992595e+02
223             	3.08994598e+02
224             	3.08996603e+02
225             	3.08998505e+02
226             	3.09000164e+02
227             	3.09001571e+02
228             	3.09002822e+02
229             	3.09003981e+02
230             	3.09005046e+02
231             	3.09005974e+02
232             	3.09006725e+02
233             	3.09007355e+02
234             	3.09007890e+02
235             	3.09008319e+02
236             	3.09008834e+02
237             	3.09009490e+02
238             	3.09010280e+02
239             	3.09011152e+02
240             	3.09012151e+02
241             	3.09013309e+02
242             	3.09014616e+02
243             	3.09015861e+02
244             	3.09016950e+02
245             	3.09018010e+02
246             	3.09018972e+02
247             	3.09019716e+02
248             	3.09020318e+02
249             	3.09020852e+02
250             	3.09021477e+02
251             	3.09022146e+02
252             	3.09022872e+02
253             	3.09023765e+02
254             	3.09024883e+02
255             	3.09026028e+02
256             	3.09027254e+02
257             	3.09028370e+02
258             	3.09029246e+02
259             	3.09029980e+02
260             	3.09030531e+02
261             	3.09030844e+02
262             	3.09031141e+02
263             	3.09031551e+02
264             	3.09031976e+02
265             	3.09032428e+02
266             	3.09033004e+02
267             	3.09033737e+02
268             	3.09034630e+02
269             	3.09035539e+02
270             	3.09036280e+02
271             	3.09036860e+02
272             	3.09037292e+02
273             	3.09037455e+02
274             	3.09037453e+02
275             	3.09037428e+02
276             	3.09037592e+02
277             	3.09037911e+02
278             	3.09038450e+02
279             	3.09039112e+02
280             	3.09039738e+02
281             	3.09040410e+02
282             	3.09041055e+02
283             	3.09041615e+02
284             	3.09042032e+02
285             	3.09042169e+02
286             	3.09042081e+02
287             	3.09041823e+02
288             	3.09041645e+02
289             	3.09041585e+02
290             	3.09041633e+02
291             	3.09041913e+02
292             	3.09042311e+02
293             	3.09042775e+02
294             	3.09043170e+02
295             	3.09043537e+02
296             	3.09043848e+02
297             	3.09044048e+02
298             	3.09044067e+02
299             	3.09043946e+02
300             	3.09043792e+02
301             	3.09043694e+02
302             	3.09043660e+02
303             	3.09043707e+02
304             	3.09043901e+02
305             	3.09044264e+02
306             	3.09044779e+02
307             	3.09045388e+02
308             	3.09045971e+02
309             	3.09046485e+02
310             	3.09046935e+02
311             	3.09047276e+02
312             	3.09047486e+02
313             	3.09047534e+02
314             	3.09047507e+02
315             	3.09047441e+02
316             	3.09047361e+02
317             	3.09047303e+02
318             	3.09047353e+02
319             	3.09047516e+02
320             	3.09047772e+02
321             	3.09048095e+02
322             	3.09048485e+02
323             	3.09048894e+02
324             	3.09049343e+02
325             	3.09049782e+02
326             	3.09050146e+02
327             	3.09050442e+02
328             	3.09050692e+02
329             	3.09050917e+02
330             	3.09051120e+02
331             	3.09051315e+02
332             	3.09051506e+02
333             	3.09051679e+02
334             	3.09051852e+02
335             	3.09052072e+02
336             	3.09052314e+02
337             	3.09052573e+02
338             	3.09052847e+02
339             	3.09053137e+02
340             	3.09053465e+02
341             	3.09053811e+02
342             	3.09054131e+02
343             	3.09054420e+02
344             	3.09054716e+02
345             	3.09054970e+02
346             	3.09055181e+02
347             	3.09055348e+02
348             	3.09055485e+02
349             	3.09055575e+02
350             	3.09055623e+02
351             	3.09055648e+02
352             	3.09055704e+02
353             	3.09055788e+02
354             	3.09055885e+02
355             	3.09056017e+02
356             	3.09056190e+02
357             	3.09056421e+02
358             	3.09056722e+02
359             	3.09057017e+02
360             	3.09057289e+02
361             	3.09057536e+02
362             	3.09057745e+02
363             	3.09057894e+02
364             	3.09057979e+02
365             	3.09058001e+02
366             	3.09057971e+02
367             	3.09057894e+02
368             	3.09057819e+02
369             	3.09057795e+02
370             	3.09057827e+02
371             	3.09057906e+02
372             	3.09058035e+02
373             	3.09058218e+02
374             	3.09058408e+02
375             	3.09058592e+02
376             	3.09058776e+02
377             	3.09058954e+02
378             	3.09059109e+02
379             	3.09059231e+02
380             	3.09059318e+02
381             	3.09059374e+02
382             	3.09059409e+02
383             	3.09059426e+02
384             	3.09059424e+02
385             	3.09059412e+02
386             	3.09059398e+02
387             	3.09059389e+02
388             	3.09059382e+02
389             	3.09059391e+02
390             	3.09059436e+02
391             	3.09059506e+02
392             	3.09059584e+02
393             	3.09059670e+02
394             	3.09059761e+02
395             	3.09059860e+02
396             	3.09059977e+02
397             	3.09060101e+02
398             	3.09060202e+02
399             	3.09060279e+02
400             	3.09060340e+02
401             	3.09060382e+02
402             	3.09060405e+02
403             	3.09060417e+02
404             	3.09060461e+02
405             	3.09060527e+02
406             	3.09060611e+02
407             	3.09060714e+02
408             	3.09060829e+02
409             	3.09060935e+02
410             	3.09061031e+02
411             	3.09061114e+02
412             	3.09061192e+02
413             	3.09061253e+02
414             	3.09061293e+02
415             	3.09061312e+02
416             	3.09061318e+02
417             	3.09061311e+02
418             	3.09061304e+02
419             	3.09061306e+02
420             	3.09061322e+02
421             	3.09061349e+02
422             	3.09061386e+02
423             	3.09061432e+02
424             	3.09061484e+02
425             	3.09061543e+02
426             	3.09061606e+02
427             	3.09061669e+02
428             	3.09061729e+02
429             	3.09061789e+02
430             	3.09061850e+02
431             	3.09061918e+02
432             	3.09061983e+02
433             	3.09062036e+02
434             	3.09062077e+02
435             	3.09062110e+02
436             	3.09062131e+02
437             	3.09062142e+02
438             	3.09062145e+02
439             	3.09062141e+02
440             	3.09062141e+02
441             	3.09062149e+02
442             	3.09062167e+02
443             	3.09062196e+02
444             	3.09062236e+02
445             	3.09062280e+02
446             	3.09062325e+02
447             	3.09062373e+02
448             	3.09062418e+02
449             	3.09062456e+02
450             	3.09062486e+02
451             	3.09062509e+02
452             	3.09062522e+02
453             	3.09062527e+02
454             	3.09062526e+02
455             	3.09062524e+02
456             	3.09062523e+02
457             	3.09062524e+02
458             	3.09062530e+02
459             	3.09062539e+02
460             	3.09062551e+02
461             	3.09062569e+02
462             	3.09062590e+02
463             	3.09062613e+02
464             	3.09062638e+02
465             	3.09062666e+02
466             	3.09062696e+02
467             	3.09062729e+02
468             	3.09062766e+02
469             	3.09062804e+02
470             	3.09062842e+02
471             	3.09062879e+02
472             	3.09062908e+02
473             	3.09062927e+02
474             	3.09062938e+02
475             	3.09062944e+02
476             	3.09062946e+02
477             	3.09062945e+02
478             	3.09062944e+02
479             	3.09062944e+02
480             	3.09062945e+02
481             	3.09062950e+02
482             	3.09062963e+02
483             	3.09062979e+02
484             	3.09063000e+02
485             	3.09063025e+02
486             	3.09063056e+02
487             	3.09063087e+02
488             	3.09063116e+02
489             	3.09063141e+02
490             	3.09063162e+02
491             	3.09063179e+02
492             	3.09063192e+02
493             	3.09063203e+02
494             	3.09063212e+02
495             	3.09063222e+02
496             	3.09063237e+02
497             	3.09063257e+02
498             	3.09063281e+02
499             	3.09063306e+02
500             	3.09063334e+02
501             	3.09063362e+02
502             	3.09063393e+02
503             	3.09063423e+02
504             	3.09063452e+02
505             	3.09063476e+02
506             	3.09063498e+02
507             	3.09063515e+02
508             	3.09063526e+02
509             	3.09063532e+02
510             	3.09063533e+02
511             	3.09063531e+02
512             	3.09063530e+02
513             	3.09063530e+02
514             	3.09063531e+02
515             	3.09063536e+02
516             	3.09063545e+02
517             	3.09063558e+02
518             	3.09063573e+02
519             	3.09063588e+02
520             	3.09063603e+02
521             	3.09063617e+02
522             	3.09063630e+02
523             	3.09063642e+02
524             	3.09063652e+02
525             	3.09063661e+02
526             	3.09063669e+02
527             	3.09063675e+02
528             	3.09063681e+02
529             	3.09063689e+02
530             	3.09063699e+02
531             	3.09063711e+02
532             	3.09063724e+02
533             	3.09063737e+02
534             	3.09063752e+02
535             	3.09063766e+02
536             	3.09063782e+02
537             	3.09063799e+02
538             	3.09063813e+02
539             	3.09063826e+02
540             	3.09063838e+02
541             	3.09063852e+02
542             	3.09063862e+02
543             	3.09063872e+02
544             	3.09063878e+02
545             	3.09063882e+02
546             	3.09063886e+02
547             	3.09063894e+02
548             	3.09063903e+02
549             	3.09063912e+02
550             	3.09063921e+02
551             	3.09063929e+02
552             	3.09063936e+02
553             	3.09063941e+02
554             	3.09063945e+02
555             	3.09063948e+02
556             	3.09063950e+02
557             	3.09063952e+02
558             	3.09063954e+02
559             	3.09063955e+02
560             	3.09063955e+02
561             	3.09063956e+02
562             	3.09063959e+02
563             	3.09063962e+02
564             	3.09063968e+02
565             	3.09063975e+02
566             	3.09063982e+02
567             	3.09063989e+02
568             	3.09063996e+02
569             	3.09064002e+02
570             	3.09064007e+02
571             	3.09064011e+02
572             	3.09064015e+02
573             	3.09064018e+02
574             	3.09064018e+02
575             	3.09064018e+02
576             	3.09064016e+02
577             	3.09064015e+02
578             	3.09064016e+02
579             	3.09064018e+02
580             	3.09064021e+02
581             	3.09064026e+02
582             	3.09064033e+02
583             	3.09064040e+02
584             	3.09064046e+02
585             	3.09064050e+02
586             	3.09064054e+02
587             	3.09064056e+02
588             	3.09064057e+02
589             	3.09064056e+02
590             	3.09064056e+02
591             	3.09064055e+02
592             	3.09064054e+02
593             	3.09064055e+02
594             	3.09064057e+02
595             	3.09064061e+02
596             	3.09064066e+02
597             	3.09064074e+02
598             	3.09064084e+02
599             	3.09064096e+02
600             	3.09064108e+02
601             	3.09064121e+02
602             	3.09064136e+02
603             	3.09064151e+02
604             	3.09064165e+02
605             	3.09064177e+02
606             	3.09064186e+02
607             	3.09064193e+02
608             	3.09064197e+02
609             	3.09064198e+02
610             	3.09064197e+02
611             	3.09064193e+02
612             	3.09064187e+02
613             	3.09064181e+02
614             	3.09064173e+02
615             	3.09064166e+02
616             	3.09064158e+02
617             	3.09064152e+02
618             	3.09064147e+02
619             	3.09064143e+02
620             	3.09064140e+02
621             	3.09064138e+02
