# Region        : cellZone component_0
# Cells         : 114
# Volume        : 2.02547976e-01
# Time          	volAverage(T)
1               	3.00763968e+02
2               	3.01518414e+02
3               	3.02241529e+02
4               	3.02946646e+02
5               	3.03641866e+02
6               	3.04330266e+02
7               	3.05014167e+02
8               	3.05694852e+02
9               	3.06374605e+02
10              	3.07051393e+02
11              	3.07722384e+02
12              	3.08385956e+02
13              	3.09038915e+02
14              	3.09686000e+02
15              	3.10324650e+02
16              	3.10966899e+02
17              	3.11606194e+02
18              	3.12242258e+02
19              	3.12876211e+02
20              	3.13502406e+02
21              	3.14128576e+02
22              	3.14749412e+02
23              	3.15366019e+02
24              	3.15975064e+02
25              	3.16576384e+02
26              	3.17172148e+02
27              	3.17769660e+02
28              	3.18355457e+02
29              	3.18910689e+02
30              	3.19440391e+02
31              	3.19954773e+02
32              	3.20456965e+02
33              	3.20951370e+02
34              	3.21461925e+02
35              	3.21967825e+02
36              	3.22464724e+02
37              	3.22951681e+02
38              	3.23427465e+02
39              	3.23899828e+02
40              	3.24378756e+02
41              	3.24849970e+02
42              	3.25305224e+02
43              	3.25750256e+02
44              	3.26197040e+02
45              	3.26629322e+02
46              	3.27066247e+02
47              	3.27495781e+02
48              	3.27916700e+02
49              	3.28326358e+02
50              	3.28721592e+02
51              	3.29105107e+02
52              	3.29486041e+02
53              	3.29868160e+02
54              	3.30250667e+02
55              	3.30636222e+02
56              	3.31025078e+02
57              	3.31415486e+02
58              	3.31806381e+02
59              	3.32187069e+02
60              	3.32556006e+02
61              	3.32925315e+02
62              	3.33280924e+02
63              	3.33621302e+02
64              	3.33956446e+02
65              	3.34285898e+02
66              	3.34617469e+02
67              	3.34950189e+02
68              	3.35285415e+02
69              	3.35625478e+02
70              	3.35967976e+02
71              	3.36304640e+02
72              	3.36627866e+02
73              	3.36949157e+02
74              	3.37260390e+02
75              	3.37557451e+02
76              	3.37839828e+02
77              	3.38109754e+02
78              	3.38373083e+02
79              	3.38646393e+02
80              	3.38924009e+02
81              	3.39215429e+02
82              	3.39515150e+02
83              	3.39809106e+02
84              	3.40087738e+02
85              	3.40371799e+02
86              	3.40650963e+02
87              	3.40917902e+02
88              	3.41170138e+02
89              	3.41409508e+02
90              	3.41651153e+02
91              	3.41894390e+02
92              	3.42140780e+02
93              	3.42392721e+02
94              	3.42649429e+02
95              	3.42905749e+02
96              	3.43159184e+02
97              	3.43409776e+02
98              	3.43654650e+02
99              	3.43889650e+02
100             	3.44110390e+02
101             	3.44320009e+02
102             	3.44525069e+02
103             	3.44730041e+02
104             	3.44944031e+02
105             	3.45169007e+02
106             	3.45403333e+02
107             	3.45635516e+02
108             	3.45863905e+02
109             	3.46083123e+02
110             	3.46297159e+02
111             	3.46501796e+02
112             	3.46690839e+02
113             	3.46869715e+02
114             	3.47044847e+02
115             	3.47220807e+02
116             	3.47403021e+02
117             	3.47593144e+02
118             	3.47786350e+02
119             	3.47989246e+02
120             	3.48196301e+02
121             	3.48401430e+02
122             	3.48598439e+02
123             	3.48795392e+02
124             	3.48983530e+02
125             	3.49163809e+02
126             	3.49337090e+02
127             	3.49505307e+02
128             	3.49673221e+02
129             	3.49844730e+02
130             	3.50019002e+02
131             	3.50197867e+02
132             	3.50379043e+02
133             	3.50560417e+02
134             	3.50739833e+02
135             	3.50917671e+02
136             	3.51088496e+02
137             	3.51249957e+02
138             	3.51405009e+02
139             	3.51555973e+02
140             	3.51705170e+02
141             	3.51852245e+02
142             	3.51999825e+02
143             	3.52149487e+02
144             	3.52303461e+02
145             	3.52459940e+02
146             	3.52616203e+02
147             	3.52776578e+02
148             	3.52934671e+02
149             	3.53087042e+02
150             	3.53234073e+02
151             	3.53376728e+02
152             	3.53515095e+02
153             	3.53649885e+02
154             	3.53783699e+02
155             	3.53918024e+02
156             	3.54052979e+02
157             	3.54190118e+02
158             	3.54329683e+02
159             	3.54467162e+02
160             	3.54606914e+02
161             	3.54743684e+02
162             	3.54875128e+02
163             	3.55002548e+02
164             	3.55126359e+02
165             	3.55248105e+02
166             	3.55369592e+02
167             	3.55489598e+02
168             	3.55610177e+02
169             	3.55731467e+02
170             	3.55853128e+02
171             	3.55974426e+02
172             	3.56095222e+02
173             	3.56214826e+02
174             	3.56332901e+02
175             	3.56449663e+02
176             	3.56564311e+02
177             	3.56679198e+02
178             	3.56793275e+02
179             	3.56905743e+02
180             	3.57017068e+02
181             	3.57126712e+02
182             	3.57234752e+02
183             	3.57340868e+02
184             	3.57444898e+02
185             	3.57546883e+02
186             	3.57648083e+02
187             	3.57748877e+02
188             	3.57849895e+02
189             	3.57951415e+02
190             	3.58052504e+02
191             	3.58154458e+02
192             	3.58256490e+02
193             	3.58358267e+02
194             	3.58459463e+02
195             	3.58558933e+02
196             	3.58656375e+02
197             	3.58751908e+02
198             	3.58845817e+02
199             	3.58939136e+02
200             	3.59031956e+02
201             	3.59124668e+02
202             	3.59217661e+02
203             	3.59309963e+02
204             	3.59402916e+02
205             	3.59495441e+02
206             	3.59586662e+02
207             	3.59675909e+02
208             	3.59763215e+02
209             	3.59849074e+02
210             	3.59932485e+02
211             	3.60015828e+02
212             	3.60098172e+02
213             	3.60181167e+02
214             	3.60265506e+02
215             	3.60350974e+02
216             	3.60436123e+02
217             	3.60521798e+02
218             	3.60606924e+02
219             	3.60690197e+02
220             	3.60772257e+02
221             	3.60852870e+02
222             	3.60930931e+02
223             	3.61008503e+02
224             	3.61084336e+02
225             	3.61159049e+02
226             	3.61234021e+02
227             	3.61308412e+02
228             	3.61382596e+02
229             	3.61456948e+02
230             	3.61531127e+02
231             	3.61605549e+02
232             	3.61679997e+02
233             	3.61753957e+02
234             	3.61827573e+02
235             	3.61901330e+02
236             	3.61974203e+02
237             	3.62046471e+02
238             	3.62118104e+02
239             	3.62188778e+02
240             	3.62258877e+02
241             	3.62328345e+02
242             	3.62396890e+02
243             	3.62464964e+02
244             	3.62532030e+02
245             	3.62598489e+02
246             	3.62664950e+02
247             	3.62730889e+02
248             	3.62796261e+02
249             	3.62861096e+02
250             	3.62925407e+02
251             	3.62989218e+02
252             	3.63052542e+02
253             	3.63115386e+02
254             	3.63177751e+02
255             	3.63239644e+02
256             	3.63301069e+02
257             	3.63362027e+02
258             	3.63422517e+02
259             	3.63482522e+02
260             	3.63542042e+02
261             	3.63601071e+02
262             	3.63659597e+02
263             	3.63717611e+02
264             	3.63775124e+02
265             	3.63832141e+02
266             	3.63888669e+02
267             	3.63944748e+02
268             	3.64000411e+02
269             	3.64055676e+02
270             	3.64110553e+02
271             	3.64165052e+02
272             	3.64219171e+02
273             	3.64272905e+02
274             	3.64326246e+02
275             	3.64379187e+02
276             	3.64431722e+02
277             	3.64483824e+02
278             	3.64535482e+02
279             	3.64586700e+02
280             	3.64637479e+02
281             	3.64687833e+02
282             	3.64737779e+02
283             	3.64787330e+02
284             	3.64836500e+02
285             	3.64885296e+02
286             	3.64933723e+02
287             	3.64981782e+02
288             	3.65029473e+02
289             	3.65076804e+02
290             	3.65123762e+02
291             	3.65170341e+02
292             	3.65216543e+02
293             	3.65262373e+02
294             	3.65307834e+02
295             	3.65352931e+02
296             	3.65397670e+02
297             	3.65442068e+02
298             	3.65486138e+02
299             	3.65529885e+02
300             	3.65573312e+02
301             	3.65616415e+02
302             	3.65659198e+02
303             	3.65701667e+02
304             	3.65743826e+02
305             	3.65785679e+02
306             	3.65827219e+02
307             	3.65868435e+02
308             	3.65909319e+02
309             	3.65949876e+02
310             	3.65990109e+02
311             	3.66030018e+02
312             	3.66069610e+02
313             	3.66108890e+02
314             	3.66147864e+02
315             	3.66186540e+02
316             	3.66224923e+02
317             	3.66263016e+02
318             	3.66300823e+02
319             	3.66338344e+02
320             	3.66375582e+02
321             	3.66412534e+02
322             	3.66449202e+02
323             	3.66485585e+02
324             	3.66521686e+02
325             	3.66557520e+02
326             	3.66593098e+02
327             	3.66628426e+02
328             	3.66663506e+02
329             	3.66698339e+02
330             	3.66732913e+02
331             	3.66767231e+02
332             	3.66801293e+02
333             	3.66835080e+02
334             	3.66868589e+02
335             	3.66901820e+02
336             	3.66934783e+02
337             	3.66967488e+02
338             	3.66999934e+02
339             	3.67032126e+02
340             	3.67064069e+02
341             	3.67095775e+02
342             	3.67127249e+02
343             	3.67158492e+02
344             	3.67189505e+02
345             	3.67220294e+02
346             	3.67250868e+02
347             	3.67281226e+02
348             	3.67311369e+02
349             	3.67341296e+02
350             	3.67371004e+02
351             	3.67400483e+02
352             	3.67429733e+02
353             	3.67458758e+02
354             	3.67487558e+02
355             	3.67516142e+02
356             	3.67544513e+02
357             	3.67572676e+02
358             	3.67600634e+02
359             	3.67628392e+02
360             	3.67655951e+02
361             	3.67683313e+02
362             	3.67710476e+02
363             	3.67737440e+02
364             	3.67764198e+02
365             	3.67790743e+02
366             	3.67817072e+02
367             	3.67843189e+02
368             	3.67869093e+02
369             	3.67894789e+02
370             	3.67920280e+02
371             	3.67945573e+02
372             	3.67970679e+02
373             	3.67995607e+02
374             	3.68020367e+02
375             	3.68044963e+02
376             	3.68069398e+02
377             	3.68093673e+02
378             	3.68117788e+02
379             	3.68141740e+02
380             	3.68165525e+02
381             	3.68189127e+02
382             	3.68212541e+02
383             	3.68235763e+02
384             	3.68258801e+02
385             	3.68281654e+02
386             	3.68304331e+02
387             	3.68326839e+02
388             	3.68349182e+02
389             	3.68371362e+02
390             	3.68393381e+02
391             	3.68415237e+02
392             	3.68436932e+02
393             	3.68458465e+02
394             	3.68479838e+02
395             	3.68501050e+02
396             	3.68522104e+02
397             	3.68543006e+02
398             	3.68563760e+02
399             	3.68584368e+02
400             	3.68604831e+02
401             	3.68625150e+02
402             	3.68645325e+02
403             	3.68665360e+02
404             	3.68685256e+02
405             	3.68705016e+02
406             	3.68724639e+02
407             	3.68744116e+02
408             	3.68763439e+02
409             	3.68782605e+02
410             	3.68801613e+02
411             	3.68820463e+02
412             	3.68839161e+02
413             	3.68857718e+02
414             	3.68876137e+02
415             	3.68894423e+02
416             	3.68912579e+02
417             	3.68930617e+02
418             	3.68948543e+02
419             	3.68966359e+02
420             	3.68984061e+02
421             	3.69001640e+02
422             	3.69019095e+02
423             	3.69036423e+02
424             	3.69053621e+02
425             	3.69070684e+02
426             	3.69087607e+02
427             	3.69104402e+02
428             	3.69121073e+02
429             	3.69137625e+02
430             	3.69154060e+02
431             	3.69170383e+02
432             	3.69186595e+02
433             	3.69202695e+02
434             	3.69218684e+02
435             	3.69234562e+02
436             	3.69250328e+02
437             	3.69265981e+02
438             	3.69281513e+02
439             	3.69296919e+02
440             	3.69312199e+02
441             	3.69327354e+02
442             	3.69342386e+02
443             	3.69357297e+02
444             	3.69372093e+02
445             	3.69386777e+02
446             	3.69401356e+02
447             	3.69415832e+02
448             	3.69430215e+02
449             	3.69444514e+02
450             	3.69458730e+02
451             	3.69472862e+02
452             	3.69486906e+02
453             	3.69500858e+02
454             	3.69514718e+02
455             	3.69528484e+02
456             	3.69542153e+02
457             	3.69555722e+02
458             	3.69569186e+02
459             	3.69582543e+02
460             	3.69595794e+02
461             	3.69608937e+02
462             	3.69621969e+02
463             	3.69634893e+02
464             	3.69647710e+02
465             	3.69660423e+02
466             	3.69673033e+02
467             	3.69685546e+02
468             	3.69697973e+02
469             	3.69710326e+02
470             	3.69722623e+02
471             	3.69734867e+02
472             	3.69747060e+02
473             	3.69759186e+02
474             	3.69771242e+02
475             	3.69783217e+02
476             	3.69795087e+02
477             	3.69806841e+02
478             	3.69818485e+02
479             	3.69830029e+02
480             	3.69841473e+02
481             	3.69852821e+02
482             	3.69864079e+02
483             	3.69875253e+02
484             	3.69886346e+02
485             	3.69897359e+02
486             	3.69908292e+02
487             	3.69919144e+02
488             	3.69929920e+02
489             	3.69940620e+02
490             	3.69951242e+02
491             	3.69961789e+02
492             	3.69972271e+02
493             	3.69982692e+02
494             	3.69993055e+02
495             	3.70003361e+02
496             	3.70013610e+02
497             	3.70023804e+02
498             	3.70033939e+02
499             	3.70044009e+02
500             	3.70054010e+02
501             	3.70063936e+02
502             	3.70073781e+02
503             	3.70083542e+02
504             	3.70093216e+02
505             	3.70102804e+02
506             	3.70112309e+02
507             	3.70121734e+02
508             	3.70131090e+02
509             	3.70140378e+02
510             	3.70149600e+02
511             	3.70158759e+02
512             	3.70167855e+02
513             	3.70176893e+02
514             	3.70185879e+02
515             	3.70194812e+02
516             	3.70203693e+02
517             	3.70212520e+02
518             	3.70221291e+02
519             	3.70230002e+02
520             	3.70238651e+02
521             	3.70247238e+02
522             	3.70255758e+02
523             	3.70264212e+02
524             	3.70272601e+02
525             	3.70280929e+02
526             	3.70289195e+02
527             	3.70297397e+02
528             	3.70305531e+02
529             	3.70313598e+02
530             	3.70321596e+02
531             	3.70329528e+02
532             	3.70337395e+02
533             	3.70345206e+02
534             	3.70352966e+02
535             	3.70360679e+02
536             	3.70368344e+02
537             	3.70375965e+02
538             	3.70383544e+02
539             	3.70391079e+02
540             	3.70398571e+02
541             	3.70406018e+02
542             	3.70413417e+02
543             	3.70420767e+02
544             	3.70428067e+02
545             	3.70435315e+02
546             	3.70442512e+02
547             	3.70449656e+02
548             	3.70456749e+02
549             	3.70463792e+02
550             	3.70470787e+02
551             	3.70477734e+02
552             	3.70484635e+02
553             	3.70491489e+02
554             	3.70498296e+02
555             	3.70505056e+02
556             	3.70511767e+02
557             	3.70518430e+02
558             	3.70525043e+02
559             	3.70531605e+02
560             	3.70538117e+02
561             	3.70544576e+02
562             	3.70550985e+02
563             	3.70557341e+02
564             	3.70563644e+02
565             	3.70569894e+02
566             	3.70576093e+02
567             	3.70582242e+02
568             	3.70588344e+02
569             	3.70594400e+02
570             	3.70600412e+02
571             	3.70606382e+02
572             	3.70612311e+02
573             	3.70618201e+02
574             	3.70624051e+02
575             	3.70629865e+02
576             	3.70635643e+02
577             	3.70641390e+02
578             	3.70647104e+02
579             	3.70652787e+02
580             	3.70658437e+02
581             	3.70664052e+02
582             	3.70669630e+02
583             	3.70675172e+02
584             	3.70680676e+02
585             	3.70686141e+02
586             	3.70691567e+02
587             	3.70696953e+02
588             	3.70702303e+02
589             	3.70707615e+02
590             	3.70712890e+02
591             	3.70718132e+02
592             	3.70723340e+02
593             	3.70728517e+02
594             	3.70733662e+02
595             	3.70738774e+02
596             	3.70743851e+02
597             	3.70748893e+02
598             	3.70753897e+02
599             	3.70758862e+02
600             	3.70763789e+02
601             	3.70768676e+02
602             	3.70773525e+02
603             	3.70778337e+02
604             	3.70783112e+02
605             	3.70787856e+02
606             	3.70792570e+02
607             	3.70797255e+02
608             	3.70801910e+02
609             	3.70806536e+02
610             	3.70811132e+02
611             	3.70815698e+02
612             	3.70820232e+02
613             	3.70824730e+02
614             	3.70829191e+02
615             	3.70833615e+02
616             	3.70838001e+02
617             	3.70842351e+02
618             	3.70846665e+02
619             	3.70850945e+02
620             	3.70855194e+02
621             	3.70859413e+02
