# Region        : cellZone component_4
# Cells         : 146
# Volume        : 2.87118912e-01
# Time          	volAverage(T)
1               	3.00823953e+02
2               	3.01637168e+02
3               	3.02409351e+02
4               	3.03151862e+02
5               	3.03875305e+02
6               	3.04584015e+02
7               	3.05280265e+02
8               	3.05965734e+02
9               	3.06641640e+02
10              	3.07308592e+02
11              	3.07967770e+02
12              	3.08623541e+02
13              	3.09280552e+02
14              	3.09930931e+02
15              	3.10558794e+02
16              	3.11177238e+02
17              	3.11781191e+02
18              	3.12375390e+02
19              	3.12951755e+02
20              	3.13511467e+02
21              	3.14056796e+02
22              	3.14584958e+02
23              	3.15109503e+02
24              	3.15624729e+02
25              	3.16129733e+02
26              	3.16635987e+02
27              	3.17152321e+02
28              	3.17675518e+02
29              	3.18187846e+02
30              	3.18694589e+02
31              	3.19183648e+02
32              	3.19663438e+02
33              	3.20126401e+02
34              	3.20575348e+02
35              	3.21007362e+02
36              	3.21424678e+02
37              	3.21813458e+02
38              	3.22188993e+02
39              	3.22555051e+02
40              	3.22911687e+02
41              	3.23262142e+02
42              	3.23620160e+02
43              	3.23992818e+02
44              	3.24392077e+02
45              	3.24803130e+02
46              	3.25209999e+02
47              	3.25607460e+02
48              	3.25992985e+02
49              	3.26332463e+02
50              	3.26660251e+02
51              	3.26982836e+02
52              	3.27295432e+02
53              	3.27586744e+02
54              	3.27850666e+02
55              	3.28108300e+02
56              	3.28367332e+02
57              	3.28633078e+02
58              	3.28923318e+02
59              	3.29224569e+02
60              	3.29479143e+02
61              	3.29690834e+02
62              	3.29894557e+02
63              	3.30139917e+02
64              	3.30381357e+02
65              	3.30612871e+02
66              	3.30840842e+02
67              	3.31066247e+02
68              	3.31284581e+02
69              	3.31499960e+02
70              	3.31721828e+02
71              	3.31944429e+02
72              	3.32178352e+02
73              	3.32420135e+02
74              	3.32677200e+02
75              	3.32951949e+02
76              	3.33225362e+02
77              	3.33481738e+02
78              	3.33739282e+02
79              	3.33987164e+02
80              	3.34230549e+02
81              	3.34471462e+02
82              	3.34711668e+02
83              	3.34944877e+02
84              	3.35175881e+02
85              	3.35401663e+02
86              	3.35626785e+02
87              	3.35838795e+02
88              	3.36033439e+02
89              	3.36223318e+02
90              	3.36394645e+02
91              	3.36566772e+02
92              	3.36747874e+02
93              	3.36944165e+02
94              	3.37157323e+02
95              	3.37415900e+02
96              	3.37616619e+02
97              	3.37726551e+02
98              	3.37833629e+02
99              	3.37968730e+02
100             	3.38134944e+02
101             	3.38301607e+02
102             	3.38457999e+02
103             	3.38603672e+02
104             	3.38741840e+02
105             	3.38868968e+02
106             	3.39000489e+02
107             	3.39126722e+02
108             	3.39242596e+02
109             	3.39361844e+02
110             	3.39476156e+02
111             	3.39584776e+02
112             	3.39700862e+02
113             	3.39816278e+02
114             	3.39930850e+02
115             	3.40051690e+02
116             	3.40184613e+02
117             	3.40348720e+02
118             	3.40543773e+02
119             	3.40667031e+02
120             	3.40687891e+02
121             	3.40676120e+02
122             	3.40709383e+02
123             	3.40809512e+02
124             	3.40930708e+02
125             	3.41062644e+02
126             	3.41189862e+02
127             	3.41317389e+02
128             	3.41443468e+02
129             	3.41565490e+02
130             	3.41685335e+02
131             	3.41798214e+02
132             	3.41901390e+02
133             	3.42009151e+02
134             	3.42114874e+02
135             	3.42208604e+02
136             	3.42299887e+02
137             	3.42385331e+02
138             	3.42469967e+02
139             	3.42565218e+02
140             	3.42674013e+02
141             	3.42812468e+02
142             	3.42986394e+02
143             	3.43134175e+02
144             	3.43281020e+02
145             	3.43390608e+02
146             	3.43487189e+02
147             	3.43585003e+02
148             	3.43687226e+02
149             	3.43789791e+02
150             	3.43895315e+02
151             	3.43986509e+02
152             	3.44056577e+02
153             	3.44107810e+02
154             	3.44156500e+02
155             	3.44200266e+02
156             	3.44251147e+02
157             	3.44306184e+02
158             	3.44370631e+02
159             	3.44441629e+02
160             	3.44508682e+02
161             	3.44572912e+02
162             	3.44633825e+02
163             	3.44700630e+02
164             	3.44777892e+02
165             	3.44886684e+02
166             	3.45002108e+02
167             	3.45117720e+02
168             	3.45232890e+02
169             	3.45355572e+02
170             	3.45475275e+02
171             	3.45594613e+02
172             	3.45703844e+02
173             	3.45800088e+02
174             	3.45874610e+02
175             	3.45928323e+02
176             	3.45970432e+02
177             	3.45997620e+02
178             	3.46011055e+02
179             	3.46020906e+02
180             	3.46039769e+02
181             	3.46064742e+02
182             	3.46108773e+02
183             	3.46161742e+02
184             	3.46222625e+02
185             	3.46293887e+02
186             	3.46375658e+02
187             	3.46467876e+02
188             	3.46570401e+02
189             	3.46683656e+02
190             	3.46800710e+02
191             	3.46920021e+02
192             	3.47038045e+02
193             	3.47154917e+02
194             	3.47259789e+02
195             	3.47355304e+02
196             	3.47442326e+02
197             	3.47522688e+02
198             	3.47591349e+02
199             	3.47649039e+02
200             	3.47705689e+02
201             	3.47757268e+02
202             	3.47804097e+02
203             	3.47854399e+02
204             	3.47908179e+02
205             	3.47974396e+02
206             	3.48051412e+02
207             	3.48138333e+02
208             	3.48231265e+02
209             	3.48329858e+02
210             	3.48430236e+02
211             	3.48534748e+02
212             	3.48636141e+02
213             	3.48734118e+02
214             	3.48826691e+02
215             	3.48913826e+02
216             	3.48991956e+02
217             	3.49066769e+02
218             	3.49137833e+02
219             	3.49211697e+02
220             	3.49288547e+02
221             	3.49365363e+02
222             	3.49448986e+02
223             	3.49536790e+02
224             	3.49633348e+02
225             	3.49735833e+02
226             	3.49840824e+02
227             	3.49951192e+02
228             	3.50061856e+02
229             	3.50173815e+02
230             	3.50284124e+02
231             	3.50392566e+02
232             	3.50494021e+02
233             	3.50585751e+02
234             	3.50672906e+02
235             	3.50752637e+02
236             	3.50824982e+02
237             	3.50893087e+02
238             	3.50960453e+02
239             	3.51029797e+02
240             	3.51102123e+02
241             	3.51180245e+02
242             	3.51262691e+02
243             	3.51348243e+02
244             	3.51435545e+02
245             	3.51524069e+02
246             	3.51612095e+02
247             	3.51696177e+02
248             	3.51777825e+02
249             	3.51859029e+02
250             	3.51939281e+02
251             	3.52017019e+02
252             	3.52092677e+02
253             	3.52165752e+02
254             	3.52234687e+02
255             	3.52300413e+02
256             	3.52362704e+02
257             	3.52423375e+02
258             	3.52483774e+02
259             	3.52542246e+02
260             	3.52603435e+02
261             	3.52667488e+02
262             	3.52735235e+02
263             	3.52805813e+02
264             	3.52881434e+02
265             	3.52961046e+02
266             	3.53043575e+02
267             	3.53128953e+02
268             	3.53218208e+02
269             	3.53304605e+02
270             	3.53394105e+02
271             	3.53484315e+02
272             	3.53572938e+02
273             	3.53663052e+02
274             	3.53752638e+02
275             	3.53839451e+02
276             	3.53919942e+02
277             	3.53996047e+02
278             	3.54067466e+02
279             	3.54134716e+02
280             	3.54199934e+02
281             	3.54260163e+02
282             	3.54317115e+02
283             	3.54372864e+02
284             	3.54429844e+02
285             	3.54487930e+02
286             	3.54550698e+02
287             	3.54615408e+02
288             	3.54683602e+02
289             	3.54754833e+02
290             	3.54826064e+02
291             	3.54899888e+02
292             	3.54977273e+02
293             	3.55057845e+02
294             	3.55138999e+02
295             	3.55220444e+02
296             	3.55296743e+02
297             	3.55369677e+02
298             	3.55439768e+02
299             	3.55502563e+02
300             	3.55561148e+02
301             	3.55615600e+02
302             	3.55667169e+02
303             	3.55716596e+02
304             	3.55765184e+02
305             	3.55813796e+02
306             	3.55863471e+02
307             	3.55911777e+02
308             	3.55957872e+02
309             	3.56005746e+02
310             	3.56057574e+02
311             	3.56107010e+02
312             	3.56158366e+02
313             	3.56212353e+02
314             	3.56268884e+02
315             	3.56328073e+02
316             	3.56390127e+02
317             	3.56451227e+02
318             	3.56513792e+02
319             	3.56576801e+02
320             	3.56638654e+02
321             	3.56698885e+02
322             	3.56757908e+02
323             	3.56814274e+02
324             	3.56866925e+02
325             	3.56913682e+02
326             	3.56954842e+02
327             	3.56990895e+02
328             	3.57022974e+02
329             	3.57052975e+02
330             	3.57082139e+02
331             	3.57110507e+02
332             	3.57140805e+02
333             	3.57173464e+02
334             	3.57208573e+02
335             	3.57248054e+02
336             	3.57291592e+02
337             	3.57338274e+02
338             	3.57386829e+02
339             	3.57437163e+02
340             	3.57487739e+02
341             	3.57538725e+02
342             	3.57589806e+02
343             	3.57641367e+02
344             	3.57691958e+02
345             	3.57740609e+02
346             	3.57786374e+02
347             	3.57828195e+02
348             	3.57866113e+02
349             	3.57899900e+02
350             	3.57931051e+02
351             	3.57960992e+02
352             	3.57991050e+02
353             	3.58020167e+02
354             	3.58050661e+02
355             	3.58081617e+02
356             	3.58115050e+02
357             	3.58151258e+02
358             	3.58190503e+02
359             	3.58227524e+02
360             	3.58263712e+02
361             	3.58301230e+02
362             	3.58340233e+02
363             	3.58378046e+02
364             	3.58413790e+02
365             	3.58447510e+02
366             	3.58478410e+02
367             	3.58506705e+02
368             	3.58532762e+02
369             	3.58556638e+02
370             	3.58579772e+02
371             	3.58601290e+02
372             	3.58621259e+02
373             	3.58640457e+02
374             	3.58659421e+02
375             	3.58679015e+02
376             	3.58699665e+02
377             	3.58720898e+02
378             	3.58742084e+02
379             	3.58763645e+02
380             	3.58785970e+02
381             	3.58809324e+02
382             	3.58833506e+02
383             	3.58858682e+02
384             	3.58884624e+02
385             	3.58910640e+02
386             	3.58937444e+02
387             	3.58964938e+02
388             	3.58993948e+02
389             	3.59023870e+02
390             	3.59054195e+02
391             	3.59084608e+02
392             	3.59114402e+02
393             	3.59142871e+02
394             	3.59169104e+02
395             	3.59192432e+02
396             	3.59213216e+02
397             	3.59231586e+02
398             	3.59247796e+02
399             	3.59262333e+02
400             	3.59275813e+02
401             	3.59288662e+02
402             	3.59301727e+02
403             	3.59315781e+02
404             	3.59331477e+02
405             	3.59349163e+02
406             	3.59368557e+02
407             	3.59389973e+02
408             	3.59413123e+02
409             	3.59437075e+02
410             	3.59462202e+02
411             	3.59489332e+02
412             	3.59517028e+02
413             	3.59545518e+02
414             	3.59573995e+02
415             	3.59602229e+02
416             	3.59630389e+02
417             	3.59658221e+02
418             	3.59686274e+02
419             	3.59714683e+02
420             	3.59743094e+02
421             	3.59771638e+02
422             	3.59800557e+02
423             	3.59828917e+02
424             	3.59857186e+02
425             	3.59885321e+02
426             	3.59912925e+02
427             	3.59939466e+02
428             	3.59964225e+02
429             	3.59987540e+02
430             	3.60009134e+02
431             	3.60028884e+02
432             	3.60047185e+02
433             	3.60063817e+02
434             	3.60079945e+02
435             	3.60095982e+02
436             	3.60112626e+02
437             	3.60130066e+02
438             	3.60148410e+02
439             	3.60168041e+02
440             	3.60188590e+02
441             	3.60209828e+02
442             	3.60231419e+02
443             	3.60252948e+02
444             	3.60275362e+02
445             	3.60296835e+02
446             	3.60319341e+02
447             	3.60342512e+02
448             	3.60365270e+02
449             	3.60387534e+02
450             	3.60410114e+02
451             	3.60432893e+02
452             	3.60455524e+02
453             	3.60477918e+02
454             	3.60499529e+02
455             	3.60521145e+02
456             	3.60542110e+02
457             	3.60561734e+02
458             	3.60581087e+02
459             	3.60600075e+02
460             	3.60618450e+02
461             	3.60635954e+02
462             	3.60652458e+02
463             	3.60668484e+02
464             	3.60684366e+02
465             	3.60699940e+02
466             	3.60715106e+02
467             	3.60730060e+02
468             	3.60745040e+02
469             	3.60759885e+02
470             	3.60774955e+02
471             	3.60789935e+02
472             	3.60805096e+02
473             	3.60820532e+02
474             	3.60836402e+02
475             	3.60852919e+02
476             	3.60869409e+02
477             	3.60886111e+02
478             	3.60903006e+02
479             	3.60920241e+02
480             	3.60938112e+02
481             	3.60955966e+02
482             	3.60974219e+02
483             	3.60992408e+02
484             	3.61010422e+02
485             	3.61028118e+02
486             	3.61045459e+02
487             	3.61062236e+02
488             	3.61078203e+02
489             	3.61093617e+02
490             	3.61108209e+02
491             	3.61122381e+02
492             	3.61136308e+02
493             	3.61149772e+02
494             	3.61162632e+02
495             	3.61175472e+02
496             	3.61188083e+02
497             	3.61200293e+02
498             	3.61212240e+02
499             	3.61224100e+02
500             	3.61236035e+02
501             	3.61248088e+02
502             	3.61260608e+02
503             	3.61273157e+02
504             	3.61285818e+02
505             	3.61298535e+02
506             	3.61311061e+02
507             	3.61323333e+02
508             	3.61335397e+02
509             	3.61347811e+02
510             	3.61360187e+02
511             	3.61372859e+02
512             	3.61386105e+02
513             	3.61399731e+02
514             	3.61413436e+02
515             	3.61427503e+02
516             	3.61441654e+02
517             	3.61455867e+02
518             	3.61469988e+02
519             	3.61484020e+02
520             	3.61497757e+02
521             	3.61511340e+02
522             	3.61524832e+02
523             	3.61538202e+02
524             	3.61551566e+02
525             	3.61564636e+02
526             	3.61577062e+02
527             	3.61589379e+02
528             	3.61601292e+02
529             	3.61613233e+02
530             	3.61625072e+02
531             	3.61636703e+02
532             	3.61647990e+02
533             	3.61658903e+02
534             	3.61669482e+02
535             	3.61679741e+02
536             	3.61689672e+02
537             	3.61699285e+02
538             	3.61708636e+02
539             	3.61718065e+02
540             	3.61727347e+02
541             	3.61736604e+02
542             	3.61745982e+02
543             	3.61755713e+02
544             	3.61765715e+02
545             	3.61776053e+02
546             	3.61786660e+02
547             	3.61797700e+02
548             	3.61808806e+02
549             	3.61819923e+02
550             	3.61831061e+02
551             	3.61842391e+02
552             	3.61853706e+02
553             	3.61865082e+02
554             	3.61876503e+02
555             	3.61887752e+02
556             	3.61898828e+02
557             	3.61909763e+02
558             	3.61920438e+02
559             	3.61930864e+02
560             	3.61941063e+02
561             	3.61950919e+02
562             	3.61960397e+02
563             	3.61969596e+02
564             	3.61978671e+02
565             	3.61987459e+02
566             	3.61995840e+02
567             	3.62004031e+02
568             	3.62011902e+02
569             	3.62019353e+02
570             	3.62026518e+02
571             	3.62033545e+02
572             	3.62040467e+02
573             	3.62047273e+02
574             	3.62054039e+02
575             	3.62060942e+02
576             	3.62067960e+02
577             	3.62075201e+02
578             	3.62082596e+02
579             	3.62090086e+02
580             	3.62097548e+02
581             	3.62105031e+02
582             	3.62112560e+02
583             	3.62120360e+02
584             	3.62128339e+02
585             	3.62136378e+02
586             	3.62144356e+02
587             	3.62152175e+02
588             	3.62159818e+02
589             	3.62167502e+02
590             	3.62175170e+02
591             	3.62182821e+02
592             	3.62190413e+02
593             	3.62198164e+02
594             	3.62206032e+02
595             	3.62213867e+02
596             	3.62221637e+02
597             	3.62229269e+02
598             	3.62236813e+02
599             	3.62244211e+02
600             	3.62251382e+02
601             	3.62258259e+02
602             	3.62265007e+02
603             	3.62271531e+02
604             	3.62277784e+02
605             	3.62283982e+02
606             	3.62290017e+02
607             	3.62295877e+02
608             	3.62301578e+02
609             	3.62307173e+02
610             	3.62312674e+02
611             	3.62317973e+02
612             	3.62323002e+02
613             	3.62327985e+02
614             	3.62333177e+02
615             	3.62338463e+02
616             	3.62343625e+02
617             	3.62348884e+02
618             	3.62354118e+02
619             	3.62359418e+02
620             	3.62364655e+02
621             	3.62369780e+02
