# Region        : cellZone component_0
# Cells         : 173
# Volume        : 3.68614336e-01
# Time          	volAverage(T)
1               	3.00283764e+02
2               	3.00564257e+02
3               	3.00830121e+02
4               	3.01086535e+02
5               	3.01337660e+02
6               	3.01584756e+02
7               	3.01828420e+02
8               	3.02069417e+02
9               	3.02308072e+02
10              	3.02544835e+02
11              	3.02780232e+02
12              	3.03014419e+02
13              	3.03246974e+02
14              	3.03477686e+02
15              	3.03705637e+02
16              	3.03932470e+02
17              	3.04158437e+02
18              	3.04383426e+02
19              	3.04606768e+02
20              	3.04828639e+02
21              	3.05048615e+02
22              	3.05266520e+02
23              	3.05482151e+02
24              	3.05695520e+02
25              	3.05906693e+02
26              	3.06115924e+02
27              	3.06323053e+02
28              	3.06528311e+02
29              	3.06731778e+02
30              	3.06933464e+02
31              	3.07133857e+02
32              	3.07333565e+02
33              	3.07531934e+02
34              	3.07728184e+02
35              	3.07921631e+02
36              	3.08111757e+02
37              	3.08298418e+02
38              	3.08481247e+02
39              	3.08660435e+02
40              	3.08835911e+02
41              	3.09008818e+02
42              	3.09179143e+02
43              	3.09347951e+02
44              	3.09515328e+02
45              	3.09681011e+02
46              	3.09845210e+02
47              	3.10006499e+02
48              	3.10163825e+02
49              	3.10317436e+02
50              	3.10466098e+02
51              	3.10609852e+02
52              	3.10749153e+02
53              	3.10885193e+02
54              	3.11017457e+02
55              	3.11149170e+02
56              	3.11280466e+02
57              	3.11412953e+02
58              	3.11547265e+02
59              	3.11675746e+02
60              	3.11799550e+02
61              	3.11918040e+02
62              	3.12029435e+02
63              	3.12137013e+02
64              	3.12240812e+02
65              	3.12342809e+02
66              	3.12442155e+02
67              	3.12543182e+02
68              	3.12644739e+02
69              	3.12748947e+02
70              	3.12852727e+02
71              	3.12953721e+02
72              	3.13051488e+02
73              	3.13144986e+02
74              	3.13234195e+02
75              	3.13317440e+02
76              	3.13396502e+02
77              	3.13471791e+02
78              	3.13545060e+02
79              	3.13616459e+02
80              	3.13687652e+02
81              	3.13760463e+02
82              	3.13835183e+02
83              	3.13911831e+02
84              	3.13988044e+02
85              	3.14064515e+02
86              	3.14137768e+02
87              	3.14207473e+02
88              	3.14274829e+02
89              	3.14338486e+02
90              	3.14398577e+02
91              	3.14457228e+02
92              	3.14514397e+02
93              	3.14571303e+02
94              	3.14628347e+02
95              	3.14686080e+02
96              	3.14745199e+02
97              	3.14805121e+02
98              	3.14865196e+02
99              	3.14924359e+02
100             	3.14981326e+02
101             	3.15035511e+02
102             	3.15086730e+02
103             	3.15134572e+02
104             	3.15179705e+02
105             	3.15222893e+02
106             	3.15264524e+02
107             	3.15305212e+02
108             	3.15346391e+02
109             	3.15389047e+02
110             	3.15432844e+02
111             	3.15477470e+02
112             	3.15521403e+02
113             	3.15564537e+02
114             	3.15605877e+02
115             	3.15645193e+02
116             	3.15681907e+02
117             	3.15716860e+02
118             	3.15749684e+02
119             	3.15781710e+02
120             	3.15812725e+02
121             	3.15843087e+02
122             	3.15873486e+02
123             	3.15903960e+02
124             	3.15935456e+02
125             	3.15967539e+02
126             	3.16000464e+02
127             	3.16033525e+02
128             	3.16065951e+02
129             	3.16097193e+02
130             	3.16126995e+02
131             	3.16154079e+02
132             	3.16178773e+02
133             	3.16202302e+02
134             	3.16225335e+02
135             	3.16248322e+02
136             	3.16272147e+02
137             	3.16296462e+02
138             	3.16321575e+02
139             	3.16346608e+02
140             	3.16371373e+02
141             	3.16395168e+02
142             	3.16417605e+02
143             	3.16438623e+02
144             	3.16457814e+02
145             	3.16475935e+02
146             	3.16492967e+02
147             	3.16509840e+02
148             	3.16527002e+02
149             	3.16544173e+02
150             	3.16561969e+02
151             	3.16580062e+02
152             	3.16598067e+02
153             	3.16615844e+02
154             	3.16633286e+02
155             	3.16650243e+02
156             	3.16666807e+02
157             	3.16682541e+02
158             	3.16697377e+02
159             	3.16710891e+02
160             	3.16723148e+02
161             	3.16734689e+02
162             	3.16745588e+02
163             	3.16756721e+02
164             	3.16768460e+02
165             	3.16780843e+02
166             	3.16794069e+02
167             	3.16807725e+02
168             	3.16821588e+02
169             	3.16834753e+02
170             	3.16846877e+02
171             	3.16857668e+02
172             	3.16867169e+02
173             	3.16875458e+02
174             	3.16882829e+02
175             	3.16889912e+02
176             	3.16896993e+02
177             	3.16904545e+02
178             	3.16912580e+02
179             	3.16921191e+02
180             	3.16930497e+02
181             	3.16940269e+02
182             	3.16950312e+02
183             	3.16960191e+02
184             	3.16969359e+02
185             	3.16977638e+02
186             	3.16984772e+02
187             	3.16990809e+02
188             	3.16995952e+02
189             	3.17000400e+02
190             	3.17004409e+02
191             	3.17008236e+02
192             	3.17012319e+02
193             	3.17017071e+02
194             	3.17022777e+02
195             	3.17029588e+02
196             	3.17037144e+02
197             	3.17045129e+02
198             	3.17052811e+02
199             	3.17059967e+02
200             	3.17066069e+02
201             	3.17070888e+02
202             	3.17074433e+02
203             	3.17077359e+02
204             	3.17080130e+02
205             	3.17083227e+02
206             	3.17086773e+02
207             	3.17090948e+02
208             	3.17095844e+02
209             	3.17101245e+02
210             	3.17107068e+02
211             	3.17112924e+02
212             	3.17118282e+02
213             	3.17123062e+02
214             	3.17126900e+02
215             	3.17129778e+02
216             	3.17131530e+02
217             	3.17132578e+02
218             	3.17133317e+02
219             	3.17134184e+02
220             	3.17135620e+02
221             	3.17137871e+02
222             	3.17141082e+02
223             	3.17145306e+02
224             	3.17150400e+02
225             	3.17155966e+02
226             	3.17161638e+02
227             	3.17166965e+02
228             	3.17171506e+02
229             	3.17174862e+02
230             	3.17176707e+02
231             	3.17177293e+02
232             	3.17176972e+02
233             	3.17176413e+02
234             	3.17176193e+02
235             	3.17176814e+02
236             	3.17178524e+02
237             	3.17181237e+02
238             	3.17184834e+02
239             	3.17188932e+02
240             	3.17193059e+02
241             	3.17196766e+02
242             	3.17199667e+02
243             	3.17201701e+02
244             	3.17202778e+02
245             	3.17203211e+02
246             	3.17203280e+02
247             	3.17203401e+02
248             	3.17203792e+02
249             	3.17204672e+02
250             	3.17206013e+02
251             	3.17207823e+02
252             	3.17209854e+02
253             	3.17211977e+02
254             	3.17214014e+02
255             	3.17215956e+02
256             	3.17217785e+02
257             	3.17219483e+02
258             	3.17221144e+02
259             	3.17222841e+02
260             	3.17224676e+02
261             	3.17226664e+02
262             	3.17228803e+02
263             	3.17230992e+02
264             	3.17233181e+02
265             	3.17235309e+02
266             	3.17237322e+02
267             	3.17239173e+02
268             	3.17240823e+02
269             	3.17242244e+02
270             	3.17243405e+02
271             	3.17244293e+02
272             	3.17244965e+02
273             	3.17245513e+02
274             	3.17246071e+02
275             	3.17246724e+02
276             	3.17247602e+02
277             	3.17248783e+02
278             	3.17250334e+02
279             	3.17252224e+02
280             	3.17254356e+02
281             	3.17256480e+02
282             	3.17258328e+02
283             	3.17259815e+02
284             	3.17260852e+02
285             	3.17261497e+02
286             	3.17261873e+02
287             	3.17262158e+02
288             	3.17262505e+02
289             	3.17263056e+02
290             	3.17263874e+02
291             	3.17265012e+02
292             	3.17266428e+02
293             	3.17268034e+02
294             	3.17269733e+02
295             	3.17271417e+02
296             	3.17273003e+02
297             	3.17274421e+02
298             	3.17275645e+02
299             	3.17276676e+02
300             	3.17277567e+02
301             	3.17278393e+02
302             	3.17279244e+02
303             	3.17280148e+02
304             	3.17281152e+02
305             	3.17282226e+02
306             	3.17283344e+02
307             	3.17284506e+02
308             	3.17285680e+02
309             	3.17286789e+02
310             	3.17287806e+02
311             	3.17288694e+02
312             	3.17289497e+02
313             	3.17290269e+02
314             	3.17291080e+02
315             	3.17291973e+02
316             	3.17292966e+02
317             	3.17294086e+02
318             	3.17295351e+02
319             	3.17296727e+02
320             	3.17298158e+02
321             	3.17299565e+02
322             	3.17300879e+02
323             	3.17302074e+02
324             	3.17303128e+02
325             	3.17304042e+02
326             	3.17304841e+02
327             	3.17305570e+02
328             	3.17306277e+02
329             	3.17307017e+02
330             	3.17307832e+02
331             	3.17308728e+02
332             	3.17309697e+02
333             	3.17310699e+02
334             	3.17311690e+02
335             	3.17312640e+02
336             	3.17313537e+02
337             	3.17314387e+02
338             	3.17315209e+02
339             	3.17316034e+02
340             	3.17316884e+02
341             	3.17317776e+02
342             	3.17318718e+02
343             	3.17319724e+02
344             	3.17320769e+02
345             	3.17321849e+02
346             	3.17322929e+02
347             	3.17323988e+02
348             	3.17324997e+02
349             	3.17325949e+02
350             	3.17326849e+02
351             	3.17327690e+02
352             	3.17328491e+02
353             	3.17329272e+02
354             	3.17330069e+02
355             	3.17330886e+02
356             	3.17331745e+02
357             	3.17332647e+02
358             	3.17333585e+02
359             	3.17334547e+02
360             	3.17335525e+02
361             	3.17336509e+02
362             	3.17337484e+02
363             	3.17338446e+02
364             	3.17339384e+02
365             	3.17340295e+02
366             	3.17341175e+02
367             	3.17342036e+02
368             	3.17342878e+02
369             	3.17343702e+02
370             	3.17344522e+02
371             	3.17345348e+02
372             	3.17346191e+02
373             	3.17347067e+02
374             	3.17347975e+02
375             	3.17348910e+02
376             	3.17349865e+02
377             	3.17350821e+02
378             	3.17351760e+02
379             	3.17352668e+02
380             	3.17353537e+02
381             	3.17354373e+02
382             	3.17355183e+02
383             	3.17355987e+02
384             	3.17356801e+02
385             	3.17357634e+02
386             	3.17358486e+02
387             	3.17359349e+02
388             	3.17360207e+02
389             	3.17361058e+02
390             	3.17361898e+02
391             	3.17362733e+02
392             	3.17363570e+02
393             	3.17364418e+02
394             	3.17365284e+02
395             	3.17366165e+02
396             	3.17367056e+02
397             	3.17367952e+02
398             	3.17368846e+02
399             	3.17369736e+02
400             	3.17370620e+02
401             	3.17371496e+02
402             	3.17372361e+02
403             	3.17373213e+02
404             	3.17374050e+02
405             	3.17374870e+02
406             	3.17375677e+02
407             	3.17376474e+02
408             	3.17377269e+02
409             	3.17378070e+02
410             	3.17378880e+02
411             	3.17379701e+02
412             	3.17380534e+02
413             	3.17381376e+02
414             	3.17382222e+02
415             	3.17383067e+02
416             	3.17383905e+02
417             	3.17384734e+02
418             	3.17385552e+02
419             	3.17386359e+02
420             	3.17387155e+02
421             	3.17387947e+02
422             	3.17388738e+02
423             	3.17389528e+02
424             	3.17390320e+02
425             	3.17391116e+02
426             	3.17391917e+02
427             	3.17392724e+02
428             	3.17393537e+02
429             	3.17394354e+02
430             	3.17395171e+02
431             	3.17395984e+02
432             	3.17396789e+02
433             	3.17397584e+02
434             	3.17398370e+02
435             	3.17399145e+02
436             	3.17399911e+02
437             	3.17400672e+02
438             	3.17401433e+02
439             	3.17402197e+02
440             	3.17402967e+02
441             	3.17403743e+02
442             	3.17404526e+02
443             	3.17405315e+02
444             	3.17406106e+02
445             	3.17406897e+02
446             	3.17407682e+02
447             	3.17408460e+02
448             	3.17409229e+02
449             	3.17409988e+02
450             	3.17410739e+02
451             	3.17411482e+02
452             	3.17412226e+02
453             	3.17412971e+02
454             	3.17413718e+02
455             	3.17414468e+02
456             	3.17415220e+02
457             	3.17415974e+02
458             	3.17416729e+02
459             	3.17417487e+02
460             	3.17418245e+02
461             	3.17419002e+02
462             	3.17419757e+02
463             	3.17420509e+02
464             	3.17421257e+02
465             	3.17422000e+02
466             	3.17422738e+02
467             	3.17423471e+02
468             	3.17424200e+02
469             	3.17424927e+02
470             	3.17425652e+02
471             	3.17426375e+02
472             	3.17427097e+02
473             	3.17427821e+02
474             	3.17428545e+02
475             	3.17429272e+02
476             	3.17430000e+02
477             	3.17430730e+02
478             	3.17431458e+02
479             	3.17432183e+02
480             	3.17432903e+02
481             	3.17433618e+02
482             	3.17434326e+02
483             	3.17435029e+02
484             	3.17435726e+02
485             	3.17436419e+02
486             	3.17437112e+02
487             	3.17437807e+02
488             	3.17438506e+02
489             	3.17439210e+02
490             	3.17439919e+02
491             	3.17440630e+02
492             	3.17441339e+02
493             	3.17442043e+02
494             	3.17442743e+02
495             	3.17443434e+02
496             	3.17444120e+02
497             	3.17444801e+02
498             	3.17445478e+02
499             	3.17446155e+02
500             	3.17446833e+02
501             	3.17447513e+02
502             	3.17448194e+02
503             	3.17448875e+02
504             	3.17449556e+02
505             	3.17450234e+02
506             	3.17450908e+02
507             	3.17451577e+02
508             	3.17452242e+02
509             	3.17452902e+02
510             	3.17453559e+02
511             	3.17454214e+02
512             	3.17454869e+02
513             	3.17455524e+02
514             	3.17456180e+02
515             	3.17456838e+02
516             	3.17457497e+02
517             	3.17458157e+02
518             	3.17458817e+02
519             	3.17459476e+02
520             	3.17460135e+02
521             	3.17460791e+02
522             	3.17461445e+02
523             	3.17462096e+02
524             	3.17462743e+02
525             	3.17463388e+02
526             	3.17464031e+02
527             	3.17464672e+02
528             	3.17465312e+02
529             	3.17465950e+02
530             	3.17466588e+02
531             	3.17467224e+02
532             	3.17467861e+02
533             	3.17468496e+02
534             	3.17469129e+02
535             	3.17469760e+02
536             	3.17470389e+02
537             	3.17471016e+02
538             	3.17471641e+02
539             	3.17472263e+02
540             	3.17472883e+02
541             	3.17473500e+02
542             	3.17474114e+02
543             	3.17474726e+02
544             	3.17475336e+02
545             	3.17475945e+02
546             	3.17476553e+02
547             	3.17477161e+02
548             	3.17477770e+02
549             	3.17478379e+02
550             	3.17478990e+02
551             	3.17479600e+02
552             	3.17480210e+02
553             	3.17480818e+02
554             	3.17481425e+02
555             	3.17482029e+02
556             	3.17482630e+02
557             	3.17483227e+02
558             	3.17483822e+02
559             	3.17484415e+02
560             	3.17485005e+02
561             	3.17485593e+02
562             	3.17486180e+02
563             	3.17486765e+02
564             	3.17487349e+02
565             	3.17487932e+02
566             	3.17488514e+02
567             	3.17489095e+02
568             	3.17489675e+02
569             	3.17490255e+02
570             	3.17490834e+02
571             	3.17491412e+02
572             	3.17491990e+02
573             	3.17492565e+02
574             	3.17493140e+02
575             	3.17493713e+02
576             	3.17494284e+02
577             	3.17494853e+02
578             	3.17495421e+02
579             	3.17495987e+02
580             	3.17496551e+02
581             	3.17497113e+02
582             	3.17497673e+02
583             	3.17498232e+02
584             	3.17498789e+02
585             	3.17499345e+02
586             	3.17499900e+02
587             	3.17500454e+02
588             	3.17501007e+02
589             	3.17501561e+02
590             	3.17502113e+02
591             	3.17502665e+02
592             	3.17503217e+02
593             	3.17503767e+02
594             	3.17504317e+02
595             	3.17504865e+02
596             	3.17505413e+02
597             	3.17505958e+02
598             	3.17506503e+02
599             	3.17507046e+02
600             	3.17507587e+02
601             	3.17508126e+02
602             	3.17508663e+02
603             	3.17509198e+02
604             	3.17509732e+02
605             	3.17510264e+02
606             	3.17510795e+02
607             	3.17511324e+02
608             	3.17511852e+02
609             	3.17512378e+02
610             	3.17512903e+02
611             	3.17513427e+02
612             	3.17513950e+02
613             	3.17514472e+02
614             	3.17514994e+02
615             	3.17515514e+02
616             	3.17516033e+02
617             	3.17516552e+02
618             	3.17517069e+02
619             	3.17517584e+02
620             	3.17518097e+02
621             	3.17518609e+02
