# Region        : cellZone component_1
# Cells         : 7
# Volume        : 6.53904542e-03
# Time          	volAverage(T)
1               	3.19027150e+02
2               	3.37163677e+02
3               	3.46653618e+02
4               	3.50769271e+02
5               	3.53860763e+02
6               	3.57050538e+02
7               	3.60350427e+02
8               	3.63491943e+02
9               	3.66528367e+02
10              	3.69575730e+02
11              	3.72518622e+02
12              	3.75023668e+02
13              	3.77537426e+02
14              	3.79422934e+02
15              	3.81082060e+02
16              	3.81894694e+02
17              	3.82748106e+02
18              	3.83147815e+02
19              	3.83904005e+02
20              	3.84903498e+02
21              	3.85756837e+02
22              	3.87002363e+02
23              	3.87882279e+02
24              	3.88818798e+02
25              	3.90008042e+02
26              	3.91476820e+02
27              	3.93304671e+02
28              	3.95751560e+02
29              	3.98716900e+02
30              	4.00770076e+02
31              	4.02573880e+02
32              	4.02775174e+02
33              	4.02828831e+02
34              	4.03435001e+02
35              	4.03835779e+02
36              	4.05155031e+02
37              	4.07306328e+02
38              	4.10507346e+02
39              	4.13508859e+02
40              	4.15961687e+02
41              	4.17066287e+02
42              	4.16534377e+02
43              	4.15494775e+02
44              	4.14269041e+02
45              	4.13236621e+02
46              	4.11669565e+02
47              	4.06166552e+02
48              	4.00696679e+02
49              	3.98037271e+02
50              	3.96870532e+02
51              	3.96520207e+02
52              	3.97707205e+02
53              	3.99573671e+02
54              	4.02613273e+02
55              	4.03860757e+02
56              	4.03900716e+02
57              	4.03798138e+02
58              	4.03508430e+02
59              	4.03448138e+02
60              	4.03568234e+02
61              	4.04187475e+02
62              	4.05892714e+02
63              	4.08315607e+02
64              	4.10733246e+02
65              	4.12985984e+02
66              	4.15104451e+02
67              	4.15939197e+02
68              	4.16014843e+02
69              	4.16047629e+02
70              	4.16141836e+02
71              	4.16093311e+02
72              	4.14530931e+02
73              	4.13327483e+02
74              	4.12817202e+02
75              	4.13585095e+02
76              	4.14531316e+02
77              	4.15267484e+02
78              	4.15218290e+02
79              	4.15528707e+02
80              	4.15477516e+02
81              	4.15795453e+02
82              	4.16295827e+02
83              	4.16908003e+02
84              	4.17471172e+02
85              	4.18102868e+02
86              	4.18268422e+02
87              	4.17669342e+02
88              	4.16770439e+02
89              	4.15816300e+02
90              	4.14820142e+02
91              	4.14045735e+02
92              	4.13177007e+02
93              	4.13549674e+02
94              	4.13396989e+02
95              	4.13180901e+02
96              	4.13553183e+02
97              	4.14298416e+02
98              	4.15140603e+02
99              	4.16020462e+02
100             	4.17062258e+02
101             	4.18230316e+02
102             	4.19049417e+02
103             	4.19267478e+02
104             	4.19689772e+02
105             	4.20147562e+02
106             	4.20587191e+02
107             	4.20832023e+02
108             	4.20888242e+02
109             	4.20450104e+02
110             	4.20906213e+02
111             	4.21848814e+02
112             	4.22681984e+02
113             	4.23460721e+02
114             	4.23614894e+02
115             	4.23028760e+02
116             	4.21411085e+02
117             	4.20262729e+02
118             	4.19020537e+02
119             	4.18195083e+02
120             	4.17411143e+02
121             	4.16770380e+02
122             	4.16591800e+02
123             	4.16466240e+02
124             	4.16361185e+02
125             	4.16581044e+02
126             	4.16769288e+02
127             	4.17203089e+02
128             	4.17644178e+02
129             	4.18152273e+02
130             	4.19154028e+02
131             	4.20165413e+02
132             	4.20671675e+02
133             	4.20167310e+02
134             	4.19737597e+02
135             	4.19266211e+02
136             	4.18082467e+02
137             	4.16784443e+02
138             	4.15946178e+02
139             	4.16113868e+02
140             	4.15753890e+02
141             	4.15263955e+02
142             	4.14805012e+02
143             	4.14707315e+02
144             	4.14907294e+02
145             	4.15685279e+02
146             	4.16941681e+02
147             	4.17481099e+02
148             	4.17930961e+02
149             	4.18391476e+02
150             	4.18716179e+02
151             	4.18737858e+02
152             	4.18059349e+02
153             	4.17153953e+02
154             	4.16390117e+02
155             	4.15737940e+02
156             	4.15045229e+02
157             	4.14535737e+02
158             	4.14446354e+02
159             	4.14938182e+02
160             	4.15376890e+02
161             	4.15931308e+02
162             	4.16645602e+02
163             	4.17554909e+02
164             	4.18667710e+02
165             	4.19814273e+02
166             	4.20724430e+02
167             	4.21260836e+02
168             	4.21625214e+02
169             	4.21897739e+02
170             	4.21888719e+02
171             	4.21865567e+02
172             	4.21873663e+02
173             	4.21972900e+02
174             	4.22150983e+02
175             	4.22117152e+02
176             	4.21995453e+02
177             	4.22221514e+02
178             	4.21998699e+02
179             	4.21624694e+02
180             	4.21222548e+02
181             	4.20988955e+02
182             	4.20895813e+02
183             	4.21103862e+02
184             	4.20722844e+02
185             	4.20438030e+02
186             	4.19972197e+02
187             	4.19489847e+02
188             	4.18780681e+02
189             	4.18065585e+02
190             	4.17355704e+02
191             	4.17189844e+02
192             	4.17239004e+02
193             	4.17497596e+02
194             	4.17850415e+02
195             	4.18225815e+02
196             	4.18656417e+02
197             	4.19149123e+02
198             	4.19504444e+02
199             	4.19634232e+02
200             	4.19713276e+02
201             	4.19702948e+02
202             	4.19600399e+02
203             	4.19404314e+02
204             	4.19157259e+02
205             	4.19034925e+02
206             	4.19082146e+02
207             	4.19445370e+02
208             	4.19800856e+02
209             	4.20190869e+02
210             	4.20495762e+02
211             	4.20609902e+02
212             	4.20464211e+02
213             	4.20393166e+02
214             	4.20273376e+02
215             	4.20074222e+02
216             	4.19740793e+02
217             	4.19263814e+02
218             	4.18890720e+02
219             	4.18646430e+02
220             	4.18939889e+02
221             	4.19449664e+02
222             	4.19898760e+02
223             	4.20267323e+02
224             	4.20385973e+02
225             	4.20421492e+02
226             	4.20412964e+02
227             	4.20377611e+02
228             	4.20329462e+02
229             	4.19815600e+02
230             	4.19524678e+02
231             	4.19528533e+02
232             	4.19497370e+02
233             	4.19686799e+02
234             	4.19822056e+02
235             	4.19918920e+02
236             	4.20082598e+02
237             	4.20356870e+02
238             	4.20718331e+02
239             	4.21054624e+02
240             	4.21287579e+02
241             	4.21384914e+02
242             	4.21302217e+02
243             	4.21172897e+02
244             	4.20948639e+02
245             	4.20731072e+02
246             	4.20682796e+02
247             	4.20895416e+02
248             	4.21041362e+02
249             	4.21147519e+02
250             	4.21268901e+02
251             	4.21428449e+02
252             	4.21566281e+02
253             	4.21758869e+02
254             	4.21878695e+02
255             	4.21950966e+02
256             	4.21989520e+02
257             	4.21992887e+02
258             	4.21950338e+02
259             	4.21840914e+02
260             	4.21734727e+02
261             	4.21677889e+02
262             	4.21645253e+02
263             	4.21728653e+02
264             	4.21849948e+02
265             	4.21977376e+02
266             	4.22107734e+02
267             	4.22242053e+02
268             	4.22366331e+02
269             	4.22480509e+02
270             	4.22541800e+02
271             	4.22592569e+02
272             	4.22627271e+02
273             	4.22664076e+02
274             	4.22702363e+02
275             	4.22749125e+02
276             	4.22797130e+02
277             	4.22838617e+02
278             	4.22838017e+02
279             	4.22783630e+02
280             	4.22691915e+02
281             	4.22619287e+02
282             	4.22603921e+02
283             	4.22626229e+02
284             	4.22724354e+02
285             	4.22854101e+02
286             	4.23012980e+02
287             	4.23180823e+02
288             	4.23337326e+02
289             	4.23479639e+02
290             	4.23593747e+02
291             	4.23647882e+02
292             	4.23610242e+02
293             	4.23571871e+02
294             	4.23506663e+02
295             	4.23390116e+02
296             	4.23284331e+02
297             	4.23179681e+02
298             	4.23203112e+02
299             	4.23219203e+02
300             	4.23234689e+02
301             	4.23251894e+02
302             	4.23294361e+02
303             	4.23365591e+02
304             	4.23452912e+02
305             	4.23557788e+02
306             	4.23666499e+02
307             	4.23759884e+02
308             	4.23842175e+02
309             	4.23919366e+02
310             	4.23975154e+02
311             	4.24012798e+02
312             	4.24034912e+02
313             	4.24039849e+02
314             	4.24041278e+02
315             	4.24045437e+02
316             	4.24035562e+02
317             	4.24022635e+02
318             	4.24010954e+02
319             	4.23986110e+02
320             	4.23954040e+02
321             	4.23923548e+02
322             	4.23888079e+02
323             	4.23857776e+02
324             	4.23846038e+02
325             	4.23906092e+02
326             	4.24007847e+02
327             	4.24066998e+02
328             	4.24081914e+02
329             	4.24091288e+02
330             	4.24103401e+02
331             	4.24115900e+02
332             	4.24076896e+02
333             	4.23994190e+02
334             	4.23870421e+02
335             	4.23766627e+02
336             	4.23701242e+02
337             	4.23698088e+02
338             	4.23771976e+02
339             	4.23817859e+02
340             	4.23847509e+02
341             	4.23865431e+02
342             	4.23858224e+02
343             	4.23855800e+02
344             	4.23822663e+02
345             	4.23809769e+02
346             	4.23795992e+02
347             	4.23791248e+02
348             	4.23710695e+02
349             	4.23661969e+02
350             	4.23617986e+02
351             	4.23598239e+02
352             	4.23591994e+02
353             	4.23628153e+02
354             	4.23711880e+02
355             	4.23783594e+02
356             	4.23854514e+02
357             	4.23919166e+02
358             	4.23970777e+02
359             	4.23985100e+02
360             	4.24013509e+02
361             	4.24011883e+02
362             	4.24016208e+02
363             	4.24031860e+02
364             	4.24051033e+02
365             	4.24085950e+02
366             	4.24152286e+02
367             	4.24198029e+02
368             	4.24230713e+02
369             	4.24246178e+02
370             	4.24264037e+02
371             	4.24284062e+02
372             	4.24261591e+02
373             	4.24238201e+02
374             	4.24210415e+02
375             	4.24189177e+02
376             	4.24155978e+02
377             	4.24123203e+02
378             	4.24093458e+02
379             	4.24058056e+02
380             	4.24022254e+02
381             	4.23990366e+02
382             	4.23954024e+02
383             	4.23925994e+02
384             	4.23926514e+02
385             	4.23970704e+02
386             	4.24012512e+02
387             	4.24057558e+02
388             	4.24086833e+02
389             	4.24095423e+02
390             	4.24087624e+02
391             	4.24050323e+02
392             	4.24023733e+02
393             	4.24003554e+02
394             	4.24001079e+02
395             	4.23994267e+02
396             	4.23989530e+02
397             	4.23972022e+02
398             	4.23952994e+02
399             	4.23938219e+02
400             	4.23918683e+02
401             	4.23918143e+02
402             	4.23929846e+02
403             	4.23949467e+02
404             	4.23973031e+02
405             	4.23994429e+02
406             	4.24008820e+02
407             	4.24021268e+02
408             	4.24035826e+02
409             	4.24041992e+02
410             	4.24047392e+02
411             	4.24055998e+02
412             	4.24065311e+02
413             	4.24085231e+02
414             	4.24134460e+02
415             	4.24162123e+02
416             	4.24170612e+02
417             	4.24167146e+02
418             	4.24161095e+02
419             	4.24157366e+02
420             	4.24125384e+02
421             	4.24098737e+02
422             	4.24077412e+02
423             	4.24046430e+02
424             	4.24019550e+02
425             	4.23996438e+02
426             	4.23981402e+02
427             	4.23986806e+02
428             	4.23994654e+02
429             	4.23998537e+02
430             	4.24004836e+02
431             	4.24019610e+02
432             	4.24033216e+02
433             	4.24051232e+02
434             	4.24077003e+02
435             	4.24099479e+02
436             	4.24119446e+02
437             	4.24141361e+02
438             	4.24152953e+02
439             	4.24160663e+02
440             	4.24167831e+02
441             	4.24162818e+02
442             	4.24151633e+02
443             	4.24131020e+02
444             	4.24107119e+02
445             	4.24082606e+02
446             	4.24064930e+02
447             	4.24043379e+02
448             	4.24027819e+02
449             	4.24027213e+02
450             	4.24026936e+02
451             	4.24045854e+02
452             	4.24069477e+02
453             	4.24091050e+02
454             	4.24099266e+02
455             	4.24099492e+02
456             	4.24097506e+02
457             	4.24093511e+02
458             	4.24094501e+02
459             	4.24087430e+02
460             	4.24082667e+02
461             	4.24088665e+02
462             	4.24101764e+02
463             	4.24114263e+02
464             	4.24134180e+02
465             	4.24150259e+02
466             	4.24167610e+02
467             	4.24189059e+02
468             	4.24189996e+02
469             	4.24189713e+02
470             	4.24185953e+02
471             	4.24171924e+02
472             	4.24154795e+02
473             	4.24148267e+02
474             	4.24144708e+02
475             	4.24148352e+02
476             	4.24161324e+02
477             	4.24165580e+02
478             	4.24167803e+02
479             	4.24169648e+02
480             	4.24161921e+02
481             	4.24147492e+02
482             	4.24139981e+02
483             	4.24127152e+02
484             	4.24117843e+02
485             	4.24117194e+02
486             	4.24114279e+02
487             	4.24111626e+02
488             	4.24116781e+02
489             	4.24121525e+02
490             	4.24126248e+02
491             	4.24134830e+02
492             	4.24137323e+02
493             	4.24137808e+02
494             	4.24144081e+02
495             	4.24143605e+02
496             	4.24144686e+02
497             	4.24152271e+02
498             	4.24158743e+02
499             	4.24163896e+02
500             	4.24173853e+02
501             	4.24177185e+02
502             	4.24179934e+02
503             	4.24187750e+02
504             	4.24185950e+02
505             	4.24184464e+02
506             	4.24184371e+02
507             	4.24179107e+02
508             	4.24173689e+02
509             	4.24172642e+02
510             	4.24163395e+02
511             	4.24152797e+02
512             	4.24147029e+02
513             	4.24134496e+02
514             	4.24123430e+02
515             	4.24118395e+02
516             	4.24110995e+02
517             	4.24108393e+02
518             	4.24114722e+02
519             	4.24125164e+02
520             	4.24134030e+02
521             	4.24147090e+02
522             	4.24149773e+02
523             	4.24149226e+02
524             	4.24153814e+02
525             	4.24153569e+02
526             	4.24154299e+02
527             	4.24160366e+02
528             	4.24159463e+02
529             	4.24157121e+02
530             	4.24159065e+02
531             	4.24154620e+02
532             	4.24149404e+02
533             	4.24149249e+02
534             	4.24148080e+02
535             	4.24147542e+02
536             	4.24153666e+02
537             	4.24154725e+02
538             	4.24156299e+02
539             	4.24162319e+02
540             	4.24159567e+02
541             	4.24157944e+02
542             	4.24161873e+02
543             	4.24161207e+02
544             	4.24160581e+02
545             	4.24164583e+02
546             	4.24164678e+02
547             	4.24167844e+02
548             	4.24174839e+02
549             	4.24174543e+02
550             	4.24172346e+02
551             	4.24173338e+02
552             	4.24167240e+02
553             	4.24161863e+02
554             	4.24162268e+02
555             	4.24158805e+02
556             	4.24156736e+02
557             	4.24163140e+02
558             	4.24163428e+02
559             	4.24163630e+02
560             	4.24168820e+02
561             	4.24168256e+02
562             	4.24167585e+02
563             	4.24170462e+02
564             	4.24167295e+02
565             	4.24164156e+02
566             	4.24166272e+02
567             	4.24163112e+02
568             	4.24161079e+02
569             	4.24164207e+02
570             	4.24164326e+02
571             	4.24163828e+02
572             	4.24168200e+02
573             	4.24167133e+02
574             	4.24166550e+02
575             	4.24170428e+02
576             	4.24165512e+02
577             	4.24161476e+02
578             	4.24162853e+02
579             	4.24159766e+02
580             	4.24156944e+02
581             	4.24158726e+02
582             	4.24155073e+02
583             	4.24155047e+02
584             	4.24159394e+02
585             	4.24158886e+02
586             	4.24157871e+02
587             	4.24161081e+02
588             	4.24158040e+02
589             	4.24156016e+02
590             	4.24159326e+02
591             	4.24157917e+02
592             	4.24156168e+02
593             	4.24159101e+02
594             	4.24156318e+02
595             	4.24154152e+02
596             	4.24156990e+02
597             	4.24156092e+02
598             	4.24155366e+02
599             	4.24160131e+02
600             	4.24159805e+02
601             	4.24159739e+02
602             	4.24165245e+02
603             	4.24165673e+02
604             	4.24165183e+02
605             	4.24169920e+02
606             	4.24168657e+02
607             	4.24166821e+02
608             	4.24169693e+02
609             	4.24167151e+02
610             	4.24165528e+02
611             	4.24169155e+02
612             	4.24166975e+02
613             	4.24164790e+02
614             	4.24167876e+02
615             	4.24166110e+02
616             	4.24163734e+02
617             	4.24165494e+02
618             	4.24161763e+02
619             	4.24157923e+02
620             	4.24158964e+02
621             	4.24154961e+02
