# Region        : cellZone component_3
# Cells         : 24
# Volume        : 4.14240092e-02
# Time          	volAverage(T)
1               	3.04486877e+02
2               	3.08861210e+02
3               	3.12199752e+02
4               	3.14919584e+02
5               	3.17375341e+02
6               	3.19472554e+02
7               	3.21285758e+02
8               	3.23046325e+02
9               	3.24739070e+02
10              	3.26329261e+02
11              	3.27614433e+02
12              	3.28699194e+02
13              	3.29852208e+02
14              	3.30835049e+02
15              	3.31455901e+02
16              	3.31746575e+02
17              	3.32238777e+02
18              	3.32986813e+02
19              	3.33851513e+02
20              	3.34823928e+02
21              	3.35669516e+02
22              	3.36426733e+02
23              	3.37117202e+02
24              	3.37993973e+02
25              	3.38955844e+02
26              	3.39738955e+02
27              	3.40169932e+02
28              	3.40390219e+02
29              	3.40540090e+02
30              	3.40873595e+02
31              	3.41490045e+02
32              	3.42190772e+02
33              	3.42834166e+02
34              	3.43337690e+02
35              	3.43605819e+02
36              	3.43546204e+02
37              	3.43278253e+02
38              	3.43039292e+02
39              	3.42697325e+02
40              	3.42487787e+02
41              	3.42381194e+02
42              	3.42456768e+02
43              	3.42637172e+02
44              	3.42987503e+02
45              	3.43557150e+02
46              	3.44184286e+02
47              	3.44861384e+02
48              	3.45576151e+02
49              	3.46230246e+02
50              	3.46779871e+02
51              	3.47282501e+02
52              	3.47736174e+02
53              	3.47928084e+02
54              	3.48160458e+02
55              	3.48214970e+02
56              	3.48190196e+02
57              	3.48130249e+02
58              	3.48000887e+02
59              	3.47699943e+02
60              	3.47318458e+02
61              	3.47168181e+02
62              	3.47007024e+02
63              	3.46904648e+02
64              	3.46972729e+02
65              	3.47103689e+02
66              	3.47151385e+02
67              	3.47369815e+02
68              	3.47429649e+02
69              	3.47219368e+02
70              	3.46752705e+02
71              	3.46282032e+02
72              	3.45742238e+02
73              	3.45374882e+02
74              	3.45059460e+02
75              	3.44813305e+02
76              	3.44537785e+02
77              	3.44243562e+02
78              	3.43995962e+02
79              	3.43822359e+02
80              	3.43717162e+02
81              	3.43738044e+02
82              	3.43818485e+02
83              	3.44029728e+02
84              	3.44289889e+02
85              	3.44585842e+02
86              	3.44980065e+02
87              	3.45367533e+02
88              	3.45739496e+02
89              	3.46022309e+02
90              	3.46417644e+02
91              	3.46780718e+02
92              	3.47097147e+02
93              	3.47285901e+02
94              	3.47467933e+02
95              	3.47624291e+02
96              	3.47929065e+02
97              	3.48150996e+02
98              	3.48280667e+02
99              	3.48298345e+02
100             	3.48359941e+02
101             	3.48488187e+02
102             	3.48676041e+02
103             	3.48880944e+02
104             	3.48845914e+02
105             	3.48781736e+02
106             	3.48610444e+02
107             	3.48516056e+02
108             	3.48289370e+02
109             	3.48029988e+02
110             	3.47797394e+02
111             	3.47641554e+02
112             	3.47567988e+02
113             	3.47601329e+02
114             	3.47689806e+02
115             	3.47774870e+02
116             	3.47886346e+02
117             	3.47912065e+02
118             	3.48018849e+02
119             	3.48248992e+02
120             	3.48550499e+02
121             	3.48872016e+02
122             	3.49224581e+02
123             	3.49638947e+02
124             	3.49977307e+02
125             	3.50388340e+02
126             	3.50717548e+02
127             	3.51132165e+02
128             	3.51402553e+02
129             	3.51539684e+02
130             	3.51707074e+02
131             	3.51870822e+02
132             	3.51772655e+02
133             	3.51651410e+02
134             	3.51518621e+02
135             	3.51276966e+02
136             	3.51055198e+02
137             	3.50942240e+02
138             	3.50899684e+02
139             	3.50909300e+02
140             	3.50971818e+02
141             	3.51091930e+02
142             	3.51266620e+02
143             	3.51535855e+02
144             	3.51617981e+02
145             	3.51814639e+02
146             	3.51987965e+02
147             	3.52262677e+02
148             	3.52634064e+02
149             	3.52853569e+02
150             	3.53124265e+02
151             	3.53415757e+02
152             	3.53679818e+02
153             	3.53923037e+02
154             	3.54176907e+02
155             	3.54404893e+02
156             	3.54612939e+02
157             	3.54653369e+02
158             	3.54641835e+02
159             	3.54731732e+02
160             	3.54735102e+02
161             	3.54820724e+02
162             	3.54794033e+02
163             	3.54834938e+02
164             	3.54883931e+02
165             	3.54874986e+02
166             	3.54831151e+02
167             	3.54781858e+02
168             	3.54740045e+02
169             	3.54736372e+02
170             	3.54783926e+02
171             	3.54831672e+02
172             	3.54873407e+02
173             	3.54975290e+02
174             	3.55106452e+02
175             	3.55223339e+02
176             	3.55299340e+02
177             	3.55418086e+02
178             	3.55596340e+02
179             	3.55744662e+02
180             	3.55887284e+02
181             	3.55878164e+02
182             	3.55979742e+02
183             	3.55983225e+02
184             	3.56074022e+02
185             	3.56139785e+02
186             	3.56266914e+02
187             	3.56365461e+02
188             	3.56425235e+02
189             	3.56496837e+02
190             	3.56559997e+02
191             	3.56624282e+02
192             	3.56540546e+02
193             	3.56559235e+02
194             	3.56498355e+02
195             	3.56530200e+02
196             	3.56618993e+02
197             	3.56717632e+02
198             	3.56606020e+02
199             	3.56589297e+02
200             	3.56604193e+02
201             	3.56628034e+02
202             	3.56641534e+02
203             	3.56660313e+02
204             	3.56718050e+02
205             	3.56614935e+02
206             	3.56604530e+02
207             	3.56646188e+02
208             	3.56695557e+02
209             	3.56729051e+02
210             	3.56719539e+02
211             	3.56700339e+02
212             	3.56692717e+02
213             	3.56696241e+02
214             	3.56705540e+02
215             	3.56722293e+02
216             	3.56740192e+02
217             	3.56760524e+02
218             	3.56788696e+02
219             	3.56834498e+02
220             	3.56739480e+02
221             	3.56752721e+02
222             	3.56808327e+02
223             	3.56894881e+02
224             	3.56989617e+02
225             	3.57064613e+02
226             	3.57119653e+02
227             	3.57158042e+02
228             	3.57215260e+02
229             	3.57290470e+02
230             	3.57201874e+02
231             	3.57222214e+02
232             	3.57305775e+02
233             	3.57245128e+02
234             	3.57273440e+02
235             	3.57336760e+02
236             	3.57400688e+02
237             	3.57297242e+02
238             	3.57279884e+02
239             	3.57307038e+02
240             	3.57345779e+02
241             	3.57224449e+02
242             	3.57192946e+02
243             	3.57198130e+02
244             	3.57212544e+02
245             	3.57221380e+02
246             	3.57218746e+02
247             	3.57204529e+02
248             	3.57187407e+02
249             	3.57188358e+02
250             	3.57212378e+02
251             	3.57243918e+02
252             	3.57277692e+02
253             	3.57323166e+02
254             	3.57210252e+02
255             	3.57207276e+02
256             	3.57256095e+02
257             	3.57324926e+02
258             	3.57362988e+02
259             	3.57396046e+02
260             	3.57395436e+02
261             	3.57384853e+02
262             	3.57386748e+02
263             	3.57392816e+02
264             	3.57399868e+02
265             	3.57409223e+02
266             	3.57424505e+02
267             	3.57451694e+02
268             	3.57309900e+02
269             	3.57272290e+02
270             	3.57295555e+02
271             	3.57334859e+02
272             	3.57364772e+02
273             	3.57372529e+02
274             	3.57364632e+02
275             	3.57355012e+02
276             	3.57348535e+02
277             	3.57350266e+02
278             	3.57361908e+02
279             	3.57382774e+02
280             	3.57409637e+02
281             	3.57441790e+02
282             	3.57480885e+02
283             	3.57355275e+02
284             	3.57335521e+02
285             	3.57374507e+02
286             	3.57426510e+02
287             	3.57467980e+02
288             	3.57492608e+02
289             	3.57502878e+02
290             	3.57511922e+02
291             	3.57520166e+02
292             	3.57530423e+02
293             	3.57544729e+02
294             	3.57560715e+02
295             	3.57578726e+02
296             	3.57614029e+02
297             	3.57634088e+02
298             	3.57636486e+02
299             	3.57636384e+02
300             	3.57635691e+02
301             	3.57623635e+02
302             	3.57620331e+02
303             	3.57615906e+02
304             	3.57621633e+02
305             	3.57630819e+02
306             	3.57643312e+02
307             	3.57656208e+02
308             	3.57695460e+02
309             	3.57708282e+02
310             	3.57704966e+02
311             	3.57698374e+02
312             	3.57689221e+02
313             	3.57677185e+02
314             	3.57665008e+02
315             	3.57647440e+02
316             	3.57641197e+02
317             	3.57640995e+02
318             	3.57649309e+02
319             	3.57657428e+02
320             	3.57666662e+02
321             	3.57684969e+02
322             	3.57694749e+02
323             	3.57700326e+02
324             	3.57704692e+02
325             	3.57702772e+02
326             	3.57695500e+02
327             	3.57679227e+02
328             	3.57665914e+02
329             	3.57655686e+02
330             	3.57645157e+02
331             	3.57637028e+02
332             	3.57628715e+02
333             	3.57624209e+02
334             	3.57625171e+02
335             	3.57622068e+02
336             	3.57616313e+02
337             	3.57613755e+02
338             	3.57611927e+02
339             	3.57611088e+02
340             	3.57610672e+02
341             	3.57611269e+02
342             	3.57612426e+02
343             	3.57615464e+02
344             	3.57623698e+02
345             	3.57631524e+02
346             	3.57641038e+02
347             	3.57647737e+02
348             	3.57646199e+02
349             	3.57649076e+02
350             	3.57660127e+02
351             	3.57670118e+02
352             	3.57675791e+02
353             	3.57680555e+02
354             	3.57684538e+02
355             	3.57683993e+02
356             	3.57681626e+02
357             	3.57677730e+02
358             	3.57671300e+02
359             	3.57663576e+02
360             	3.57654561e+02
361             	3.57647508e+02
362             	3.57643335e+02
363             	3.57635358e+02
364             	3.57626662e+02
365             	3.57622220e+02
366             	3.57617846e+02
367             	3.57620059e+02
368             	3.57616387e+02
369             	3.57610720e+02
370             	3.57606839e+02
371             	3.57604567e+02
372             	3.57603500e+02
373             	3.57606299e+02
374             	3.57606224e+02
375             	3.57606732e+02
376             	3.57606603e+02
377             	3.57607287e+02
378             	3.57608518e+02
379             	3.57604896e+02
380             	3.57605003e+02
381             	3.57602293e+02
382             	3.57599931e+02
383             	3.57602014e+02
384             	3.57606012e+02
385             	3.57609060e+02
386             	3.57610911e+02
387             	3.57608857e+02
388             	3.57612735e+02
389             	3.57619647e+02
390             	3.57626281e+02
391             	3.57630031e+02
392             	3.57633185e+02
393             	3.57648123e+02
394             	3.57652957e+02
395             	3.57652826e+02
396             	3.57652723e+02
397             	3.57652419e+02
398             	3.57651983e+02
399             	3.57649714e+02
400             	3.57645575e+02
401             	3.57640810e+02
402             	3.57635889e+02
403             	3.57631853e+02
404             	3.57625179e+02
405             	3.57623506e+02
406             	3.57621567e+02
407             	3.57620001e+02
408             	3.57618618e+02
409             	3.57614275e+02
410             	3.57608975e+02
411             	3.57602752e+02
412             	3.57605433e+02
413             	3.57612927e+02
414             	3.57617275e+02
415             	3.57632131e+02
416             	3.57645828e+02
417             	3.57658168e+02
418             	3.57658466e+02
419             	3.57654917e+02
420             	3.57650351e+02
421             	3.57641783e+02
422             	3.57631187e+02
423             	3.57623649e+02
424             	3.57617547e+02
425             	3.57612983e+02
426             	3.57608204e+02
427             	3.57605334e+02
428             	3.57605366e+02
429             	3.57607360e+02
430             	3.57612932e+02
431             	3.57616106e+02
432             	3.57617362e+02
433             	3.57618217e+02
434             	3.57616408e+02
435             	3.57616190e+02
436             	3.57617862e+02
437             	3.57619158e+02
438             	3.57619967e+02
439             	3.57620232e+02
440             	3.57620864e+02
441             	3.57620570e+02
442             	3.57622446e+02
443             	3.57625176e+02
444             	3.57627167e+02
445             	3.57627887e+02
446             	3.57629202e+02
447             	3.57630665e+02
448             	3.57631827e+02
449             	3.57632910e+02
450             	3.57634166e+02
451             	3.57635530e+02
452             	3.57636820e+02
453             	3.57638166e+02
454             	3.57638037e+02
455             	3.57639404e+02
456             	3.57638116e+02
457             	3.57635522e+02
458             	3.57632813e+02
459             	3.57631809e+02
460             	3.57629512e+02
461             	3.57628400e+02
462             	3.57625918e+02
463             	3.57621723e+02
464             	3.57619949e+02
465             	3.57619663e+02
466             	3.57619568e+02
467             	3.57617551e+02
468             	3.57613850e+02
469             	3.57614702e+02
470             	3.57617266e+02
471             	3.57618139e+02
472             	3.57619664e+02
473             	3.57629097e+02
474             	3.57631850e+02
475             	3.57631454e+02
476             	3.57631342e+02
477             	3.57631905e+02
478             	3.57632098e+02
479             	3.57631394e+02
480             	3.57630479e+02
481             	3.57629867e+02
482             	3.57629069e+02
483             	3.57628392e+02
484             	3.57628212e+02
485             	3.57629898e+02
486             	3.57630659e+02
487             	3.57630853e+02
488             	3.57630752e+02
489             	3.57630246e+02
490             	3.57629055e+02
491             	3.57627173e+02
492             	3.57624730e+02
493             	3.57621890e+02
494             	3.57618678e+02
495             	3.57616580e+02
496             	3.57615736e+02
497             	3.57615244e+02
498             	3.57615924e+02
499             	3.57617069e+02
500             	3.57618748e+02
501             	3.57620630e+02
502             	3.57623395e+02
503             	3.57626031e+02
504             	3.57628773e+02
505             	3.57631207e+02
506             	3.57633237e+02
507             	3.57636008e+02
508             	3.57637463e+02
509             	3.57638049e+02
510             	3.57638500e+02
511             	3.57638620e+02
512             	3.57637514e+02
513             	3.57636891e+02
514             	3.57637258e+02
515             	3.57637625e+02
516             	3.57637962e+02
517             	3.57638079e+02
518             	3.57637599e+02
519             	3.57637956e+02
520             	3.57637384e+02
521             	3.57635603e+02
522             	3.57633093e+02
523             	3.57630541e+02
524             	3.57627896e+02
525             	3.57624749e+02
526             	3.57622624e+02
527             	3.57621200e+02
528             	3.57620126e+02
529             	3.57619421e+02
530             	3.57619019e+02
531             	3.57619063e+02
532             	3.57619994e+02
533             	3.57623671e+02
534             	3.57624748e+02
535             	3.57624633e+02
536             	3.57625054e+02
537             	3.57624344e+02
538             	3.57625232e+02
539             	3.57626225e+02
540             	3.57627287e+02
541             	3.57628146e+02
542             	3.57629161e+02
543             	3.57630144e+02
544             	3.57631732e+02
545             	3.57633509e+02
546             	3.57633619e+02
547             	3.57634922e+02
548             	3.57636889e+02
549             	3.57638648e+02
550             	3.57640155e+02
551             	3.57641343e+02
552             	3.57642532e+02
553             	3.57645564e+02
554             	3.57645734e+02
555             	3.57644442e+02
556             	3.57643175e+02
557             	3.57642229e+02
558             	3.57641564e+02
559             	3.57640245e+02
560             	3.57638419e+02
561             	3.57636371e+02
562             	3.57635077e+02
563             	3.57634005e+02
564             	3.57633923e+02
565             	3.57633990e+02
566             	3.57634277e+02
567             	3.57634852e+02
568             	3.57635332e+02
569             	3.57635829e+02
570             	3.57635992e+02
571             	3.57635805e+02
572             	3.57635048e+02
573             	3.57633887e+02
574             	3.57632569e+02
575             	3.57631110e+02
576             	3.57630759e+02
577             	3.57628861e+02
578             	3.57627399e+02
579             	3.57626445e+02
580             	3.57625552e+02
581             	3.57623941e+02
582             	3.57623345e+02
583             	3.57623144e+02
584             	3.57623568e+02
585             	3.57623986e+02
586             	3.57624648e+02
587             	3.57626696e+02
588             	3.57627421e+02
589             	3.57627521e+02
590             	3.57627923e+02
591             	3.57628804e+02
592             	3.57629002e+02
593             	3.57628902e+02
594             	3.57628223e+02
595             	3.57627592e+02
596             	3.57626523e+02
597             	3.57626227e+02
598             	3.57626228e+02
599             	3.57626379e+02
600             	3.57626645e+02
601             	3.57627171e+02
602             	3.57628160e+02
603             	3.57629497e+02
604             	3.57629451e+02
605             	3.57628403e+02
606             	3.57627927e+02
607             	3.57627473e+02
608             	3.57626199e+02
609             	3.57625422e+02
610             	3.57625395e+02
611             	3.57625407e+02
612             	3.57625290e+02
613             	3.57625572e+02
614             	3.57626290e+02
615             	3.57627248e+02
616             	3.57628339e+02
617             	3.57629277e+02
618             	3.57629926e+02
619             	3.57630380e+02
620             	3.57630450e+02
621             	3.57630310e+02
