# Region        : cellZone component_4
# Cells         : 335
# Volume        : 6.85340693e-01
# Time          	volAverage(T)
1               	3.00206653e+02
2               	3.00409675e+02
3               	3.00600285e+02
4               	3.00784120e+02
5               	3.00964770e+02
6               	3.01143368e+02
7               	3.01320381e+02
8               	3.01496757e+02
9               	3.01672657e+02
10              	3.01848096e+02
11              	3.02023096e+02
12              	3.02198097e+02
13              	3.02373751e+02
14              	3.02547820e+02
15              	3.02720539e+02
16              	3.02890854e+02
17              	3.03062578e+02
18              	3.03232183e+02
19              	3.03399295e+02
20              	3.03563770e+02
21              	3.03725190e+02
22              	3.03884482e+02
23              	3.04042898e+02
24              	3.04200754e+02
25              	3.04357571e+02
26              	3.04513016e+02
27              	3.04667785e+02
28              	3.04818332e+02
29              	3.04964108e+02
30              	3.05106926e+02
31              	3.05245651e+02
32              	3.05385652e+02
33              	3.05525791e+02
34              	3.05664000e+02
35              	3.05800024e+02
36              	3.05933738e+02
37              	3.06065503e+02
38              	3.06198118e+02
39              	3.06330766e+02
40              	3.06461368e+02
41              	3.06591544e+02
42              	3.06717998e+02
43              	3.06843883e+02
44              	3.06968634e+02
45              	3.07097941e+02
46              	3.07225497e+02
47              	3.07350898e+02
48              	3.07475613e+02
49              	3.07599915e+02
50              	3.07722918e+02
51              	3.07844746e+02
52              	3.07965325e+02
53              	3.08084359e+02
54              	3.08202088e+02
55              	3.08320171e+02
56              	3.08438348e+02
57              	3.08556736e+02
58              	3.08676026e+02
59              	3.08795539e+02
60              	3.08915751e+02
61              	3.09036207e+02
62              	3.09157295e+02
63              	3.09278113e+02
64              	3.09398190e+02
65              	3.09518415e+02
66              	3.09637483e+02
67              	3.09754902e+02
68              	3.09871256e+02
69              	3.09985814e+02
70              	3.10097257e+02
71              	3.10205940e+02
72              	3.10312149e+02
73              	3.10415275e+02
74              	3.10518323e+02
75              	3.10620666e+02
76              	3.10723569e+02
77              	3.10828388e+02
78              	3.10935126e+02
79              	3.11042853e+02
80              	3.11150553e+02
81              	3.11257761e+02
82              	3.11362501e+02
83              	3.11464641e+02
84              	3.11564039e+02
85              	3.11660911e+02
86              	3.11755283e+02
87              	3.11847265e+02
88              	3.11937178e+02
89              	3.12026726e+02
90              	3.12117889e+02
91              	3.12211041e+02
92              	3.12304342e+02
93              	3.12398010e+02
94              	3.12489331e+02
95              	3.12578416e+02
96              	3.12664576e+02
97              	3.12746860e+02
98              	3.12825275e+02
99              	3.12900984e+02
100             	3.12975126e+02
101             	3.13049646e+02
102             	3.13124133e+02
103             	3.13198784e+02
104             	3.13273183e+02
105             	3.13347634e+02
106             	3.13421695e+02
107             	3.13495732e+02
108             	3.13569158e+02
109             	3.13641762e+02
110             	3.13713969e+02
111             	3.13785286e+02
112             	3.13856917e+02
113             	3.13928613e+02
114             	3.14000406e+02
115             	3.14072000e+02
116             	3.14142796e+02
117             	3.14212800e+02
118             	3.14281222e+02
119             	3.14347505e+02
120             	3.14411512e+02
121             	3.14473344e+02
122             	3.14533437e+02
123             	3.14591873e+02
124             	3.14650081e+02
125             	3.14708570e+02
126             	3.14767387e+02
127             	3.14826789e+02
128             	3.14886504e+02
129             	3.14946960e+02
130             	3.15007559e+02
131             	3.15067488e+02
132             	3.15126535e+02
133             	3.15183832e+02
134             	3.15238670e+02
135             	3.15291475e+02
136             	3.15343035e+02
137             	3.15393787e+02
138             	3.15444334e+02
139             	3.15494887e+02
140             	3.15545377e+02
141             	3.15595610e+02
142             	3.15645907e+02
143             	3.15695750e+02
144             	3.15745248e+02
145             	3.15794037e+02
146             	3.15842234e+02
147             	3.15889469e+02
148             	3.15936647e+02
149             	3.15983893e+02
150             	3.16030778e+02
151             	3.16077506e+02
152             	3.16124180e+02
153             	3.16170541e+02
154             	3.16216763e+02
155             	3.16262474e+02
156             	3.16307544e+02
157             	3.16351818e+02
158             	3.16395192e+02
159             	3.16437620e+02
160             	3.16479009e+02
161             	3.16519607e+02
162             	3.16559011e+02
163             	3.16598043e+02
164             	3.16636381e+02
165             	3.16674105e+02
166             	3.16711561e+02
167             	3.16748726e+02
168             	3.16785777e+02
169             	3.16822711e+02
170             	3.16859480e+02
171             	3.16896044e+02
172             	3.16932351e+02
173             	3.16968378e+02
174             	3.17004037e+02
175             	3.17038705e+02
176             	3.17073405e+02
177             	3.17107542e+02
178             	3.17141138e+02
179             	3.17173888e+02
180             	3.17206382e+02
181             	3.17238356e+02
182             	3.17269760e+02
183             	3.17300618e+02
184             	3.17330889e+02
185             	3.17360784e+02
186             	3.17390262e+02
187             	3.17419469e+02
188             	3.17448335e+02
189             	3.17476822e+02
190             	3.17504923e+02
191             	3.17532648e+02
192             	3.17559987e+02
193             	3.17586929e+02
194             	3.17613488e+02
195             	3.17639614e+02
196             	3.17665318e+02
197             	3.17690670e+02
198             	3.17715748e+02
199             	3.17740547e+02
200             	3.17765057e+02
201             	3.17789259e+02
202             	3.17813143e+02
203             	3.17836710e+02
204             	3.17859954e+02
205             	3.17882925e+02
206             	3.17905565e+02
207             	3.17927943e+02
208             	3.17950106e+02
209             	3.17972060e+02
210             	3.17993806e+02
211             	3.18015339e+02
212             	3.18036668e+02
213             	3.18057748e+02
214             	3.18078578e+02
215             	3.18099161e+02
216             	3.18119427e+02
217             	3.18139485e+02
218             	3.18159313e+02
219             	3.18178908e+02
220             	3.18198220e+02
221             	3.18217306e+02
222             	3.18236155e+02
223             	3.18254745e+02
224             	3.18273081e+02
225             	3.18291126e+02
226             	3.18308844e+02
227             	3.18326234e+02
228             	3.18343310e+02
229             	3.18360074e+02
230             	3.18376541e+02
231             	3.18392729e+02
232             	3.18408653e+02
233             	3.18424327e+02
234             	3.18439767e+02
235             	3.18454992e+02
236             	3.18469997e+02
237             	3.18484773e+02
238             	3.18499341e+02
239             	3.18513725e+02
240             	3.18527889e+02
241             	3.18541962e+02
242             	3.18555885e+02
243             	3.18569658e+02
244             	3.18583289e+02
245             	3.18596773e+02
246             	3.18610136e+02
247             	3.18623370e+02
248             	3.18636472e+02
249             	3.18649421e+02
250             	3.18662207e+02
251             	3.18674742e+02
252             	3.18687116e+02
253             	3.18699265e+02
254             	3.18711194e+02
255             	3.18722909e+02
256             	3.18734412e+02
257             	3.18745709e+02
258             	3.18756818e+02
259             	3.18767700e+02
260             	3.18778495e+02
261             	3.18789161e+02
262             	3.18799700e+02
263             	3.18810102e+02
264             	3.18820364e+02
265             	3.18830487e+02
266             	3.18840474e+02
267             	3.18850334e+02
268             	3.18860066e+02
269             	3.18869686e+02
270             	3.18879190e+02
271             	3.18888590e+02
272             	3.18897898e+02
273             	3.18907118e+02
274             	3.18916255e+02
275             	3.18925310e+02
276             	3.18934278e+02
277             	3.18943136e+02
278             	3.18951880e+02
279             	3.18960508e+02
280             	3.18969022e+02
281             	3.18977425e+02
282             	3.18985703e+02
283             	3.18993876e+02
284             	3.19001946e+02
285             	3.19009916e+02
286             	3.19017793e+02
287             	3.19025571e+02
288             	3.19033232e+02
289             	3.19040743e+02
290             	3.19048113e+02
291             	3.19055342e+02
292             	3.19062436e+02
293             	3.19069412e+02
294             	3.19076290e+02
295             	3.19083092e+02
296             	3.19089827e+02
297             	3.19096495e+02
298             	3.19103091e+02
299             	3.19109610e+02
300             	3.19116045e+02
301             	3.19122392e+02
302             	3.19128651e+02
303             	3.19134828e+02
304             	3.19140931e+02
305             	3.19146965e+02
306             	3.19152933e+02
307             	3.19158836e+02
308             	3.19164674e+02
309             	3.19170445e+02
310             	3.19176150e+02
311             	3.19181791e+02
312             	3.19187360e+02
313             	3.19192865e+02
314             	3.19198305e+02
315             	3.19203689e+02
316             	3.19209020e+02
317             	3.19214303e+02
318             	3.19219536e+02
319             	3.19224722e+02
320             	3.19229860e+02
321             	3.19234941e+02
322             	3.19239983e+02
323             	3.19244973e+02
324             	3.19249911e+02
325             	3.19254805e+02
326             	3.19259652e+02
327             	3.19264451e+02
328             	3.19269197e+02
329             	3.19273882e+02
330             	3.19278511e+02
331             	3.19283093e+02
332             	3.19287631e+02
333             	3.19292104e+02
334             	3.19296530e+02
335             	3.19300897e+02
336             	3.19305202e+02
337             	3.19309445e+02
338             	3.19313625e+02
339             	3.19317744e+02
340             	3.19321803e+02
341             	3.19325808e+02
342             	3.19329764e+02
343             	3.19333677e+02
344             	3.19337552e+02
345             	3.19341398e+02
346             	3.19345267e+02
347             	3.19349144e+02
348             	3.19353037e+02
349             	3.19356945e+02
350             	3.19360863e+02
351             	3.19364768e+02
352             	3.19368627e+02
353             	3.19372427e+02
354             	3.19376159e+02
355             	3.19379797e+02
356             	3.19383376e+02
357             	3.19386893e+02
358             	3.19390363e+02
359             	3.19393792e+02
360             	3.19397188e+02
361             	3.19400553e+02
362             	3.19403883e+02
363             	3.19407174e+02
364             	3.19410422e+02
365             	3.19413623e+02
366             	3.19416780e+02
367             	3.19419900e+02
368             	3.19422991e+02
369             	3.19426061e+02
370             	3.19429125e+02
371             	3.19432207e+02
372             	3.19435323e+02
373             	3.19438466e+02
374             	3.19441636e+02
375             	3.19444827e+02
376             	3.19448029e+02
377             	3.19451229e+02
378             	3.19454424e+02
379             	3.19457597e+02
380             	3.19460744e+02
381             	3.19463870e+02
382             	3.19466931e+02
383             	3.19469983e+02
384             	3.19472986e+02
385             	3.19475947e+02
386             	3.19478867e+02
387             	3.19481745e+02
388             	3.19484586e+02
389             	3.19487384e+02
390             	3.19490142e+02
391             	3.19492864e+02
392             	3.19495568e+02
393             	3.19498252e+02
394             	3.19500921e+02
395             	3.19503575e+02
396             	3.19506217e+02
397             	3.19508854e+02
398             	3.19511492e+02
399             	3.19514144e+02
400             	3.19516812e+02
401             	3.19519503e+02
402             	3.19522214e+02
403             	3.19524947e+02
404             	3.19527685e+02
405             	3.19530439e+02
406             	3.19533200e+02
407             	3.19535968e+02
408             	3.19538734e+02
409             	3.19541493e+02
410             	3.19544245e+02
411             	3.19546990e+02
412             	3.19549724e+02
413             	3.19552436e+02
414             	3.19555131e+02
415             	3.19557806e+02
416             	3.19560460e+02
417             	3.19563099e+02
418             	3.19565734e+02
419             	3.19568360e+02
420             	3.19570978e+02
421             	3.19573588e+02
422             	3.19576186e+02
423             	3.19578775e+02
424             	3.19581361e+02
425             	3.19583942e+02
426             	3.19586520e+02
427             	3.19589095e+02
428             	3.19591649e+02
429             	3.19594204e+02
430             	3.19596767e+02
431             	3.19599336e+02
432             	3.19601914e+02
433             	3.19604500e+02
434             	3.19607087e+02
435             	3.19609670e+02
436             	3.19612244e+02
437             	3.19614812e+02
438             	3.19617369e+02
439             	3.19619917e+02
440             	3.19622459e+02
441             	3.19625004e+02
442             	3.19627564e+02
443             	3.19630140e+02
444             	3.19632736e+02
445             	3.19635346e+02
446             	3.19637956e+02
447             	3.19640595e+02
448             	3.19643248e+02
449             	3.19645917e+02
450             	3.19648598e+02
451             	3.19651291e+02
452             	3.19653997e+02
453             	3.19656715e+02
454             	3.19659450e+02
455             	3.19662201e+02
456             	3.19664966e+02
457             	3.19667741e+02
458             	3.19670523e+02
459             	3.19673307e+02
460             	3.19676078e+02
461             	3.19678842e+02
462             	3.19681593e+02
463             	3.19684332e+02
464             	3.19687060e+02
465             	3.19689784e+02
466             	3.19692505e+02
467             	3.19695223e+02
468             	3.19697936e+02
469             	3.19700651e+02
470             	3.19703363e+02
471             	3.19706079e+02
472             	3.19708797e+02
473             	3.19711520e+02
474             	3.19714247e+02
475             	3.19716987e+02
476             	3.19719741e+02
477             	3.19722511e+02
478             	3.19725303e+02
479             	3.19728115e+02
480             	3.19730943e+02
481             	3.19733784e+02
482             	3.19736630e+02
483             	3.19739478e+02
484             	3.19742330e+02
485             	3.19745186e+02
486             	3.19748047e+02
487             	3.19750912e+02
488             	3.19753781e+02
489             	3.19756657e+02
490             	3.19759541e+02
491             	3.19762431e+02
492             	3.19765331e+02
493             	3.19768241e+02
494             	3.19771156e+02
495             	3.19774074e+02
496             	3.19776997e+02
497             	3.19779925e+02
498             	3.19782842e+02
499             	3.19785759e+02
500             	3.19788672e+02
501             	3.19791578e+02
502             	3.19794480e+02
503             	3.19797379e+02
504             	3.19800267e+02
505             	3.19803156e+02
506             	3.19806043e+02
507             	3.19808930e+02
508             	3.19811814e+02
509             	3.19814679e+02
510             	3.19817557e+02
511             	3.19820433e+02
512             	3.19823307e+02
513             	3.19826175e+02
514             	3.19829049e+02
515             	3.19831927e+02
516             	3.19834809e+02
517             	3.19837697e+02
518             	3.19840593e+02
519             	3.19843497e+02
520             	3.19846410e+02
521             	3.19849334e+02
522             	3.19852268e+02
523             	3.19855210e+02
524             	3.19858155e+02
525             	3.19861103e+02
526             	3.19864053e+02
527             	3.19867001e+02
528             	3.19869949e+02
529             	3.19872893e+02
530             	3.19875824e+02
531             	3.19878745e+02
532             	3.19881652e+02
533             	3.19884543e+02
534             	3.19887423e+02
535             	3.19890287e+02
536             	3.19893136e+02
537             	3.19895972e+02
538             	3.19898798e+02
539             	3.19901622e+02
540             	3.19904440e+02
541             	3.19907255e+02
542             	3.19910062e+02
543             	3.19912856e+02
544             	3.19915650e+02
545             	3.19918438e+02
546             	3.19921218e+02
547             	3.19923989e+02
548             	3.19926753e+02
549             	3.19929508e+02
550             	3.19932254e+02
551             	3.19934991e+02
552             	3.19937719e+02
553             	3.19940439e+02
554             	3.19943150e+02
555             	3.19945852e+02
556             	3.19948544e+02
557             	3.19951225e+02
558             	3.19953898e+02
559             	3.19956565e+02
560             	3.19959225e+02
561             	3.19961879e+02
562             	3.19964527e+02
563             	3.19967171e+02
564             	3.19969809e+02
565             	3.19972437e+02
566             	3.19975059e+02
567             	3.19977667e+02
568             	3.19980266e+02
569             	3.19982855e+02
570             	3.19985433e+02
571             	3.19988002e+02
572             	3.19990559e+02
573             	3.19993106e+02
574             	3.19995644e+02
575             	3.19998170e+02
576             	3.20000683e+02
577             	3.20003181e+02
578             	3.20005667e+02
579             	3.20008141e+02
580             	3.20010605e+02
581             	3.20013052e+02
582             	3.20015491e+02
583             	3.20017923e+02
584             	3.20020340e+02
585             	3.20022746e+02
586             	3.20025141e+02
587             	3.20027528e+02
588             	3.20029903e+02
589             	3.20032264e+02
590             	3.20034603e+02
591             	3.20036944e+02
592             	3.20039274e+02
593             	3.20041596e+02
594             	3.20043909e+02
595             	3.20046212e+02
596             	3.20048502e+02
597             	3.20050777e+02
598             	3.20053036e+02
599             	3.20055279e+02
600             	3.20057503e+02
601             	3.20059718e+02
602             	3.20061916e+02
603             	3.20064097e+02
604             	3.20066264e+02
605             	3.20068418e+02
606             	3.20070559e+02
607             	3.20072687e+02
608             	3.20074804e+02
609             	3.20076909e+02
610             	3.20079003e+02
611             	3.20081084e+02
612             	3.20083150e+02
613             	3.20085205e+02
614             	3.20087246e+02
615             	3.20089275e+02
616             	3.20091290e+02
617             	3.20093292e+02
618             	3.20095280e+02
619             	3.20097256e+02
620             	3.20099220e+02
621             	3.20101171e+02
