# Region        : cellZone component_2
# Cells         : 72
# Volume        : 1.29467687e-01
# Time          	volAverage(T)
1               	3.00789883e+02
2               	3.01568408e+02
3               	3.02280485e+02
4               	3.02950709e+02
5               	3.03601063e+02
6               	3.04237401e+02
7               	3.04863036e+02
8               	3.05482635e+02
9               	3.06095270e+02
10              	3.06702178e+02
11              	3.07307310e+02
12              	3.07896705e+02
13              	3.08473487e+02
14              	3.09024939e+02
15              	3.09555890e+02
16              	3.10066720e+02
17              	3.10590194e+02
18              	3.11106939e+02
19              	3.11619925e+02
20              	3.12123569e+02
21              	3.12619820e+02
22              	3.13108197e+02
23              	3.13584781e+02
24              	3.14048450e+02
25              	3.14487954e+02
26              	3.14922158e+02
27              	3.15327739e+02
28              	3.15731753e+02
29              	3.16123746e+02
30              	3.16512163e+02
31              	3.16908330e+02
32              	3.17315735e+02
33              	3.17666420e+02
34              	3.17976458e+02
35              	3.18267272e+02
36              	3.18588640e+02
37              	3.18892866e+02
38              	3.19179154e+02
39              	3.19452738e+02
40              	3.19711089e+02
41              	3.19974261e+02
42              	3.20251339e+02
43              	3.20545186e+02
44              	3.20839144e+02
45              	3.21105086e+02
46              	3.21346643e+02
47              	3.21571711e+02
48              	3.21812877e+02
49              	3.22077895e+02
50              	3.22335605e+02
51              	3.22565798e+02
52              	3.22774963e+02
53              	3.22976492e+02
54              	3.23166149e+02
55              	3.23365767e+02
56              	3.23559686e+02
57              	3.23779733e+02
58              	3.23954851e+02
59              	3.24094069e+02
60              	3.24205536e+02
61              	3.24287013e+02
62              	3.24383361e+02
63              	3.24496404e+02
64              	3.24611334e+02
65              	3.24726919e+02
66              	3.24847124e+02
67              	3.24950293e+02
68              	3.25101104e+02
69              	3.25253505e+02
70              	3.25393408e+02
71              	3.25493381e+02
72              	3.25560200e+02
73              	3.25624791e+02
74              	3.25705667e+02
75              	3.25831133e+02
76              	3.25954531e+02
77              	3.26081129e+02
78              	3.26211348e+02
79              	3.26344524e+02
80              	3.26480165e+02
81              	3.26607730e+02
82              	3.26741595e+02
83              	3.26883410e+02
84              	3.27019790e+02
85              	3.27172840e+02
86              	3.27315115e+02
87              	3.27426497e+02
88              	3.27514953e+02
89              	3.27612397e+02
90              	3.27724964e+02
91              	3.27840332e+02
92              	3.27941466e+02
93              	3.28030366e+02
94              	3.28110316e+02
95              	3.28195378e+02
96              	3.28279184e+02
97              	3.28375333e+02
98              	3.28483871e+02
99              	3.28612057e+02
100             	3.28746331e+02
101             	3.28865475e+02
102             	3.28979894e+02
103             	3.29081693e+02
104             	3.29170785e+02
105             	3.29239470e+02
106             	3.29292219e+02
107             	3.29330357e+02
108             	3.29384761e+02
109             	3.29467510e+02
110             	3.29585043e+02
111             	3.29673808e+02
112             	3.29708998e+02
113             	3.29736743e+02
114             	3.29764436e+02
115             	3.29820742e+02
116             	3.29875164e+02
117             	3.29910645e+02
118             	3.29936703e+02
119             	3.29959429e+02
120             	3.29979762e+02
121             	3.30006026e+02
122             	3.30050194e+02
123             	3.30109668e+02
124             	3.30184556e+02
125             	3.30269101e+02
126             	3.30367771e+02
127             	3.30466586e+02
128             	3.30560700e+02
129             	3.30648847e+02
130             	3.30730311e+02
131             	3.30801729e+02
132             	3.30869195e+02
133             	3.30930038e+02
134             	3.30982047e+02
135             	3.31025202e+02
136             	3.31065838e+02
137             	3.31106745e+02
138             	3.31152770e+02
139             	3.31209532e+02
140             	3.31280445e+02
141             	3.31362890e+02
142             	3.31458129e+02
143             	3.31565822e+02
144             	3.31671508e+02
145             	3.31775557e+02
146             	3.31871085e+02
147             	3.31954199e+02
148             	3.32021256e+02
149             	3.32076954e+02
150             	3.32121282e+02
151             	3.32163592e+02
152             	3.32205290e+02
153             	3.32248437e+02
154             	3.32295366e+02
155             	3.32349113e+02
156             	3.32408132e+02
157             	3.32468308e+02
158             	3.32539988e+02
159             	3.32614843e+02
160             	3.32689608e+02
161             	3.32761250e+02
162             	3.32824464e+02
163             	3.32881384e+02
164             	3.32930054e+02
165             	3.32972089e+02
166             	3.33012438e+02
167             	3.33061228e+02
168             	3.33107066e+02
169             	3.33162968e+02
170             	3.33226312e+02
171             	3.33294200e+02
172             	3.33365700e+02
173             	3.33432623e+02
174             	3.33491359e+02
175             	3.33542413e+02
176             	3.33588880e+02
177             	3.33629959e+02
178             	3.33669614e+02
179             	3.33711540e+02
180             	3.33753252e+02
181             	3.33800121e+02
182             	3.33852470e+02
183             	3.33897267e+02
184             	3.33949594e+02
185             	3.34002521e+02
186             	3.34047830e+02
187             	3.34086230e+02
188             	3.34119691e+02
189             	3.34149181e+02
190             	3.34174190e+02
191             	3.34198131e+02
192             	3.34223683e+02
193             	3.34251522e+02
194             	3.34281781e+02
195             	3.34314380e+02
196             	3.34347588e+02
197             	3.34384018e+02
198             	3.34423722e+02
199             	3.34465697e+02
200             	3.34510965e+02
201             	3.34559024e+02
202             	3.34603202e+02
203             	3.34645761e+02
204             	3.34686581e+02
205             	3.34724781e+02
206             	3.34758468e+02
207             	3.34788154e+02
208             	3.34813514e+02
209             	3.34835885e+02
210             	3.34857873e+02
211             	3.34884053e+02
212             	3.34910546e+02
213             	3.34940617e+02
214             	3.34974828e+02
215             	3.35013023e+02
216             	3.35055925e+02
217             	3.35100567e+02
218             	3.35138508e+02
219             	3.35175744e+02
220             	3.35209761e+02
221             	3.35241215e+02
222             	3.35270062e+02
223             	3.35296098e+02
224             	3.35318512e+02
225             	3.35337656e+02
226             	3.35356121e+02
227             	3.35376066e+02
228             	3.35396908e+02
229             	3.35417277e+02
230             	3.35441234e+02
231             	3.35468757e+02
232             	3.35497838e+02
233             	3.35530154e+02
234             	3.35563483e+02
235             	3.35594706e+02
236             	3.35623390e+02
237             	3.35650847e+02
238             	3.35677163e+02
239             	3.35701743e+02
240             	3.35723452e+02
241             	3.35742401e+02
242             	3.35757473e+02
243             	3.35771641e+02
244             	3.35784260e+02
245             	3.35798592e+02
246             	3.35815704e+02
247             	3.35835204e+02
248             	3.35857188e+02
249             	3.35881200e+02
250             	3.35906319e+02
251             	3.35928500e+02
252             	3.35951049e+02
253             	3.35974074e+02
254             	3.35996319e+02
255             	3.36017315e+02
256             	3.36036578e+02
257             	3.36052661e+02
258             	3.36065616e+02
259             	3.36076892e+02
260             	3.36087046e+02
261             	3.36096630e+02
262             	3.36105911e+02
263             	3.36115254e+02
264             	3.36125825e+02
265             	3.36137988e+02
266             	3.36151345e+02
267             	3.36166738e+02
268             	3.36182482e+02
269             	3.36198067e+02
270             	3.36214136e+02
271             	3.36231106e+02
272             	3.36247901e+02
273             	3.36264748e+02
274             	3.36280610e+02
275             	3.36294913e+02
276             	3.36308496e+02
277             	3.36321773e+02
278             	3.36334825e+02
279             	3.36347960e+02
280             	3.36361440e+02
281             	3.36375241e+02
282             	3.36389053e+02
283             	3.36402024e+02
284             	3.36415394e+02
285             	3.36428891e+02
286             	3.36441644e+02
287             	3.36453103e+02
288             	3.36463253e+02
289             	3.36472348e+02
290             	3.36480624e+02
291             	3.36488613e+02
292             	3.36497012e+02
293             	3.36506231e+02
294             	3.36516325e+02
295             	3.36526031e+02
296             	3.36536247e+02
297             	3.36546850e+02
298             	3.36556938e+02
299             	3.36566317e+02
300             	3.36575569e+02
301             	3.36584528e+02
302             	3.36593653e+02
303             	3.36603223e+02
304             	3.36613218e+02
305             	3.36623504e+02
306             	3.36631618e+02
307             	3.36639701e+02
308             	3.36647549e+02
309             	3.36655016e+02
310             	3.36661758e+02
311             	3.36667887e+02
312             	3.36673550e+02
313             	3.36678729e+02
314             	3.36684186e+02
315             	3.36690209e+02
316             	3.36696733e+02
317             	3.36703385e+02
318             	3.36710047e+02
319             	3.36717489e+02
320             	3.36724199e+02
321             	3.36730977e+02
322             	3.36737731e+02
323             	3.36744082e+02
324             	3.36750191e+02
325             	3.36756116e+02
326             	3.36762362e+02
327             	3.36768713e+02
328             	3.36775094e+02
329             	3.36781530e+02
330             	3.36787457e+02
331             	3.36793419e+02
332             	3.36799150e+02
333             	3.36805037e+02
334             	3.36810976e+02
335             	3.36815900e+02
336             	3.36820694e+02
337             	3.36825355e+02
338             	3.36829627e+02
339             	3.36833485e+02
340             	3.36837121e+02
341             	3.36840982e+02
342             	3.36846731e+02
343             	3.36852489e+02
344             	3.36858645e+02
345             	3.36864848e+02
346             	3.36870769e+02
347             	3.36876365e+02
348             	3.36882151e+02
349             	3.36887647e+02
350             	3.36890848e+02
351             	3.36893798e+02
352             	3.36895999e+02
353             	3.36897646e+02
354             	3.36898841e+02
355             	3.36899378e+02
356             	3.36900075e+02
357             	3.36902308e+02
358             	3.36904661e+02
359             	3.36908625e+02
360             	3.36913055e+02
361             	3.36918361e+02
362             	3.36924628e+02
363             	3.36928274e+02
364             	3.36933033e+02
365             	3.36938186e+02
366             	3.36942607e+02
367             	3.36945789e+02
368             	3.36948237e+02
369             	3.36949850e+02
370             	3.36950833e+02
371             	3.36952045e+02
372             	3.36953195e+02
373             	3.36955010e+02
374             	3.36957840e+02
375             	3.36960011e+02
376             	3.36961655e+02
377             	3.36962976e+02
378             	3.36964431e+02
379             	3.36966522e+02
380             	3.36969077e+02
381             	3.36972972e+02
382             	3.36977779e+02
383             	3.36983015e+02
384             	3.36988448e+02
385             	3.36993600e+02
386             	3.36998151e+02
387             	3.37001852e+02
388             	3.37004502e+02
389             	3.37006255e+02
390             	3.37007770e+02
391             	3.37008974e+02
392             	3.37010079e+02
393             	3.37011171e+02
394             	3.37012471e+02
395             	3.37015119e+02
396             	3.37017551e+02
397             	3.37020157e+02
398             	3.37023097e+02
399             	3.37026183e+02
400             	3.37029194e+02
401             	3.37032219e+02
402             	3.37035327e+02
403             	3.37038409e+02
404             	3.37041207e+02
405             	3.37043726e+02
406             	3.37046293e+02
407             	3.37048991e+02
408             	3.37051261e+02
409             	3.37052617e+02
410             	3.37054068e+02
411             	3.37055447e+02
412             	3.37056604e+02
413             	3.37057525e+02
414             	3.37058484e+02
415             	3.37059960e+02
416             	3.37061746e+02
417             	3.37063484e+02
418             	3.37065017e+02
419             	3.37066379e+02
420             	3.37067550e+02
421             	3.37068476e+02
422             	3.37069075e+02
423             	3.37069600e+02
424             	3.37070083e+02
425             	3.37070650e+02
426             	3.37071477e+02
427             	3.37072598e+02
428             	3.37074043e+02
429             	3.37075342e+02
430             	3.37076525e+02
431             	3.37077653e+02
432             	3.37078833e+02
433             	3.37080245e+02
434             	3.37081582e+02
435             	3.37082572e+02
436             	3.37083700e+02
437             	3.37084914e+02
438             	3.37086077e+02
439             	3.37087252e+02
440             	3.37088647e+02
441             	3.37090027e+02
442             	3.37091421e+02
443             	3.37092813e+02
444             	3.37094212e+02
445             	3.37095584e+02
446             	3.37096667e+02
447             	3.37097602e+02
448             	3.37098360e+02
449             	3.37098983e+02
450             	3.37099527e+02
451             	3.37100005e+02
452             	3.37100541e+02
453             	3.37101589e+02
454             	3.37102685e+02
455             	3.37103939e+02
456             	3.37105215e+02
457             	3.37106478e+02
458             	3.37107594e+02
459             	3.37108246e+02
460             	3.37108810e+02
461             	3.37109274e+02
462             	3.37109729e+02
463             	3.37110263e+02
464             	3.37111007e+02
465             	3.37111891e+02
466             	3.37112883e+02
467             	3.37113921e+02
468             	3.37114961e+02
469             	3.37115851e+02
470             	3.37116719e+02
471             	3.37117591e+02
472             	3.37118442e+02
473             	3.37119088e+02
474             	3.37119664e+02
475             	3.37120117e+02
476             	3.37120521e+02
477             	3.37120921e+02
478             	3.37121395e+02
479             	3.37121841e+02
480             	3.37122231e+02
481             	3.37122917e+02
482             	3.37123658e+02
483             	3.37124295e+02
484             	3.37125014e+02
485             	3.37125608e+02
486             	3.37126293e+02
487             	3.37127053e+02
488             	3.37127907e+02
489             	3.37128807e+02
490             	3.37129690e+02
491             	3.37130352e+02
492             	3.37130705e+02
493             	3.37130886e+02
494             	3.37130923e+02
495             	3.37130776e+02
496             	3.37130467e+02
497             	3.37130304e+02
498             	3.37130630e+02
499             	3.37131110e+02
500             	3.37131864e+02
501             	3.37132705e+02
502             	3.37133595e+02
503             	3.37134484e+02
504             	3.37135503e+02
505             	3.37135988e+02
506             	3.37136589e+02
507             	3.37137242e+02
508             	3.37137878e+02
509             	3.37138454e+02
510             	3.37138961e+02
511             	3.37139365e+02
512             	3.37139677e+02
513             	3.37139910e+02
514             	3.37140071e+02
515             	3.37140182e+02
516             	3.37140190e+02
517             	3.37140154e+02
518             	3.37140121e+02
519             	3.37140120e+02
520             	3.37140157e+02
521             	3.37140237e+02
522             	3.37140426e+02
523             	3.37140721e+02
524             	3.37141109e+02
525             	3.37141522e+02
526             	3.37141955e+02
527             	3.37142279e+02
528             	3.37142554e+02
529             	3.37142777e+02
530             	3.37142948e+02
531             	3.37143043e+02
532             	3.37143139e+02
533             	3.37143263e+02
534             	3.37143430e+02
535             	3.37143609e+02
536             	3.37143862e+02
537             	3.37144162e+02
538             	3.37144482e+02
539             	3.37144811e+02
540             	3.37145150e+02
541             	3.37145471e+02
542             	3.37145764e+02
543             	3.37146023e+02
544             	3.37146245e+02
545             	3.37146431e+02
546             	3.37146655e+02
547             	3.37146872e+02
548             	3.37147084e+02
549             	3.37147337e+02
550             	3.37147629e+02
551             	3.37147929e+02
552             	3.37148240e+02
553             	3.37148574e+02
554             	3.37148922e+02
555             	3.37149272e+02
556             	3.37149603e+02
557             	3.37149888e+02
558             	3.37150117e+02
559             	3.37150290e+02
560             	3.37150409e+02
561             	3.37150432e+02
562             	3.37150429e+02
563             	3.37150427e+02
564             	3.37150411e+02
565             	3.37150399e+02
566             	3.37150423e+02
567             	3.37150528e+02
568             	3.37150650e+02
569             	3.37150786e+02
570             	3.37150925e+02
571             	3.37151097e+02
572             	3.37151297e+02
573             	3.37151516e+02
574             	3.37151740e+02
575             	3.37151973e+02
576             	3.37152209e+02
577             	3.37152444e+02
578             	3.37152670e+02
579             	3.37152868e+02
580             	3.37153006e+02
581             	3.37153099e+02
582             	3.37153165e+02
583             	3.37153219e+02
584             	3.37153265e+02
585             	3.37153310e+02
586             	3.37153360e+02
587             	3.37153416e+02
588             	3.37153473e+02
589             	3.37153535e+02
590             	3.37153613e+02
591             	3.37153705e+02
592             	3.37153808e+02
593             	3.37153910e+02
594             	3.37154025e+02
595             	3.37154137e+02
596             	3.37154236e+02
597             	3.37154337e+02
598             	3.37154433e+02
599             	3.37154545e+02
600             	3.37154669e+02
601             	3.37154805e+02
602             	3.37154900e+02
603             	3.37154988e+02
604             	3.37155057e+02
605             	3.37155114e+02
606             	3.37155168e+02
607             	3.37155215e+02
608             	3.37155256e+02
609             	3.37155293e+02
610             	3.37155339e+02
611             	3.37155390e+02
612             	3.37155455e+02
613             	3.37155524e+02
614             	3.37155592e+02
615             	3.37155656e+02
616             	3.37155736e+02
617             	3.37155819e+02
618             	3.37155909e+02
619             	3.37156004e+02
620             	3.37156104e+02
621             	3.37156208e+02
