# Region        : cellZone component_1
# Cells         : 152
# Volume        : 2.97954696e-01
# Time          	volAverage(T)
1               	3.00425296e+02
2               	3.00844671e+02
3               	3.01243512e+02
4               	3.01629762e+02
5               	3.02009117e+02
6               	3.02383291e+02
7               	3.02752937e+02
8               	3.03119054e+02
9               	3.03482666e+02
10              	3.03844259e+02
11              	3.04204268e+02
12              	3.04561727e+02
13              	3.04916273e+02
14              	3.05268760e+02
15              	3.05619942e+02
16              	3.05968963e+02
17              	3.06316349e+02
18              	3.06655579e+02
19              	3.07000600e+02
20              	3.07342430e+02
21              	3.07682809e+02
22              	3.08020635e+02
23              	3.08356175e+02
24              	3.08688556e+02
25              	3.09017197e+02
26              	3.09341875e+02
27              	3.09662540e+02
28              	3.09978803e+02
29              	3.10292497e+02
30              	3.10603982e+02
31              	3.10913769e+02
32              	3.11222237e+02
33              	3.11527228e+02
34              	3.11827177e+02
35              	3.12122713e+02
36              	3.12407069e+02
37              	3.12689615e+02
38              	3.12971244e+02
39              	3.13249185e+02
40              	3.13522693e+02
41              	3.13791161e+02
42              	3.14056391e+02
43              	3.14317841e+02
44              	3.14576087e+02
45              	3.14831411e+02
46              	3.15084831e+02
47              	3.15335965e+02
48              	3.15585719e+02
49              	3.15834277e+02
50              	3.16081497e+02
51              	3.16328799e+02
52              	3.16576037e+02
53              	3.16822393e+02
54              	3.17068545e+02
55              	3.17313123e+02
56              	3.17553986e+02
57              	3.17793294e+02
58              	3.18029002e+02
59              	3.18260074e+02
60              	3.18484572e+02
61              	3.18706707e+02
62              	3.18924180e+02
63              	3.19139563e+02
64              	3.19354210e+02
65              	3.19567373e+02
66              	3.19780397e+02
67              	3.19992753e+02
68              	3.20204871e+02
69              	3.20416386e+02
70              	3.20627090e+02
71              	3.20835603e+02
72              	3.21039312e+02
73              	3.21242358e+02
74              	3.21442590e+02
75              	3.21641210e+02
76              	3.21838057e+02
77              	3.22033292e+02
78              	3.22226890e+02
79              	3.22418922e+02
80              	3.22609000e+02
81              	3.22796089e+02
82              	3.22979925e+02
83              	3.23162936e+02
84              	3.23343009e+02
85              	3.23521263e+02
86              	3.23697613e+02
87              	3.23872721e+02
88              	3.24045998e+02
89              	3.24216321e+02
90              	3.24383898e+02
91              	3.24548743e+02
92              	3.24710011e+02
93              	3.24868994e+02
94              	3.25025588e+02
95              	3.25180177e+02
96              	3.25332943e+02
97              	3.25484230e+02
98              	3.25634290e+02
99              	3.25783229e+02
100             	3.25930766e+02
101             	3.26076196e+02
102             	3.26219853e+02
103             	3.26361175e+02
104             	3.26500115e+02
105             	3.26636773e+02
106             	3.26771395e+02
107             	3.26904311e+02
108             	3.27035760e+02
109             	3.27166138e+02
110             	3.27295731e+02
111             	3.27424563e+02
112             	3.27553254e+02
113             	3.27681471e+02
114             	3.27809032e+02
115             	3.27935506e+02
116             	3.28060652e+02
117             	3.28184397e+02
118             	3.28306517e+02
119             	3.28426881e+02
120             	3.28545307e+02
121             	3.28662267e+02
122             	3.28778069e+02
123             	3.28892486e+02
124             	3.29005874e+02
125             	3.29118181e+02
126             	3.29229401e+02
127             	3.29339643e+02
128             	3.29448823e+02
129             	3.29556762e+02
130             	3.29663480e+02
131             	3.29768931e+02
132             	3.29873134e+02
133             	3.29976118e+02
134             	3.30077933e+02
135             	3.30178452e+02
136             	3.30277708e+02
137             	3.30375583e+02
138             	3.30471873e+02
139             	3.30566785e+02
140             	3.30660134e+02
141             	3.30751908e+02
142             	3.30842186e+02
143             	3.30931045e+02
144             	3.31018563e+02
145             	3.31104739e+02
146             	3.31189839e+02
147             	3.31274117e+02
148             	3.31357685e+02
149             	3.31440478e+02
150             	3.31522397e+02
151             	3.31603292e+02
152             	3.31683170e+02
153             	3.31761764e+02
154             	3.31838748e+02
155             	3.31914601e+02
156             	3.31989232e+02
157             	3.32062635e+02
158             	3.32134945e+02
159             	3.32206201e+02
160             	3.32276358e+02
161             	3.32345587e+02
162             	3.32413993e+02
163             	3.32481976e+02
164             	3.32549188e+02
165             	3.32615703e+02
166             	3.32681496e+02
167             	3.32746280e+02
168             	3.32809999e+02
169             	3.32872497e+02
170             	3.32933732e+02
171             	3.32993757e+02
172             	3.33052695e+02
173             	3.33110133e+02
174             	3.33166949e+02
175             	3.33223341e+02
176             	3.33279239e+02
177             	3.33334527e+02
178             	3.33389539e+02
179             	3.33444050e+02
180             	3.33497685e+02
181             	3.33550469e+02
182             	3.33602241e+02
183             	3.33652936e+02
184             	3.33702657e+02
185             	3.33751446e+02
186             	3.33799360e+02
187             	3.33846400e+02
188             	3.33892735e+02
189             	3.33938450e+02
190             	3.33983591e+02
191             	3.34028146e+02
192             	3.34072063e+02
193             	3.34115266e+02
194             	3.34157783e+02
195             	3.34199656e+02
196             	3.34240752e+02
197             	3.34281066e+02
198             	3.34320557e+02
199             	3.34359295e+02
200             	3.34397386e+02
201             	3.34434893e+02
202             	3.34471869e+02
203             	3.34508324e+02
204             	3.34544269e+02
205             	3.34579698e+02
206             	3.34614685e+02
207             	3.34649195e+02
208             	3.34683269e+02
209             	3.34716849e+02
210             	3.34749900e+02
211             	3.34782395e+02
212             	3.34814314e+02
213             	3.34845685e+02
214             	3.34876472e+02
215             	3.34906683e+02
216             	3.34936342e+02
217             	3.34965467e+02
218             	3.34994067e+02
219             	3.35022189e+02
220             	3.35049888e+02
221             	3.35077147e+02
222             	3.35103936e+02
223             	3.35130219e+02
224             	3.35156051e+02
225             	3.35181482e+02
226             	3.35206468e+02
227             	3.35231031e+02
228             	3.35255161e+02
229             	3.35278872e+02
230             	3.35302139e+02
231             	3.35325124e+02
232             	3.35347810e+02
233             	3.35370195e+02
234             	3.35392225e+02
235             	3.35413843e+02
236             	3.35434944e+02
237             	3.35455756e+02
238             	3.35476187e+02
239             	3.35496196e+02
240             	3.35515780e+02
241             	3.35534918e+02
242             	3.35553729e+02
243             	3.35572159e+02
244             	3.35590242e+02
245             	3.35607958e+02
246             	3.35625297e+02
247             	3.35642360e+02
248             	3.35659143e+02
249             	3.35675671e+02
250             	3.35691960e+02
251             	3.35708009e+02
252             	3.35723830e+02
253             	3.35739457e+02
254             	3.35754857e+02
255             	3.35770015e+02
256             	3.35784896e+02
257             	3.35799451e+02
258             	3.35813720e+02
259             	3.35827605e+02
260             	3.35841206e+02
261             	3.35854540e+02
262             	3.35867591e+02
263             	3.35880388e+02
264             	3.35892926e+02
265             	3.35905213e+02
266             	3.35917214e+02
267             	3.35929110e+02
268             	3.35940805e+02
269             	3.35952323e+02
270             	3.35963654e+02
271             	3.35974788e+02
272             	3.35985731e+02
273             	3.35996495e+02
274             	3.36007056e+02
275             	3.36017487e+02
276             	3.36027754e+02
277             	3.36037852e+02
278             	3.36047758e+02
279             	3.36057462e+02
280             	3.36066947e+02
281             	3.36076200e+02
282             	3.36085222e+02
283             	3.36094023e+02
284             	3.36102618e+02
285             	3.36111026e+02
286             	3.36119269e+02
287             	3.36127351e+02
288             	3.36135292e+02
289             	3.36143094e+02
290             	3.36150751e+02
291             	3.36158276e+02
292             	3.36165675e+02
293             	3.36172959e+02
294             	3.36180128e+02
295             	3.36187180e+02
296             	3.36194113e+02
297             	3.36200926e+02
298             	3.36207577e+02
299             	3.36214108e+02
300             	3.36220507e+02
301             	3.36226767e+02
302             	3.36232886e+02
303             	3.36238868e+02
304             	3.36244720e+02
305             	3.36250440e+02
306             	3.36256018e+02
307             	3.36261503e+02
308             	3.36266877e+02
309             	3.36272130e+02
310             	3.36277266e+02
311             	3.36282281e+02
312             	3.36287225e+02
313             	3.36292073e+02
314             	3.36296824e+02
315             	3.36301485e+02
316             	3.36306063e+02
317             	3.36310529e+02
318             	3.36314918e+02
319             	3.36319223e+02
320             	3.36323424e+02
321             	3.36327532e+02
322             	3.36331566e+02
323             	3.36335517e+02
324             	3.36339377e+02
325             	3.36343149e+02
326             	3.36346835e+02
327             	3.36350444e+02
328             	3.36353983e+02
329             	3.36357451e+02
330             	3.36360858e+02
331             	3.36364200e+02
332             	3.36367481e+02
333             	3.36370699e+02
334             	3.36373850e+02
335             	3.36376933e+02
336             	3.36379944e+02
337             	3.36382893e+02
338             	3.36385778e+02
339             	3.36388602e+02
340             	3.36391368e+02
341             	3.36394079e+02
342             	3.36396737e+02
343             	3.36399344e+02
344             	3.36401903e+02
345             	3.36404409e+02
346             	3.36406864e+02
347             	3.36409265e+02
348             	3.36411611e+02
349             	3.36413902e+02
350             	3.36416140e+02
351             	3.36418324e+02
352             	3.36420457e+02
353             	3.36422538e+02
354             	3.36424570e+02
355             	3.36426553e+02
356             	3.36428488e+02
357             	3.36430376e+02
358             	3.36432220e+02
359             	3.36434019e+02
360             	3.36435775e+02
361             	3.36437492e+02
362             	3.36439172e+02
363             	3.36440817e+02
364             	3.36442429e+02
365             	3.36444007e+02
366             	3.36445549e+02
367             	3.36447058e+02
368             	3.36448530e+02
369             	3.36449966e+02
370             	3.36451365e+02
371             	3.36452730e+02
372             	3.36454061e+02
373             	3.36455361e+02
374             	3.36456632e+02
375             	3.36457876e+02
376             	3.36459093e+02
377             	3.36460285e+02
378             	3.36461453e+02
379             	3.36462597e+02
380             	3.36463718e+02
381             	3.36464817e+02
382             	3.36465894e+02
383             	3.36466949e+02
384             	3.36467983e+02
385             	3.36468997e+02
386             	3.36469988e+02
387             	3.36470960e+02
388             	3.36471910e+02
389             	3.36472839e+02
390             	3.36473747e+02
391             	3.36474632e+02
392             	3.36475495e+02
393             	3.36476335e+02
394             	3.36477155e+02
395             	3.36477953e+02
396             	3.36478731e+02
397             	3.36479489e+02
398             	3.36480229e+02
399             	3.36480951e+02
400             	3.36481656e+02
401             	3.36482345e+02
402             	3.36483017e+02
403             	3.36483675e+02
404             	3.36484316e+02
405             	3.36484942e+02
406             	3.36485552e+02
407             	3.36486145e+02
408             	3.36486723e+02
409             	3.36487286e+02
410             	3.36487836e+02
411             	3.36488372e+02
412             	3.36488894e+02
413             	3.36489404e+02
414             	3.36489900e+02
415             	3.36490383e+02
416             	3.36490853e+02
417             	3.36491309e+02
418             	3.36491751e+02
419             	3.36492175e+02
420             	3.36492592e+02
421             	3.36493000e+02
422             	3.36493398e+02
423             	3.36493788e+02
424             	3.36494170e+02
425             	3.36494544e+02
426             	3.36494911e+02
427             	3.36495271e+02
428             	3.36495621e+02
429             	3.36495965e+02
430             	3.36496301e+02
431             	3.36496628e+02
432             	3.36496948e+02
433             	3.36497262e+02
434             	3.36497570e+02
435             	3.36497873e+02
436             	3.36498171e+02
437             	3.36498467e+02
438             	3.36498760e+02
439             	3.36499049e+02
440             	3.36499334e+02
441             	3.36499613e+02
442             	3.36499887e+02
443             	3.36500155e+02
444             	3.36500416e+02
445             	3.36500671e+02
446             	3.36500921e+02
447             	3.36501165e+02
448             	3.36501405e+02
449             	3.36501641e+02
450             	3.36501875e+02
451             	3.36502107e+02
452             	3.36502336e+02
453             	3.36502562e+02
454             	3.36502785e+02
455             	3.36503005e+02
456             	3.36503220e+02
457             	3.36503432e+02
458             	3.36503638e+02
459             	3.36503840e+02
460             	3.36504037e+02
461             	3.36504229e+02
462             	3.36504415e+02
463             	3.36504596e+02
464             	3.36504772e+02
465             	3.36504944e+02
466             	3.36505110e+02
467             	3.36505271e+02
468             	3.36505427e+02
469             	3.36505576e+02
470             	3.36505720e+02
471             	3.36505858e+02
472             	3.36505989e+02
473             	3.36506115e+02
474             	3.36506236e+02
475             	3.36506353e+02
476             	3.36506467e+02
477             	3.36506577e+02
478             	3.36506685e+02
479             	3.36506791e+02
480             	3.36506895e+02
481             	3.36506997e+02
482             	3.36507098e+02
483             	3.36507198e+02
484             	3.36507297e+02
485             	3.36507395e+02
486             	3.36507492e+02
487             	3.36507587e+02
488             	3.36507681e+02
489             	3.36507774e+02
490             	3.36507865e+02
491             	3.36507953e+02
492             	3.36508040e+02
493             	3.36508124e+02
494             	3.36508206e+02
495             	3.36508286e+02
496             	3.36508363e+02
497             	3.36508440e+02
498             	3.36508515e+02
499             	3.36508588e+02
500             	3.36508659e+02
501             	3.36508719e+02
502             	3.36508787e+02
503             	3.36508861e+02
504             	3.36508938e+02
505             	3.36509014e+02
506             	3.36509093e+02
507             	3.36509163e+02
508             	3.36509238e+02
509             	3.36509313e+02
510             	3.36509385e+02
511             	3.36509456e+02
512             	3.36509525e+02
513             	3.36509593e+02
514             	3.36509660e+02
515             	3.36509727e+02
516             	3.36509794e+02
517             	3.36509865e+02
518             	3.36509937e+02
519             	3.36510012e+02
520             	3.36510088e+02
521             	3.36510165e+02
522             	3.36510243e+02
523             	3.36510314e+02
524             	3.36510390e+02
525             	3.36510468e+02
526             	3.36510543e+02
527             	3.36510617e+02
528             	3.36510689e+02
529             	3.36510759e+02
530             	3.36510829e+02
531             	3.36510897e+02
532             	3.36510965e+02
533             	3.36511031e+02
534             	3.36511095e+02
535             	3.36511158e+02
536             	3.36511220e+02
537             	3.36511280e+02
538             	3.36511337e+02
539             	3.36511393e+02
540             	3.36511447e+02
541             	3.36511498e+02
542             	3.36511548e+02
543             	3.36511595e+02
544             	3.36511641e+02
545             	3.36511686e+02
546             	3.36511729e+02
547             	3.36511772e+02
548             	3.36511813e+02
549             	3.36511855e+02
550             	3.36511896e+02
551             	3.36511936e+02
552             	3.36511976e+02
553             	3.36512018e+02
554             	3.36512060e+02
555             	3.36512102e+02
556             	3.36512147e+02
557             	3.36512191e+02
558             	3.36512237e+02
559             	3.36512282e+02
560             	3.36512329e+02
561             	3.36512375e+02
562             	3.36512422e+02
563             	3.36512470e+02
564             	3.36512517e+02
565             	3.36512565e+02
566             	3.36512612e+02
567             	3.36512659e+02
568             	3.36512706e+02
569             	3.36512753e+02
570             	3.36512799e+02
571             	3.36512845e+02
572             	3.36512891e+02
573             	3.36512938e+02
574             	3.36512984e+02
575             	3.36513031e+02
576             	3.36513079e+02
577             	3.36513127e+02
578             	3.36513176e+02
579             	3.36513226e+02
580             	3.36513276e+02
581             	3.36513327e+02
582             	3.36513378e+02
583             	3.36513431e+02
584             	3.36513486e+02
585             	3.36513542e+02
586             	3.36513599e+02
587             	3.36513659e+02
588             	3.36513719e+02
589             	3.36513783e+02
590             	3.36513836e+02
591             	3.36513899e+02
592             	3.36513966e+02
593             	3.36514036e+02
594             	3.36514103e+02
595             	3.36514172e+02
596             	3.36514244e+02
597             	3.36514308e+02
598             	3.36514378e+02
599             	3.36514450e+02
600             	3.36514523e+02
601             	3.36514597e+02
602             	3.36514672e+02
603             	3.36514748e+02
604             	3.36514826e+02
605             	3.36514905e+02
606             	3.36514984e+02
607             	3.36515064e+02
608             	3.36515142e+02
609             	3.36515222e+02
610             	3.36515295e+02
611             	3.36515372e+02
612             	3.36515451e+02
613             	3.36515530e+02
614             	3.36515605e+02
615             	3.36515684e+02
616             	3.36515765e+02
617             	3.36515848e+02
618             	3.36515931e+02
619             	3.36516011e+02
620             	3.36516096e+02
621             	3.36516184e+02
