# Region        : cellZone component_4
# Cells         : 256
# Volume        : 4.93622046e-01
# Time          	volAverage(T)
1               	3.00887456e+02
2               	3.01767139e+02
3               	3.02586147e+02
4               	3.03365867e+02
5               	3.04125697e+02
6               	3.04864660e+02
7               	3.05597214e+02
8               	3.06311155e+02
9               	3.07019339e+02
10              	3.07725232e+02
11              	3.08407283e+02
12              	3.09090992e+02
13              	3.09760031e+02
14              	3.10420861e+02
15              	3.11074650e+02
16              	3.11710622e+02
17              	3.12343323e+02
18              	3.12965392e+02
19              	3.13572007e+02
20              	3.14171703e+02
21              	3.14755385e+02
22              	3.15329513e+02
23              	3.15896105e+02
24              	3.16448123e+02
25              	3.16988171e+02
26              	3.17539393e+02
27              	3.18084606e+02
28              	3.18624293e+02
29              	3.19159615e+02
30              	3.19687576e+02
31              	3.20208830e+02
32              	3.20736481e+02
33              	3.21249441e+02
34              	3.21757555e+02
35              	3.22263605e+02
36              	3.22763998e+02
37              	3.23238534e+02
38              	3.23700788e+02
39              	3.24140231e+02
40              	3.24558951e+02
41              	3.24954583e+02
42              	3.25311890e+02
43              	3.25654953e+02
44              	3.25985745e+02
45              	3.26299793e+02
46              	3.26618406e+02
47              	3.26963341e+02
48              	3.27334633e+02
49              	3.27713653e+02
50              	3.28109136e+02
51              	3.28501091e+02
52              	3.28894067e+02
53              	3.29286633e+02
54              	3.29671603e+02
55              	3.30057627e+02
56              	3.30434415e+02
57              	3.30802720e+02
58              	3.31156058e+02
59              	3.31510694e+02
60              	3.31841123e+02
61              	3.32164309e+02
62              	3.32484967e+02
63              	3.32797999e+02
64              	3.33091617e+02
65              	3.33379729e+02
66              	3.33664456e+02
67              	3.33932674e+02
68              	3.34191719e+02
69              	3.34449059e+02
70              	3.34700008e+02
71              	3.34947179e+02
72              	3.35195107e+02
73              	3.35439770e+02
74              	3.35692747e+02
75              	3.35941827e+02
76              	3.36188495e+02
77              	3.36435579e+02
78              	3.36692068e+02
79              	3.36939136e+02
80              	3.37180668e+02
81              	3.37422991e+02
82              	3.37655745e+02
83              	3.37881961e+02
84              	3.38096283e+02
85              	3.38300937e+02
86              	3.38497081e+02
87              	3.38687362e+02
88              	3.38861361e+02
89              	3.39024074e+02
90              	3.39183645e+02
91              	3.39332670e+02
92              	3.39469298e+02
93              	3.39589947e+02
94              	3.39706754e+02
95              	3.39811623e+02
96              	3.39910762e+02
97              	3.40003118e+02
98              	3.40085810e+02
99              	3.40165494e+02
100             	3.40242122e+02
101             	3.40322182e+02
102             	3.40397982e+02
103             	3.40474408e+02
104             	3.40553226e+02
105             	3.40635748e+02
106             	3.40716236e+02
107             	3.40798355e+02
108             	3.40882541e+02
109             	3.40968331e+02
110             	3.41060606e+02
111             	3.41154160e+02
112             	3.41248619e+02
113             	3.41345780e+02
114             	3.41441517e+02
115             	3.41533532e+02
116             	3.41626872e+02
117             	3.41720782e+02
118             	3.41810418e+02
119             	3.41903404e+02
120             	3.41988691e+02
121             	3.42070187e+02
122             	3.42151038e+02
123             	3.42222655e+02
124             	3.42287733e+02
125             	3.42341071e+02
126             	3.42387915e+02
127             	3.42425913e+02
128             	3.42457037e+02
129             	3.42484296e+02
130             	3.42505653e+02
131             	3.42523348e+02
132             	3.42529125e+02
133             	3.42536671e+02
134             	3.42543387e+02
135             	3.42545878e+02
136             	3.42547328e+02
137             	3.42548794e+02
138             	3.42551757e+02
139             	3.42556380e+02
140             	3.42562827e+02
141             	3.42570976e+02
142             	3.42579014e+02
143             	3.42593914e+02
144             	3.42615962e+02
145             	3.42645896e+02
146             	3.42679965e+02
147             	3.42719070e+02
148             	3.42772140e+02
149             	3.42827344e+02
150             	3.42885113e+02
151             	3.42951493e+02
152             	3.43025752e+02
153             	3.43102780e+02
154             	3.43185683e+02
155             	3.43278140e+02
156             	3.43377496e+02
157             	3.43472062e+02
158             	3.43568860e+02
159             	3.43666018e+02
160             	3.43765580e+02
161             	3.43863370e+02
162             	3.43963093e+02
163             	3.44062797e+02
164             	3.44162362e+02
165             	3.44261196e+02
166             	3.44357015e+02
167             	3.44452855e+02
168             	3.44545021e+02
169             	3.44636726e+02
170             	3.44724070e+02
171             	3.44806150e+02
172             	3.44883051e+02
173             	3.44954788e+02
174             	3.45022064e+02
175             	3.45083008e+02
176             	3.45140564e+02
177             	3.45195477e+02
178             	3.45246865e+02
179             	3.45295151e+02
180             	3.45338866e+02
181             	3.45379708e+02
182             	3.45415088e+02
183             	3.45448257e+02
184             	3.45479873e+02
185             	3.45506085e+02
186             	3.45529770e+02
187             	3.45550927e+02
188             	3.45570835e+02
189             	3.45589651e+02
190             	3.45605225e+02
191             	3.45618159e+02
192             	3.45631063e+02
193             	3.45642677e+02
194             	3.45653249e+02
195             	3.45663472e+02
196             	3.45672199e+02
197             	3.45680025e+02
198             	3.45687453e+02
199             	3.45695716e+02
200             	3.45706196e+02
201             	3.45717245e+02
202             	3.45729492e+02
203             	3.45742954e+02
204             	3.45758377e+02
205             	3.45774725e+02
206             	3.45792412e+02
207             	3.45809590e+02
208             	3.45829205e+02
209             	3.45850476e+02
210             	3.45872071e+02
211             	3.45894217e+02
212             	3.45917731e+02
213             	3.45943175e+02
214             	3.45970068e+02
215             	3.45999264e+02
216             	3.46029901e+02
217             	3.46062522e+02
218             	3.46097922e+02
219             	3.46133388e+02
220             	3.46172072e+02
221             	3.46214176e+02
222             	3.46254003e+02
223             	3.46294621e+02
224             	3.46336612e+02
225             	3.46379880e+02
226             	3.46422836e+02
227             	3.46467229e+02
228             	3.46511836e+02
229             	3.46555768e+02
230             	3.46598788e+02
231             	3.46640742e+02
232             	3.46682772e+02
233             	3.46724147e+02
234             	3.46765416e+02
235             	3.46804927e+02
236             	3.46844814e+02
237             	3.46884229e+02
238             	3.46922794e+02
239             	3.46957946e+02
240             	3.46992399e+02
241             	3.47026297e+02
242             	3.47058070e+02
243             	3.47089625e+02
244             	3.47120312e+02
245             	3.47151037e+02
246             	3.47182198e+02
247             	3.47209033e+02
248             	3.47234898e+02
249             	3.47259638e+02
250             	3.47284118e+02
251             	3.47307800e+02
252             	3.47330938e+02
253             	3.47353670e+02
254             	3.47374259e+02
255             	3.47393444e+02
256             	3.47410483e+02
257             	3.47426543e+02
258             	3.47440092e+02
259             	3.47451322e+02
260             	3.47460585e+02
261             	3.47468859e+02
262             	3.47475430e+02
263             	3.47480276e+02
264             	3.47484126e+02
265             	3.47486599e+02
266             	3.47488036e+02
267             	3.47488418e+02
268             	3.47487589e+02
269             	3.47486894e+02
270             	3.47484861e+02
271             	3.47483202e+02
272             	3.47482183e+02
273             	3.47480591e+02
274             	3.47481113e+02
275             	3.47482859e+02
276             	3.47484789e+02
277             	3.47486773e+02
278             	3.47488887e+02
279             	3.47492079e+02
280             	3.47497095e+02
281             	3.47503457e+02
282             	3.47511197e+02
283             	3.47520505e+02
284             	3.47530545e+02
285             	3.47542764e+02
286             	3.47556909e+02
287             	3.47573565e+02
288             	3.47591257e+02
289             	3.47612011e+02
290             	3.47635098e+02
291             	3.47659431e+02
292             	3.47685347e+02
293             	3.47711774e+02
294             	3.47740178e+02
295             	3.47768682e+02
296             	3.47798151e+02
297             	3.47828058e+02
298             	3.47857096e+02
299             	3.47886102e+02
300             	3.47914223e+02
301             	3.47942747e+02
302             	3.47969296e+02
303             	3.47995221e+02
304             	3.48020454e+02
305             	3.48044248e+02
306             	3.48067293e+02
307             	3.48089043e+02
308             	3.48110446e+02
309             	3.48130486e+02
310             	3.48150094e+02
311             	3.48167737e+02
312             	3.48183969e+02
313             	3.48199068e+02
314             	3.48212835e+02
315             	3.48225210e+02
316             	3.48236585e+02
317             	3.48247001e+02
318             	3.48256343e+02
319             	3.48265613e+02
320             	3.48272331e+02
321             	3.48279554e+02
322             	3.48286873e+02
323             	3.48293286e+02
324             	3.48298948e+02
325             	3.48303908e+02
326             	3.48308250e+02
327             	3.48311908e+02
328             	3.48315035e+02
329             	3.48317900e+02
330             	3.48320411e+02
331             	3.48322670e+02
332             	3.48324397e+02
333             	3.48325529e+02
334             	3.48325865e+02
335             	3.48325578e+02
336             	3.48325488e+02
337             	3.48325248e+02
338             	3.48324196e+02
339             	3.48322588e+02
340             	3.48321010e+02
341             	3.48320588e+02
342             	3.48320169e+02
343             	3.48321654e+02
344             	3.48324119e+02
345             	3.48326417e+02
346             	3.48329018e+02
347             	3.48332310e+02
348             	3.48335938e+02
349             	3.48339882e+02
350             	3.48344036e+02
351             	3.48348422e+02
352             	3.48353582e+02
353             	3.48359819e+02
354             	3.48366505e+02
355             	3.48374048e+02
356             	3.48382099e+02
357             	3.48390912e+02
358             	3.48400150e+02
359             	3.48412114e+02
360             	3.48423732e+02
361             	3.48435545e+02
362             	3.48447734e+02
363             	3.48458367e+02
364             	3.48469727e+02
365             	3.48480880e+02
366             	3.48490944e+02
367             	3.48501492e+02
368             	3.48514113e+02
369             	3.48526678e+02
370             	3.48539349e+02
371             	3.48551777e+02
372             	3.48563959e+02
373             	3.48576104e+02
374             	3.48587626e+02
375             	3.48598995e+02
376             	3.48609921e+02
377             	3.48621023e+02
378             	3.48631375e+02
379             	3.48640601e+02
380             	3.48649227e+02
381             	3.48657164e+02
382             	3.48665060e+02
383             	3.48672376e+02
384             	3.48680023e+02
385             	3.48686366e+02
386             	3.48692062e+02
387             	3.48697188e+02
388             	3.48701213e+02
389             	3.48704891e+02
390             	3.48707795e+02
391             	3.48710041e+02
392             	3.48711702e+02
393             	3.48713227e+02
394             	3.48713976e+02
395             	3.48714179e+02
396             	3.48713947e+02
397             	3.48713370e+02
398             	3.48712795e+02
399             	3.48712042e+02
400             	3.48711761e+02
401             	3.48711679e+02
402             	3.48711773e+02
403             	3.48711872e+02
404             	3.48712114e+02
405             	3.48712549e+02
406             	3.48713193e+02
407             	3.48714002e+02
408             	3.48714895e+02
409             	3.48715783e+02
410             	3.48716863e+02
411             	3.48717989e+02
412             	3.48719248e+02
413             	3.48720569e+02
414             	3.48721930e+02
415             	3.48723498e+02
416             	3.48725362e+02
417             	3.48727561e+02
418             	3.48729739e+02
419             	3.48731985e+02
420             	3.48735252e+02
421             	3.48739179e+02
422             	3.48743504e+02
423             	3.48747949e+02
424             	3.48752829e+02
425             	3.48758048e+02
426             	3.48763672e+02
427             	3.48769596e+02
428             	3.48775937e+02
429             	3.48782413e+02
430             	3.48788975e+02
431             	3.48795919e+02
432             	3.48802847e+02
433             	3.48809984e+02
434             	3.48817048e+02
435             	3.48823787e+02
436             	3.48830351e+02
437             	3.48836854e+02
438             	3.48843360e+02
439             	3.48849569e+02
440             	3.48855347e+02
441             	3.48860604e+02
442             	3.48865673e+02
443             	3.48870370e+02
444             	3.48875004e+02
445             	3.48879596e+02
446             	3.48883880e+02
447             	3.48887999e+02
448             	3.48891861e+02
449             	3.48894976e+02
450             	3.48898704e+02
451             	3.48902486e+02
452             	3.48906330e+02
453             	3.48909797e+02
454             	3.48912769e+02
455             	3.48915345e+02
456             	3.48917701e+02
457             	3.48919556e+02
458             	3.48921572e+02
459             	3.48923271e+02
460             	3.48924567e+02
461             	3.48925501e+02
462             	3.48926102e+02
463             	3.48926238e+02
464             	3.48925891e+02
465             	3.48925065e+02
466             	3.48923732e+02
467             	3.48922049e+02
468             	3.48919902e+02
469             	3.48917516e+02
470             	3.48914813e+02
471             	3.48912086e+02
472             	3.48909408e+02
473             	3.48906885e+02
474             	3.48904480e+02
475             	3.48902154e+02
476             	3.48900117e+02
477             	3.48898333e+02
478             	3.48897185e+02
479             	3.48896527e+02
480             	3.48895215e+02
481             	3.48893894e+02
482             	3.48892924e+02
483             	3.48892341e+02
484             	3.48892072e+02
485             	3.48892122e+02
486             	3.48892497e+02
487             	3.48893230e+02
488             	3.48894488e+02
489             	3.48896579e+02
490             	3.48898991e+02
491             	3.48901479e+02
492             	3.48904636e+02
493             	3.48908334e+02
494             	3.48912256e+02
495             	3.48916520e+02
496             	3.48921241e+02
497             	3.48926364e+02
498             	3.48932053e+02
499             	3.48938007e+02
500             	3.48944159e+02
501             	3.48950483e+02
502             	3.48956964e+02
503             	3.48963668e+02
504             	3.48970463e+02
505             	3.48977692e+02
506             	3.48984407e+02
507             	3.48991019e+02
508             	3.48997316e+02
509             	3.49003951e+02
510             	3.49009888e+02
511             	3.49015451e+02
512             	3.49020506e+02
513             	3.49024895e+02
514             	3.49028803e+02
515             	3.49032019e+02
516             	3.49034626e+02
517             	3.49036591e+02
518             	3.49038043e+02
519             	3.49039002e+02
520             	3.49039044e+02
521             	3.49038348e+02
522             	3.49037048e+02
523             	3.49035133e+02
524             	3.49032666e+02
525             	3.49029694e+02
526             	3.49026377e+02
527             	3.49022849e+02
528             	3.49019066e+02
529             	3.49015229e+02
530             	3.49011089e+02
531             	3.49007266e+02
532             	3.49003900e+02
533             	3.49000626e+02
534             	3.48997480e+02
535             	3.48994399e+02
536             	3.48991723e+02
537             	3.48989291e+02
538             	3.48987363e+02
539             	3.48985671e+02
540             	3.48984362e+02
541             	3.48983590e+02
542             	3.48983199e+02
543             	3.48983082e+02
544             	3.48983543e+02
545             	3.48984400e+02
546             	3.48985780e+02
547             	3.48987723e+02
548             	3.48990163e+02
549             	3.48993105e+02
550             	3.48996401e+02
551             	3.49000096e+02
552             	3.49004105e+02
553             	3.49008478e+02
554             	3.49013071e+02
555             	3.49017387e+02
556             	3.49021763e+02
557             	3.49026211e+02
558             	3.49030840e+02
559             	3.49035269e+02
560             	3.49039846e+02
561             	3.49044524e+02
562             	3.49049244e+02
563             	3.49054092e+02
564             	3.49058785e+02
565             	3.49063353e+02
566             	3.49067331e+02
567             	3.49071210e+02
568             	3.49074917e+02
569             	3.49078362e+02
570             	3.49081578e+02
571             	3.49084364e+02
572             	3.49086746e+02
573             	3.49088587e+02
574             	3.49090106e+02
575             	3.49091260e+02
576             	3.49092028e+02
577             	3.49092134e+02
578             	3.49092147e+02
579             	3.49091691e+02
580             	3.49090898e+02
581             	3.49089554e+02
582             	3.49088061e+02
583             	3.49086197e+02
584             	3.49084095e+02
585             	3.49081785e+02
586             	3.49079260e+02
587             	3.49076671e+02
588             	3.49074111e+02
589             	3.49071602e+02
590             	3.49069301e+02
591             	3.49066980e+02
592             	3.49064979e+02
593             	3.49063206e+02
594             	3.49061702e+02
595             	3.49060538e+02
596             	3.49059723e+02
597             	3.49059235e+02
598             	3.49059004e+02
599             	3.49059069e+02
600             	3.49059404e+02
601             	3.49059963e+02
602             	3.49060746e+02
603             	3.49061610e+02
604             	3.49062559e+02
605             	3.49063496e+02
606             	3.49064339e+02
607             	3.49064975e+02
608             	3.49065464e+02
609             	3.49065812e+02
610             	3.49066074e+02
611             	3.49066162e+02
612             	3.49066130e+02
613             	3.49066002e+02
614             	3.49065859e+02
615             	3.49065737e+02
616             	3.49065473e+02
617             	3.49065194e+02
618             	3.49064975e+02
619             	3.49064862e+02
620             	3.49064829e+02
621             	3.49064657e+02
