# Region        : cellZone pcb
# Cells         : 395
# Volume        : 7.79595987e-01
# Time          	volAverage(T)
1               	3.00012818e+02
2               	3.00037218e+02
3               	3.00071754e+02
4               	3.00114459e+02
5               	3.00162111e+02
6               	3.00216272e+02
7               	3.00276848e+02
8               	3.00344139e+02
9               	3.00417917e+02
10              	3.00498621e+02
11              	3.00586471e+02
12              	3.00677530e+02
13              	3.00773547e+02
14              	3.00874252e+02
15              	3.00981936e+02
16              	3.01091546e+02
17              	3.01200809e+02
18              	3.01311769e+02
19              	3.01426016e+02
20              	3.01541697e+02
21              	3.01662344e+02
22              	3.01789209e+02
23              	3.01912874e+02
24              	3.02039066e+02
25              	3.02165983e+02
26              	3.02292983e+02
27              	3.02422882e+02
28              	3.02555650e+02
29              	3.02689287e+02
30              	3.02823974e+02
31              	3.02959605e+02
32              	3.03098198e+02
33              	3.03235860e+02
34              	3.03376226e+02
35              	3.03516766e+02
36              	3.03650720e+02
37              	3.03780448e+02
38              	3.03911089e+02
39              	3.04047246e+02
40              	3.04182942e+02
41              	3.04320246e+02
42              	3.04459658e+02
43              	3.04603400e+02
44              	3.04744887e+02
45              	3.04880226e+02
46              	3.05013677e+02
47              	3.05147197e+02
48              	3.05277959e+02
49              	3.05408391e+02
50              	3.05538349e+02
51              	3.05668372e+02
52              	3.05793034e+02
53              	3.05912488e+02
54              	3.06031709e+02
55              	3.06153283e+02
56              	3.06276518e+02
57              	3.06400863e+02
58              	3.06526520e+02
59              	3.06654576e+02
60              	3.06782864e+02
61              	3.06910884e+02
62              	3.07038398e+02
63              	3.07164271e+02
64              	3.07289743e+02
65              	3.07412317e+02
66              	3.07531276e+02
67              	3.07647278e+02
68              	3.07758835e+02
69              	3.07866805e+02
70              	3.07972034e+02
71              	3.08076430e+02
72              	3.08181253e+02
73              	3.08287936e+02
74              	3.08397163e+02
75              	3.08505538e+02
76              	3.08613996e+02
77              	3.08724205e+02
78              	3.08829762e+02
79              	3.08930103e+02
80              	3.09027851e+02
81              	3.09123700e+02
82              	3.09220525e+02
83              	3.09318575e+02
84              	3.09411782e+02
85              	3.09505408e+02
86              	3.09596467e+02
87              	3.09685958e+02
88              	3.09777556e+02
89              	3.09869282e+02
90              	3.09960361e+02
91              	3.10050803e+02
92              	3.10137196e+02
93              	3.10221663e+02
94              	3.10302729e+02
95              	3.10383032e+02
96              	3.10460514e+02
97              	3.10540769e+02
98              	3.10620841e+02
99              	3.10696919e+02
100             	3.10766071e+02
101             	3.10835884e+02
102             	3.10902974e+02
103             	3.10971053e+02
104             	3.11041026e+02
105             	3.11109763e+02
106             	3.11174499e+02
107             	3.11243730e+02
108             	3.11313252e+02
109             	3.11379827e+02
110             	3.11442624e+02
111             	3.11501897e+02
112             	3.11560876e+02
113             	3.11615757e+02
114             	3.11669456e+02
115             	3.11721689e+02
116             	3.11773722e+02
117             	3.11825799e+02
118             	3.11878115e+02
119             	3.11930123e+02
120             	3.11982762e+02
121             	3.12033382e+02
122             	3.12083652e+02
123             	3.12133406e+02
124             	3.12182821e+02
125             	3.12231401e+02
126             	3.12278033e+02
127             	3.12322739e+02
128             	3.12364639e+02
129             	3.12405347e+02
130             	3.12443906e+02
131             	3.12481391e+02
132             	3.12518156e+02
133             	3.12554038e+02
134             	3.12589989e+02
135             	3.12626061e+02
136             	3.12663318e+02
137             	3.12700565e+02
138             	3.12735592e+02
139             	3.12770783e+02
140             	3.12806487e+02
141             	3.12840884e+02
142             	3.12873934e+02
143             	3.12904983e+02
144             	3.12935285e+02
145             	3.12964025e+02
146             	3.12991112e+02
147             	3.13017876e+02
148             	3.13043887e+02
149             	3.13070226e+02
150             	3.13096343e+02
151             	3.13121745e+02
152             	3.13146994e+02
153             	3.13172093e+02
154             	3.13196616e+02
155             	3.13220891e+02
156             	3.13245004e+02
157             	3.13268885e+02
158             	3.13292155e+02
159             	3.13314912e+02
160             	3.13336785e+02
161             	3.13357502e+02
162             	3.13377578e+02
163             	3.13397179e+02
164             	3.13416080e+02
165             	3.13434454e+02
166             	3.13452493e+02
167             	3.13470087e+02
168             	3.13486845e+02
169             	3.13502946e+02
170             	3.13518657e+02
171             	3.13534145e+02
172             	3.13549345e+02
173             	3.13564330e+02
174             	3.13579349e+02
175             	3.13594152e+02
176             	3.13608758e+02
177             	3.13623227e+02
178             	3.13637592e+02
179             	3.13651608e+02
180             	3.13665114e+02
181             	3.13678267e+02
182             	3.13690979e+02
183             	3.13703184e+02
184             	3.13714765e+02
185             	3.13725754e+02
186             	3.13736159e+02
187             	3.13746019e+02
188             	3.13755581e+02
189             	3.13764929e+02
190             	3.13773844e+02
191             	3.13782332e+02
192             	3.13790611e+02
193             	3.13798675e+02
194             	3.13806463e+02
195             	3.13814169e+02
196             	3.13821879e+02
197             	3.13829539e+02
198             	3.13836934e+02
199             	3.13844164e+02
200             	3.13851391e+02
201             	3.13858304e+02
202             	3.13864928e+02
203             	3.13871267e+02
204             	3.13877200e+02
205             	3.13882797e+02
206             	3.13888067e+02
207             	3.13893055e+02
208             	3.13897712e+02
209             	3.13902064e+02
210             	3.13906203e+02
211             	3.13910112e+02
212             	3.13913926e+02
213             	3.13917507e+02
214             	3.13920866e+02
215             	3.13924043e+02
216             	3.13927224e+02
217             	3.13930408e+02
218             	3.13933491e+02
219             	3.13936356e+02
220             	3.13939030e+02
221             	3.13941638e+02
222             	3.13944065e+02
223             	3.13946305e+02
224             	3.13948374e+02
225             	3.13950273e+02
226             	3.13952028e+02
227             	3.13953614e+02
228             	3.13954994e+02
229             	3.13956133e+02
230             	3.13957044e+02
231             	3.13957747e+02
232             	3.13958325e+02
233             	3.13958893e+02
234             	3.13959487e+02
235             	3.13960046e+02
236             	3.13960544e+02
237             	3.13960926e+02
238             	3.13961212e+02
239             	3.13961387e+02
240             	3.13961440e+02
241             	3.13961407e+02
242             	3.13961254e+02
243             	3.13960969e+02
244             	3.13960562e+02
245             	3.13960071e+02
246             	3.13959464e+02
247             	3.13958771e+02
248             	3.13957988e+02
249             	3.13957095e+02
250             	3.13956108e+02
251             	3.13955016e+02
252             	3.13953844e+02
253             	3.13952659e+02
254             	3.13951439e+02
255             	3.13950169e+02
256             	3.13948853e+02
257             	3.13947503e+02
258             	3.13946106e+02
259             	3.13944661e+02
260             	3.13943150e+02
261             	3.13941595e+02
262             	3.13939974e+02
263             	3.13938293e+02
264             	3.13936543e+02
265             	3.13934733e+02
266             	3.13932845e+02
267             	3.13930904e+02
268             	3.13928936e+02
269             	3.13926922e+02
270             	3.13924837e+02
271             	3.13922714e+02
272             	3.13920542e+02
273             	3.13918343e+02
274             	3.13916102e+02
275             	3.13913811e+02
276             	3.13911494e+02
277             	3.13909158e+02
278             	3.13906791e+02
279             	3.13904423e+02
280             	3.13902037e+02
281             	3.13899645e+02
282             	3.13897266e+02
283             	3.13894869e+02
284             	3.13892434e+02
285             	3.13889992e+02
286             	3.13887509e+02
287             	3.13884967e+02
288             	3.13882412e+02
289             	3.13879857e+02
290             	3.13877265e+02
291             	3.13874637e+02
292             	3.13871977e+02
293             	3.13869324e+02
294             	3.13866622e+02
295             	3.13863899e+02
296             	3.13861162e+02
297             	3.13858433e+02
298             	3.13855694e+02
299             	3.13852967e+02
300             	3.13850248e+02
301             	3.13847545e+02
302             	3.13844834e+02
303             	3.13842136e+02
304             	3.13839438e+02
305             	3.13836745e+02
306             	3.13834033e+02
307             	3.13831317e+02
308             	3.13828586e+02
309             	3.13825861e+02
310             	3.13823117e+02
311             	3.13820378e+02
312             	3.13817637e+02
313             	3.13814908e+02
314             	3.13812168e+02
315             	3.13809431e+02
316             	3.13806683e+02
317             	3.13803945e+02
318             	3.13801188e+02
319             	3.13798418e+02
320             	3.13795639e+02
321             	3.13792895e+02
322             	3.13790171e+02
323             	3.13787467e+02
324             	3.13784768e+02
325             	3.13782109e+02
326             	3.13779455e+02
327             	3.13776799e+02
328             	3.13774142e+02
329             	3.13771503e+02
330             	3.13768871e+02
331             	3.13766239e+02
332             	3.13763614e+02
333             	3.13761010e+02
334             	3.13758400e+02
335             	3.13755797e+02
336             	3.13753193e+02
337             	3.13750607e+02
338             	3.13748019e+02
339             	3.13745440e+02
340             	3.13742861e+02
341             	3.13740304e+02
342             	3.13737753e+02
343             	3.13735207e+02
344             	3.13732669e+02
345             	3.13730167e+02
346             	3.13727674e+02
347             	3.13725199e+02
348             	3.13722739e+02
349             	3.13720311e+02
350             	3.13717894e+02
351             	3.13715497e+02
352             	3.13713111e+02
353             	3.13710751e+02
354             	3.13708389e+02
355             	3.13706040e+02
356             	3.13703699e+02
357             	3.13701381e+02
358             	3.13699065e+02
359             	3.13696755e+02
360             	3.13694446e+02
361             	3.13692162e+02
362             	3.13689880e+02
363             	3.13687610e+02
364             	3.13685354e+02
365             	3.13683128e+02
366             	3.13680909e+02
367             	3.13678719e+02
368             	3.13676557e+02
369             	3.13674416e+02
370             	3.13672280e+02
371             	3.13670162e+02
372             	3.13668054e+02
373             	3.13665966e+02
374             	3.13663881e+02
375             	3.13661809e+02
376             	3.13659746e+02
377             	3.13657705e+02
378             	3.13655671e+02
379             	3.13653650e+02
380             	3.13651637e+02
381             	3.13649654e+02
382             	3.13647686e+02
383             	3.13645739e+02
384             	3.13643808e+02
385             	3.13641908e+02
386             	3.13640025e+02
387             	3.13638156e+02
388             	3.13636292e+02
389             	3.13634450e+02
390             	3.13632619e+02
391             	3.13630799e+02
392             	3.13628986e+02
393             	3.13627198e+02
394             	3.13625418e+02
395             	3.13623646e+02
396             	3.13621873e+02
397             	3.13620137e+02
398             	3.13618411e+02
399             	3.13616700e+02
400             	3.13615001e+02
401             	3.13613316e+02
402             	3.13611641e+02
403             	3.13609993e+02
404             	3.13608373e+02
405             	3.13606797e+02
406             	3.13605238e+02
407             	3.13603675e+02
408             	3.13602116e+02
409             	3.13600578e+02
410             	3.13599031e+02
411             	3.13597494e+02
412             	3.13595962e+02
413             	3.13594455e+02
414             	3.13592958e+02
415             	3.13591482e+02
416             	3.13590025e+02
417             	3.13588592e+02
418             	3.13587167e+02
419             	3.13585746e+02
420             	3.13584331e+02
421             	3.13582934e+02
422             	3.13581547e+02
423             	3.13580180e+02
424             	3.13578832e+02
425             	3.13577509e+02
426             	3.13576201e+02
427             	3.13574904e+02
428             	3.13573631e+02
429             	3.13572382e+02
430             	3.13571139e+02
431             	3.13569904e+02
432             	3.13568677e+02
433             	3.13567471e+02
434             	3.13566272e+02
435             	3.13565082e+02
436             	3.13563900e+02
437             	3.13562738e+02
438             	3.13561583e+02
439             	3.13560433e+02
440             	3.13559292e+02
441             	3.13558173e+02
442             	3.13557063e+02
443             	3.13555963e+02
444             	3.13554874e+02
445             	3.13553808e+02
446             	3.13552752e+02
447             	3.13551707e+02
448             	3.13550672e+02
449             	3.13549655e+02
450             	3.13548647e+02
451             	3.13547647e+02
452             	3.13546658e+02
453             	3.13545686e+02
454             	3.13544726e+02
455             	3.13543779e+02
456             	3.13542840e+02
457             	3.13541922e+02
458             	3.13541015e+02
459             	3.13540120e+02
460             	3.13539234e+02
461             	3.13538365e+02
462             	3.13537503e+02
463             	3.13536652e+02
464             	3.13535810e+02
465             	3.13534983e+02
466             	3.13534162e+02
467             	3.13533349e+02
468             	3.13532541e+02
469             	3.13531749e+02
470             	3.13530962e+02
471             	3.13530181e+02
472             	3.13529405e+02
473             	3.13528647e+02
474             	3.13527896e+02
475             	3.13527153e+02
476             	3.13526418e+02
477             	3.13525700e+02
478             	3.13524993e+02
479             	3.13524294e+02
480             	3.13523605e+02
481             	3.13522935e+02
482             	3.13522275e+02
483             	3.13521623e+02
484             	3.13520979e+02
485             	3.13520351e+02
486             	3.13519732e+02
487             	3.13519120e+02
488             	3.13518512e+02
489             	3.13517921e+02
490             	3.13517336e+02
491             	3.13516757e+02
492             	3.13516182e+02
493             	3.13515621e+02
494             	3.13515069e+02
495             	3.13514524e+02
496             	3.13513983e+02
497             	3.13513458e+02
498             	3.13512938e+02
499             	3.13512424e+02
500             	3.13511913e+02
501             	3.13511413e+02
502             	3.13510919e+02
503             	3.13510429e+02
504             	3.13509943e+02
505             	3.13509471e+02
506             	3.13509006e+02
507             	3.13508545e+02
508             	3.13508088e+02
509             	3.13507644e+02
510             	3.13507207e+02
511             	3.13506774e+02
512             	3.13506347e+02
513             	3.13505935e+02
514             	3.13505529e+02
515             	3.13505127e+02
516             	3.13504734e+02
517             	3.13504356e+02
518             	3.13503981e+02
519             	3.13503612e+02
520             	3.13503250e+02
521             	3.13502904e+02
522             	3.13502563e+02
523             	3.13502226e+02
524             	3.13501892e+02
525             	3.13501568e+02
526             	3.13501248e+02
527             	3.13500931e+02
528             	3.13500620e+02
529             	3.13500323e+02
530             	3.13500031e+02
531             	3.13499736e+02
532             	3.13499443e+02
533             	3.13499161e+02
534             	3.13498881e+02
535             	3.13498599e+02
536             	3.13498321e+02
537             	3.13498055e+02
538             	3.13497793e+02
539             	3.13497536e+02
540             	3.13497283e+02
541             	3.13497040e+02
542             	3.13496805e+02
543             	3.13496573e+02
544             	3.13496345e+02
545             	3.13496129e+02
546             	3.13495920e+02
547             	3.13495712e+02
548             	3.13495508e+02
549             	3.13495315e+02
550             	3.13495127e+02
551             	3.13494938e+02
552             	3.13494752e+02
553             	3.13494576e+02
554             	3.13494406e+02
555             	3.13494235e+02
556             	3.13494066e+02
557             	3.13493908e+02
558             	3.13493755e+02
559             	3.13493602e+02
560             	3.13493452e+02
561             	3.13493311e+02
562             	3.13493177e+02
563             	3.13493041e+02
564             	3.13492909e+02
565             	3.13492786e+02
566             	3.13492667e+02
567             	3.13492547e+02
568             	3.13492429e+02
569             	3.13492320e+02
570             	3.13492215e+02
571             	3.13492109e+02
572             	3.13492004e+02
573             	3.13491908e+02
574             	3.13491817e+02
575             	3.13491724e+02
576             	3.13491633e+02
577             	3.13491550e+02
578             	3.13491471e+02
579             	3.13491391e+02
580             	3.13491313e+02
581             	3.13491243e+02
582             	3.13491180e+02
583             	3.13491113e+02
584             	3.13491049e+02
585             	3.13490994e+02
586             	3.13490944e+02
587             	3.13490891e+02
588             	3.13490840e+02
589             	3.13490798e+02
590             	3.13490759e+02
591             	3.13490721e+02
592             	3.13490684e+02
593             	3.13490655e+02
594             	3.13490630e+02
595             	3.13490602e+02
596             	3.13490578e+02
597             	3.13490561e+02
598             	3.13490548e+02
599             	3.13490533e+02
600             	3.13490521e+02
601             	3.13490518e+02
602             	3.13490518e+02
603             	3.13490517e+02
604             	3.13490518e+02
605             	3.13490528e+02
606             	3.13490541e+02
607             	3.13490551e+02
608             	3.13490561e+02
609             	3.13490579e+02
610             	3.13490600e+02
611             	3.13490618e+02
612             	3.13490638e+02
613             	3.13490666e+02
614             	3.13490697e+02
615             	3.13490725e+02
616             	3.13490755e+02
617             	3.13490793e+02
618             	3.13490834e+02
619             	3.13490872e+02
620             	3.13490909e+02
621             	3.13490954e+02
