# Region        : cellZone component_3
# Cells         : 198
# Volume        : 3.61077171e-01
# Time          	volAverage(T)
1               	3.00290435e+02
2               	3.00577304e+02
3               	3.00848572e+02
4               	3.01108156e+02
5               	3.01359919e+02
6               	3.01605526e+02
7               	3.01845593e+02
8               	3.02081208e+02
9               	3.02312828e+02
10              	3.02540511e+02
11              	3.02765012e+02
12              	3.02988004e+02
13              	3.03213305e+02
14              	3.03435845e+02
15              	3.03651726e+02
16              	3.03863703e+02
17              	3.04068681e+02
18              	3.04267611e+02
19              	3.04463301e+02
20              	3.04656333e+02
21              	3.04843400e+02
22              	3.05025939e+02
23              	3.05202834e+02
24              	3.05373986e+02
25              	3.05541553e+02
26              	3.05708155e+02
27              	3.05875344e+02
28              	3.06038496e+02
29              	3.06193298e+02
30              	3.06340924e+02
31              	3.06489049e+02
32              	3.06634181e+02
33              	3.06775375e+02
34              	3.06909946e+02
35              	3.07038659e+02
36              	3.07186617e+02
37              	3.07333204e+02
38              	3.07475901e+02
39              	3.07615459e+02
40              	3.07751817e+02
41              	3.07884051e+02
42              	3.08010737e+02
43              	3.08134779e+02
44              	3.08256764e+02
45              	3.08379782e+02
46              	3.08499985e+02
47              	3.08615275e+02
48              	3.08721588e+02
49              	3.08820651e+02
50              	3.08909633e+02
51              	3.08981738e+02
52              	3.09062990e+02
53              	3.09148808e+02
54              	3.09228602e+02
55              	3.09303090e+02
56              	3.09372436e+02
57              	3.09438714e+02
58              	3.09510511e+02
59              	3.09591453e+02
60              	3.09667204e+02
61              	3.09730643e+02
62              	3.09781374e+02
63              	3.09827805e+02
64              	3.09866975e+02
65              	3.09909874e+02
66              	3.09955782e+02
67              	3.10004430e+02
68              	3.10056173e+02
69              	3.10104789e+02
70              	3.10152523e+02
71              	3.10200629e+02
72              	3.10262018e+02
73              	3.10326565e+02
74              	3.10367569e+02
75              	3.10386894e+02
76              	3.10390493e+02
77              	3.10384224e+02
78              	3.10371639e+02
79              	3.10375780e+02
80              	3.10392341e+02
81              	3.10405201e+02
82              	3.10411112e+02
83              	3.10424062e+02
84              	3.10448019e+02
85              	3.10485843e+02
86              	3.10519782e+02
87              	3.10528275e+02
88              	3.10517011e+02
89              	3.10498662e+02
90              	3.10497049e+02
91              	3.10499598e+02
92              	3.10508936e+02
93              	3.10527001e+02
94              	3.10543131e+02
95              	3.10555113e+02
96              	3.10563379e+02
97              	3.10567469e+02
98              	3.10570180e+02
99              	3.10575055e+02
100             	3.10580034e+02
101             	3.10592455e+02
102             	3.10613968e+02
103             	3.10637903e+02
104             	3.10660225e+02
105             	3.10664443e+02
106             	3.10652720e+02
107             	3.10650829e+02
108             	3.10668387e+02
109             	3.10683738e+02
110             	3.10690226e+02
111             	3.10698461e+02
112             	3.10710915e+02
113             	3.10730730e+02
114             	3.10751313e+02
115             	3.10796015e+02
116             	3.10812495e+02
117             	3.10810316e+02
118             	3.10793164e+02
119             	3.10768875e+02
120             	3.10745206e+02
121             	3.10744381e+02
122             	3.10747538e+02
123             	3.10750682e+02
124             	3.10751490e+02
125             	3.10754356e+02
126             	3.10761800e+02
127             	3.10774242e+02
128             	3.10778433e+02
129             	3.10764985e+02
130             	3.10748503e+02
131             	3.10728034e+02
132             	3.10702595e+02
133             	3.10687233e+02
134             	3.10674967e+02
135             	3.10663072e+02
136             	3.10653922e+02
137             	3.10648276e+02
138             	3.10654570e+02
139             	3.10668330e+02
140             	3.10693821e+02
141             	3.10721440e+02
142             	3.10743933e+02
143             	3.10757659e+02
144             	3.10764691e+02
145             	3.10769415e+02
146             	3.10772849e+02
147             	3.10780700e+02
148             	3.10788028e+02
149             	3.10789847e+02
150             	3.10794208e+02
151             	3.10803046e+02
152             	3.10816415e+02
153             	3.10833596e+02
154             	3.10854113e+02
155             	3.10891108e+02
156             	3.10933526e+02
157             	3.10971077e+02
158             	3.10992718e+02
159             	3.11002826e+02
160             	3.11001692e+02
161             	3.11010695e+02
162             	3.11024489e+02
163             	3.11034718e+02
164             	3.11042851e+02
165             	3.11056146e+02
166             	3.11076573e+02
167             	3.11100993e+02
168             	3.11128341e+02
169             	3.11156989e+02
170             	3.11195910e+02
171             	3.11239331e+02
172             	3.11270500e+02
173             	3.11297985e+02
174             	3.11321942e+02
175             	3.11349380e+02
176             	3.11373016e+02
177             	3.11382628e+02
178             	3.11391445e+02
179             	3.11403670e+02
180             	3.11417143e+02
181             	3.11434576e+02
182             	3.11457896e+02
183             	3.11488334e+02
184             	3.11522788e+02
185             	3.11556759e+02
186             	3.11588098e+02
187             	3.11619560e+02
188             	3.11644849e+02
189             	3.11669569e+02
190             	3.11691501e+02
191             	3.11713508e+02
192             	3.11734166e+02
193             	3.11755474e+02
194             	3.11777122e+02
195             	3.11797500e+02
196             	3.11818235e+02
197             	3.11842526e+02
198             	3.11869034e+02
199             	3.11898042e+02
200             	3.11931233e+02
201             	3.11968284e+02
202             	3.12008724e+02
203             	3.12056373e+02
204             	3.12107328e+02
205             	3.12163310e+02
206             	3.12223186e+02
207             	3.12282111e+02
208             	3.12338854e+02
209             	3.12389167e+02
210             	3.12434241e+02
211             	3.12475931e+02
212             	3.12515110e+02
213             	3.12551228e+02
214             	3.12585228e+02
215             	3.12617924e+02
216             	3.12649617e+02
217             	3.12678019e+02
218             	3.12704701e+02
219             	3.12727878e+02
220             	3.12749411e+02
221             	3.12770084e+02
222             	3.12789068e+02
223             	3.12810462e+02
224             	3.12835913e+02
225             	3.12867068e+02
226             	3.12902053e+02
227             	3.12936085e+02
228             	3.12963625e+02
229             	3.12991495e+02
230             	3.13019792e+02
231             	3.13043984e+02
232             	3.13067202e+02
233             	3.13088123e+02
234             	3.13108337e+02
235             	3.13127936e+02
236             	3.13148932e+02
237             	3.13172279e+02
238             	3.13200005e+02
239             	3.13231835e+02
240             	3.13265798e+02
241             	3.13298648e+02
242             	3.13331607e+02
243             	3.13360797e+02
244             	3.13387040e+02
245             	3.13407737e+02
246             	3.13425889e+02
247             	3.13440491e+02
248             	3.13454262e+02
249             	3.13468437e+02
250             	3.13481810e+02
251             	3.13494458e+02
252             	3.13507575e+02
253             	3.13521944e+02
254             	3.13537596e+02
255             	3.13554354e+02
256             	3.13571942e+02
257             	3.13589308e+02
258             	3.13607145e+02
259             	3.13625357e+02
260             	3.13644027e+02
261             	3.13662143e+02
262             	3.13680783e+02
263             	3.13700012e+02
264             	3.13719056e+02
265             	3.13738549e+02
266             	3.13757629e+02
267             	3.13776647e+02
268             	3.13794859e+02
269             	3.13810520e+02
270             	3.13824733e+02
271             	3.13837901e+02
272             	3.13850810e+02
273             	3.13861531e+02
274             	3.13872035e+02
275             	3.13881458e+02
276             	3.13890571e+02
277             	3.13898365e+02
278             	3.13906423e+02
279             	3.13914005e+02
280             	3.13920921e+02
281             	3.13927882e+02
282             	3.13935522e+02
283             	3.13944693e+02
284             	3.13954753e+02
285             	3.13965997e+02
286             	3.13978094e+02
287             	3.13991916e+02
288             	3.14007119e+02
289             	3.14022936e+02
290             	3.14038829e+02
291             	3.14054045e+02
292             	3.14067893e+02
293             	3.14080798e+02
294             	3.14091924e+02
295             	3.14101993e+02
296             	3.14110631e+02
297             	3.14118192e+02
298             	3.14124759e+02
299             	3.14130406e+02
300             	3.14135457e+02
301             	3.14140255e+02
302             	3.14145133e+02
303             	3.14150330e+02
304             	3.14154442e+02
305             	3.14159731e+02
306             	3.14166043e+02
307             	3.14172703e+02
308             	3.14179758e+02
309             	3.14187320e+02
310             	3.14197663e+02
311             	3.14209415e+02
312             	3.14221822e+02
313             	3.14234963e+02
314             	3.14247841e+02
315             	3.14259995e+02
316             	3.14270870e+02
317             	3.14280521e+02
318             	3.14290122e+02
319             	3.14298357e+02
320             	3.14305401e+02
321             	3.14312175e+02
322             	3.14318724e+02
323             	3.14325025e+02
324             	3.14331184e+02
325             	3.14337337e+02
326             	3.14342660e+02
327             	3.14348847e+02
328             	3.14353498e+02
329             	3.14357901e+02
330             	3.14362920e+02
331             	3.14367927e+02
332             	3.14374028e+02
333             	3.14380488e+02
334             	3.14386768e+02
335             	3.14392070e+02
336             	3.14396167e+02
337             	3.14398203e+02
338             	3.14399445e+02
339             	3.14399736e+02
340             	3.14400004e+02
341             	3.14400221e+02
342             	3.14399929e+02
343             	3.14401572e+02
344             	3.14404224e+02
345             	3.14407373e+02
346             	3.14412288e+02
347             	3.14416549e+02
348             	3.14421678e+02
349             	3.14427422e+02
350             	3.14433300e+02
351             	3.14439204e+02
352             	3.14445221e+02
353             	3.14450728e+02
354             	3.14457593e+02
355             	3.14465317e+02
356             	3.14473259e+02
357             	3.14480676e+02
358             	3.14488034e+02
359             	3.14495191e+02
360             	3.14501212e+02
361             	3.14505730e+02
362             	3.14509301e+02
363             	3.14511673e+02
364             	3.14512964e+02
365             	3.14515193e+02
366             	3.14516693e+02
367             	3.14517796e+02
368             	3.14519520e+02
369             	3.14521916e+02
370             	3.14524520e+02
371             	3.14526959e+02
372             	3.14527964e+02
373             	3.14528763e+02
374             	3.14529629e+02
375             	3.14530273e+02
376             	3.14530533e+02
377             	3.14530848e+02
378             	3.14532192e+02
379             	3.14534284e+02
380             	3.14536820e+02
381             	3.14539813e+02
382             	3.14542851e+02
383             	3.14545402e+02
384             	3.14547956e+02
385             	3.14550665e+02
386             	3.14552840e+02
387             	3.14554269e+02
388             	3.14556081e+02
389             	3.14557381e+02
390             	3.14558818e+02
391             	3.14560510e+02
392             	3.14562504e+02
393             	3.14564627e+02
394             	3.14566721e+02
395             	3.14568378e+02
396             	3.14569543e+02
397             	3.14570355e+02
398             	3.14571419e+02
399             	3.14572001e+02
400             	3.14573381e+02
401             	3.14574578e+02
402             	3.14576114e+02
403             	3.14578171e+02
404             	3.14580531e+02
405             	3.14582996e+02
406             	3.14585193e+02
407             	3.14587614e+02
408             	3.14589870e+02
409             	3.14591820e+02
410             	3.14593697e+02
411             	3.14595567e+02
412             	3.14597594e+02
413             	3.14599939e+02
414             	3.14602625e+02
415             	3.14605541e+02
416             	3.14608817e+02
417             	3.14613107e+02
418             	3.14617258e+02
419             	3.14621506e+02
420             	3.14625892e+02
421             	3.14630100e+02
422             	3.14633872e+02
423             	3.14636745e+02
424             	3.14639271e+02
425             	3.14641071e+02
426             	3.14642256e+02
427             	3.14642865e+02
428             	3.14642816e+02
429             	3.14642170e+02
430             	3.14641065e+02
431             	3.14639665e+02
432             	3.14638169e+02
433             	3.14636506e+02
434             	3.14634817e+02
435             	3.14633073e+02
436             	3.14631473e+02
437             	3.14630071e+02
438             	3.14628872e+02
439             	3.14627911e+02
440             	3.14627244e+02
441             	3.14626998e+02
442             	3.14627083e+02
443             	3.14627413e+02
444             	3.14628082e+02
445             	3.14629056e+02
446             	3.14630389e+02
447             	3.14632001e+02
448             	3.14633797e+02
449             	3.14635761e+02
450             	3.14637790e+02
451             	3.14639788e+02
452             	3.14641943e+02
453             	3.14643935e+02
454             	3.14645981e+02
455             	3.14648049e+02
456             	3.14650145e+02
457             	3.14652219e+02
458             	3.14654128e+02
459             	3.14655914e+02
460             	3.14657517e+02
461             	3.14658898e+02
462             	3.14659944e+02
463             	3.14660915e+02
464             	3.14661752e+02
465             	3.14662470e+02
466             	3.14663125e+02
467             	3.14663683e+02
468             	3.14664285e+02
469             	3.14664779e+02
470             	3.14665409e+02
471             	3.14666089e+02
472             	3.14666956e+02
473             	3.14667781e+02
474             	3.14668556e+02
475             	3.14669381e+02
476             	3.14670051e+02
477             	3.14670805e+02
478             	3.14671481e+02
479             	3.14671888e+02
480             	3.14672107e+02
481             	3.14672118e+02
482             	3.14671960e+02
483             	3.14671626e+02
484             	3.14671129e+02
485             	3.14670561e+02
486             	3.14669963e+02
487             	3.14669260e+02
488             	3.14668489e+02
489             	3.14667662e+02
490             	3.14666784e+02
491             	3.14665872e+02
492             	3.14665007e+02
493             	3.14664068e+02
494             	3.14663147e+02
495             	3.14662272e+02
496             	3.14661477e+02
497             	3.14660798e+02
498             	3.14660272e+02
499             	3.14659922e+02
500             	3.14659760e+02
501             	3.14659808e+02
502             	3.14660115e+02
503             	3.14660665e+02
504             	3.14661423e+02
505             	3.14662179e+02
506             	3.14663213e+02
507             	3.14664419e+02
508             	3.14665751e+02
509             	3.14667207e+02
510             	3.14668763e+02
511             	3.14670391e+02
512             	3.14672041e+02
513             	3.14673545e+02
514             	3.14675072e+02
515             	3.14676501e+02
516             	3.14677574e+02
517             	3.14678540e+02
518             	3.14679355e+02
519             	3.14679967e+02
520             	3.14680400e+02
521             	3.14680675e+02
522             	3.14680825e+02
523             	3.14681038e+02
524             	3.14681175e+02
525             	3.14681290e+02
526             	3.14681355e+02
527             	3.14681435e+02
528             	3.14681516e+02
529             	3.14681402e+02
530             	3.14681256e+02
531             	3.14680975e+02
532             	3.14680617e+02
533             	3.14680108e+02
534             	3.14679699e+02
535             	3.14679309e+02
536             	3.14678821e+02
537             	3.14678378e+02
538             	3.14678068e+02
539             	3.14677893e+02
540             	3.14677844e+02
541             	3.14677910e+02
542             	3.14678076e+02
543             	3.14678358e+02
544             	3.14678736e+02
545             	3.14679224e+02
546             	3.14679788e+02
547             	3.14680391e+02
548             	3.14681030e+02
549             	3.14681691e+02
550             	3.14682358e+02
551             	3.14683004e+02
552             	3.14683774e+02
553             	3.14684456e+02
554             	3.14685072e+02
555             	3.14685682e+02
556             	3.14686213e+02
557             	3.14686642e+02
558             	3.14686953e+02
559             	3.14687005e+02
560             	3.14686972e+02
561             	3.14686771e+02
562             	3.14686416e+02
563             	3.14685866e+02
564             	3.14685314e+02
565             	3.14684773e+02
566             	3.14684210e+02
567             	3.14683665e+02
568             	3.14682941e+02
569             	3.14682447e+02
570             	3.14682054e+02
571             	3.14681711e+02
572             	3.14681390e+02
573             	3.14681003e+02
574             	3.14680913e+02
575             	3.14680904e+02
576             	3.14681251e+02
577             	3.14681680e+02
578             	3.14682555e+02
579             	3.14683576e+02
580             	3.14684732e+02
581             	3.14686000e+02
582             	3.14687150e+02
583             	3.14688136e+02
584             	3.14689003e+02
585             	3.14689630e+02
586             	3.14690177e+02
587             	3.14690604e+02
588             	3.14690811e+02
589             	3.14690877e+02
590             	3.14691207e+02
591             	3.14691423e+02
592             	3.14691639e+02
593             	3.14691866e+02
594             	3.14692129e+02
595             	3.14692492e+02
596             	3.14692672e+02
597             	3.14692781e+02
598             	3.14692793e+02
599             	3.14692609e+02
600             	3.14692282e+02
601             	3.14691945e+02
602             	3.14691917e+02
603             	3.14692375e+02
604             	3.14692807e+02
605             	3.14693448e+02
606             	3.14694059e+02
607             	3.14694847e+02
608             	3.14695573e+02
609             	3.14695934e+02
610             	3.14696288e+02
611             	3.14696384e+02
612             	3.14696243e+02
613             	3.14695825e+02
614             	3.14695331e+02
615             	3.14694842e+02
616             	3.14694445e+02
617             	3.14694148e+02
618             	3.14693942e+02
619             	3.14693749e+02
620             	3.14693561e+02
621             	3.14693471e+02
