# Region        : cellZone pcb
# Cells         : 530
# Volume        : 9.88248654e-01
# Time          	volAverage(T)
1               	3.00007431e+02
2               	3.00021862e+02
3               	3.00042521e+02
4               	3.00068164e+02
5               	3.00096890e+02
6               	3.00128808e+02
7               	3.00164344e+02
8               	3.00203068e+02
9               	3.00245742e+02
10              	3.00291705e+02
11              	3.00339920e+02
12              	3.00389733e+02
13              	3.00441775e+02
14              	3.00498185e+02
15              	3.00553778e+02
16              	3.00609852e+02
17              	3.00666500e+02
18              	3.00724216e+02
19              	3.00780899e+02
20              	3.00835936e+02
21              	3.00894745e+02
22              	3.00955313e+02
23              	3.01012858e+02
24              	3.01069102e+02
25              	3.01125491e+02
26              	3.01182544e+02
27              	3.01245397e+02
28              	3.01305998e+02
29              	3.01362850e+02
30              	3.01422220e+02
31              	3.01485151e+02
32              	3.01547648e+02
33              	3.01612112e+02
34              	3.01679390e+02
35              	3.01745152e+02
36              	3.01808479e+02
37              	3.01870111e+02
38              	3.01929246e+02
39              	3.01987900e+02
40              	3.02045651e+02
41              	3.02100349e+02
42              	3.02152850e+02
43              	3.02206548e+02
44              	3.02263310e+02
45              	3.02318285e+02
46              	3.02371958e+02
47              	3.02429391e+02
48              	3.02481991e+02
49              	3.02533695e+02
50              	3.02583541e+02
51              	3.02631549e+02
52              	3.02679890e+02
53              	3.02729233e+02
54              	3.02780980e+02
55              	3.02833493e+02
56              	3.02885854e+02
57              	3.02937402e+02
58              	3.02982998e+02
59              	3.03028082e+02
60              	3.03072715e+02
61              	3.03112971e+02
62              	3.03153896e+02
63              	3.03194232e+02
64              	3.03230268e+02
65              	3.03264615e+02
66              	3.03299820e+02
67              	3.03338574e+02
68              	3.03381900e+02
69              	3.03423188e+02
70              	3.03460230e+02
71              	3.03495795e+02
72              	3.03529527e+02
73              	3.03562866e+02
74              	3.03594229e+02
75              	3.03621067e+02
76              	3.03652557e+02
77              	3.03679336e+02
78              	3.03704989e+02
79              	3.03736061e+02
80              	3.03765289e+02
81              	3.03793936e+02
82              	3.03821504e+02
83              	3.03849575e+02
84              	3.03879851e+02
85              	3.03909845e+02
86              	3.03939070e+02
87              	3.03967374e+02
88              	3.03992472e+02
89              	3.04014950e+02
90              	3.04042285e+02
91              	3.04068749e+02
92              	3.04087395e+02
93              	3.04108008e+02
94              	3.04126776e+02
95              	3.04142976e+02
96              	3.04163523e+02
97              	3.04185143e+02
98              	3.04208310e+02
99              	3.04233252e+02
100             	3.04259220e+02
101             	3.04284718e+02
102             	3.04307378e+02
103             	3.04324028e+02
104             	3.04340878e+02
105             	3.04359924e+02
106             	3.04378657e+02
107             	3.04396662e+02
108             	3.04414665e+02
109             	3.04433321e+02
110             	3.04449744e+02
111             	3.04463664e+02
112             	3.04475221e+02
113             	3.04487121e+02
114             	3.04500312e+02
115             	3.04516825e+02
116             	3.04534832e+02
117             	3.04556772e+02
118             	3.04576947e+02
119             	3.04594169e+02
120             	3.04613072e+02
121             	3.04631744e+02
122             	3.04649578e+02
123             	3.04666559e+02
124             	3.04681458e+02
125             	3.04694706e+02
126             	3.04707699e+02
127             	3.04720367e+02
128             	3.04735868e+02
129             	3.04745771e+02
130             	3.04752317e+02
131             	3.04759432e+02
132             	3.04769937e+02
133             	3.04780986e+02
134             	3.04791577e+02
135             	3.04807171e+02
136             	3.04823796e+02
137             	3.04838883e+02
138             	3.04853700e+02
139             	3.04867305e+02
140             	3.04878308e+02
141             	3.04887370e+02
142             	3.04895331e+02
143             	3.04903773e+02
144             	3.04913614e+02
145             	3.04922885e+02
146             	3.04930582e+02
147             	3.04938652e+02
148             	3.04947495e+02
149             	3.04956973e+02
150             	3.04966331e+02
151             	3.04977481e+02
152             	3.04990393e+02
153             	3.04999020e+02
154             	3.05010177e+02
155             	3.05018958e+02
156             	3.05026659e+02
157             	3.05034252e+02
158             	3.05041233e+02
159             	3.05051232e+02
160             	3.05063707e+02
161             	3.05077811e+02
162             	3.05091056e+02
163             	3.05102716e+02
164             	3.05112470e+02
165             	3.05117568e+02
166             	3.05120724e+02
167             	3.05125097e+02
168             	3.05130655e+02
169             	3.05135889e+02
170             	3.05140406e+02
171             	3.05144757e+02
172             	3.05149929e+02
173             	3.05155362e+02
174             	3.05161009e+02
175             	3.05167141e+02
176             	3.05172454e+02
177             	3.05178016e+02
178             	3.05180963e+02
179             	3.05187985e+02
180             	3.05194709e+02
181             	3.05198466e+02
182             	3.05202462e+02
183             	3.05207403e+02
184             	3.05215387e+02
185             	3.05224480e+02
186             	3.05233043e+02
187             	3.05241098e+02
188             	3.05249128e+02
189             	3.05258032e+02
190             	3.05267828e+02
191             	3.05273756e+02
192             	3.05275287e+02
193             	3.05277201e+02
194             	3.05279829e+02
195             	3.05283488e+02
196             	3.05286968e+02
197             	3.05292941e+02
198             	3.05298945e+02
199             	3.05304887e+02
200             	3.05309708e+02
201             	3.05312786e+02
202             	3.05315213e+02
203             	3.05316743e+02
204             	3.05318661e+02
205             	3.05321265e+02
206             	3.05324032e+02
207             	3.05327281e+02
208             	3.05331262e+02
209             	3.05335498e+02
210             	3.05339594e+02
211             	3.05343427e+02
212             	3.05347310e+02
213             	3.05351526e+02
214             	3.05355986e+02
215             	3.05360199e+02
216             	3.05364733e+02
217             	3.05369574e+02
218             	3.05374363e+02
219             	3.05379068e+02
220             	3.05384281e+02
221             	3.05389927e+02
222             	3.05395434e+02
223             	3.05400836e+02
224             	3.05406077e+02
225             	3.05411148e+02
226             	3.05415289e+02
227             	3.05419887e+02
228             	3.05424238e+02
229             	3.05428396e+02
230             	3.05432667e+02
231             	3.05436338e+02
232             	3.05439633e+02
233             	3.05442622e+02
234             	3.05445492e+02
235             	3.05448297e+02
236             	3.05450785e+02
237             	3.05452822e+02
238             	3.05455134e+02
239             	3.05457419e+02
240             	3.05459757e+02
241             	3.05462440e+02
242             	3.05465102e+02
243             	3.05468012e+02
244             	3.05471072e+02
245             	3.05473784e+02
246             	3.05476674e+02
247             	3.05479317e+02
248             	3.05482005e+02
249             	3.05484893e+02
250             	3.05487637e+02
251             	3.05490527e+02
252             	3.05493194e+02
253             	3.05495378e+02
254             	3.05497711e+02
255             	3.05500424e+02
256             	3.05503069e+02
257             	3.05504892e+02
258             	3.05506744e+02
259             	3.05508846e+02
260             	3.05511396e+02
261             	3.05513439e+02
262             	3.05515801e+02
263             	3.05518160e+02
264             	3.05520428e+02
265             	3.05522680e+02
266             	3.05525145e+02
267             	3.05527402e+02
268             	3.05529905e+02
269             	3.05532387e+02
270             	3.05534433e+02
271             	3.05536467e+02
272             	3.05538562e+02
273             	3.05540513e+02
274             	3.05542187e+02
275             	3.05544161e+02
276             	3.05545587e+02
277             	3.05547270e+02
278             	3.05548768e+02
279             	3.05549850e+02
280             	3.05551194e+02
281             	3.05552565e+02
282             	3.05553900e+02
283             	3.05554923e+02
284             	3.05556458e+02
285             	3.05557801e+02
286             	3.05558880e+02
287             	3.05560296e+02
288             	3.05561637e+02
289             	3.05563315e+02
290             	3.05565049e+02
291             	3.05566583e+02
292             	3.05568306e+02
293             	3.05569928e+02
294             	3.05571420e+02
295             	3.05573084e+02
296             	3.05574688e+02
297             	3.05576251e+02
298             	3.05577740e+02
299             	3.05578623e+02
300             	3.05579728e+02
301             	3.05580700e+02
302             	3.05581780e+02
303             	3.05582757e+02
304             	3.05583646e+02
305             	3.05584347e+02
306             	3.05585187e+02
307             	3.05586074e+02
308             	3.05586768e+02
309             	3.05587671e+02
310             	3.05588662e+02
311             	3.05589540e+02
312             	3.05590546e+02
313             	3.05591718e+02
314             	3.05592444e+02
315             	3.05593325e+02
316             	3.05594306e+02
317             	3.05595050e+02
318             	3.05596029e+02
319             	3.05597010e+02
320             	3.05597729e+02
321             	3.05598591e+02
322             	3.05599434e+02
323             	3.05600032e+02
324             	3.05600764e+02
325             	3.05601236e+02
326             	3.05601889e+02
327             	3.05602612e+02
328             	3.05603062e+02
329             	3.05603640e+02
330             	3.05604307e+02
331             	3.05604564e+02
332             	3.05605210e+02
333             	3.05605868e+02
334             	3.05606651e+02
335             	3.05606959e+02
336             	3.05607575e+02
337             	3.05608270e+02
338             	3.05608712e+02
339             	3.05609403e+02
340             	3.05610111e+02
341             	3.05610567e+02
342             	3.05611210e+02
343             	3.05611827e+02
344             	3.05612185e+02
345             	3.05612718e+02
346             	3.05613259e+02
347             	3.05613851e+02
348             	3.05614149e+02
349             	3.05614342e+02
350             	3.05614728e+02
351             	3.05615217e+02
352             	3.05615861e+02
353             	3.05615910e+02
354             	3.05616376e+02
355             	3.05616842e+02
356             	3.05617075e+02
357             	3.05617447e+02
358             	3.05617906e+02
359             	3.05618198e+02
360             	3.05618648e+02
361             	3.05619043e+02
362             	3.05619208e+02
363             	3.05619501e+02
364             	3.05619779e+02
365             	3.05619854e+02
366             	3.05620103e+02
367             	3.05620410e+02
368             	3.05620456e+02
369             	3.05620762e+02
370             	3.05621079e+02
371             	3.05621166e+02
372             	3.05621440e+02
373             	3.05621749e+02
374             	3.05621872e+02
375             	3.05622215e+02
376             	3.05622581e+02
377             	3.05622752e+02
378             	3.05623122e+02
379             	3.05623499e+02
380             	3.05623684e+02
381             	3.05624009e+02
382             	3.05624350e+02
383             	3.05624549e+02
384             	3.05624962e+02
385             	3.05625402e+02
386             	3.05625519e+02
387             	3.05625539e+02
388             	3.05625828e+02
389             	3.05626092e+02
390             	3.05626438e+02
391             	3.05626377e+02
392             	3.05626616e+02
393             	3.05626781e+02
394             	3.05626698e+02
395             	3.05626824e+02
396             	3.05627007e+02
397             	3.05626958e+02
398             	3.05627142e+02
399             	3.05627297e+02
400             	3.05627285e+02
401             	3.05627563e+02
402             	3.05627656e+02
403             	3.05627532e+02
404             	3.05627659e+02
405             	3.05627813e+02
406             	3.05627762e+02
407             	3.05627930e+02
408             	3.05628122e+02
409             	3.05628114e+02
410             	3.05628316e+02
411             	3.05628530e+02
412             	3.05628535e+02
413             	3.05628743e+02
414             	3.05628974e+02
415             	3.05629031e+02
416             	3.05629272e+02
417             	3.05629603e+02
418             	3.05629637e+02
419             	3.05629945e+02
420             	3.05630118e+02
421             	3.05630019e+02
422             	3.05630149e+02
423             	3.05630256e+02
424             	3.05630141e+02
425             	3.05630242e+02
426             	3.05630353e+02
427             	3.05630272e+02
428             	3.05630428e+02
429             	3.05630583e+02
430             	3.05630544e+02
431             	3.05630740e+02
432             	3.05630900e+02
433             	3.05630858e+02
434             	3.05630686e+02
435             	3.05630804e+02
436             	3.05630974e+02
437             	3.05630895e+02
438             	3.05631042e+02
439             	3.05631201e+02
440             	3.05631166e+02
441             	3.05631319e+02
442             	3.05631484e+02
443             	3.05631466e+02
444             	3.05631646e+02
445             	3.05631821e+02
446             	3.05631799e+02
447             	3.05632049e+02
448             	3.05632300e+02
449             	3.05631831e+02
450             	3.05631906e+02
451             	3.05632025e+02
452             	3.05632189e+02
453             	3.05632002e+02
454             	3.05632110e+02
455             	3.05632238e+02
456             	3.05632188e+02
457             	3.05632346e+02
458             	3.05632478e+02
459             	3.05632390e+02
460             	3.05632530e+02
461             	3.05632711e+02
462             	3.05632665e+02
463             	3.05632882e+02
464             	3.05633023e+02
465             	3.05632931e+02
466             	3.05633150e+02
467             	3.05633340e+02
468             	3.05633297e+02
469             	3.05632938e+02
470             	3.05632978e+02
471             	3.05633070e+02
472             	3.05632951e+02
473             	3.05633051e+02
474             	3.05633157e+02
475             	3.05633081e+02
476             	3.05633240e+02
477             	3.05633360e+02
478             	3.05633258e+02
479             	3.05633389e+02
480             	3.05633497e+02
481             	3.05633399e+02
482             	3.05633569e+02
483             	3.05633711e+02
484             	3.05633599e+02
485             	3.05633740e+02
486             	3.05633886e+02
487             	3.05633795e+02
488             	3.05633998e+02
489             	3.05634113e+02
490             	3.05633992e+02
491             	3.05633703e+02
492             	3.05633747e+02
493             	3.05633835e+02
494             	3.05633715e+02
495             	3.05633829e+02
496             	3.05633952e+02
497             	3.05634213e+02
498             	3.05633981e+02
499             	3.05633719e+02
500             	3.05633786e+02
501             	3.05633898e+02
502             	3.05633772e+02
503             	3.05633886e+02
504             	3.05634041e+02
505             	3.05634338e+02
506             	3.05634086e+02
507             	3.05634254e+02
508             	3.05634004e+02
509             	3.05634085e+02
510             	3.05633962e+02
511             	3.05634045e+02
512             	3.05634146e+02
513             	3.05634372e+02
514             	3.05634128e+02
515             	3.05634232e+02
516             	3.05634425e+02
517             	3.05634407e+02
518             	3.05634138e+02
519             	3.05634199e+02
520             	3.05634302e+02
521             	3.05634205e+02
522             	3.05634328e+02
523             	3.05634452e+02
524             	3.05634378e+02
525             	3.05634541e+02
526             	3.05634690e+02
527             	3.05634603e+02
528             	3.05634348e+02
529             	3.05634399e+02
530             	3.05634498e+02
531             	3.05634388e+02
532             	3.05634496e+02
533             	3.05634629e+02
534             	3.05634577e+02
535             	3.05634725e+02
536             	3.05634847e+02
537             	3.05634730e+02
538             	3.05634868e+02
539             	3.05634920e+02
540             	3.05634753e+02
541             	3.05634857e+02
542             	3.05635046e+02
543             	3.05634960e+02
544             	3.05634649e+02
545             	3.05634693e+02
546             	3.05634785e+02
547             	3.05634668e+02
548             	3.05634773e+02
549             	3.05634877e+02
550             	3.05634789e+02
551             	3.05634918e+02
552             	3.05635031e+02
553             	3.05634922e+02
554             	3.05635041e+02
555             	3.05635134e+02
556             	3.05635013e+02
557             	3.05635216e+02
558             	3.05634892e+02
559             	3.05634931e+02
560             	3.05634771e+02
561             	3.05634845e+02
562             	3.05634942e+02
563             	3.05635134e+02
564             	3.05634969e+02
565             	3.05634748e+02
566             	3.05634812e+02
567             	3.05634913e+02
568             	3.05634800e+02
569             	3.05634899e+02
570             	3.05635008e+02
571             	3.05634947e+02
572             	3.05635160e+02
573             	3.05634911e+02
574             	3.05634980e+02
575             	3.05634844e+02
576             	3.05634940e+02
577             	3.05635053e+02
578             	3.05635279e+02
579             	3.05635043e+02
580             	3.05635183e+02
581             	3.05635349e+02
582             	3.05635266e+02
583             	3.05634997e+02
584             	3.05635056e+02
585             	3.05635170e+02
586             	3.05635024e+02
587             	3.05635129e+02
588             	3.05635244e+02
589             	3.05635163e+02
590             	3.05635355e+02
591             	3.05635587e+02
592             	3.05635536e+02
593             	3.05635156e+02
594             	3.05635170e+02
595             	3.05635256e+02
596             	3.05635105e+02
597             	3.05635201e+02
598             	3.05635319e+02
599             	3.05635242e+02
600             	3.05635464e+02
601             	3.05635638e+02
602             	3.05635510e+02
603             	3.05635172e+02
604             	3.05635206e+02
605             	3.05635305e+02
606             	3.05635149e+02
607             	3.05635251e+02
608             	3.05635374e+02
609             	3.05635658e+02
610             	3.05635357e+02
611             	3.05635545e+02
612             	3.05635727e+02
613             	3.05635618e+02
614             	3.05635271e+02
615             	3.05635301e+02
616             	3.05635396e+02
617             	3.05635244e+02
618             	3.05635346e+02
619             	3.05635475e+02
620             	3.05635762e+02
621             	3.05635463e+02
